time,time,flux,flux_err
1325.2985364469039,1325.2985364469039,0.9999143974153434,6.542587871652727e-05
1325.3068697909432,1325.3068697909432,1.000046640681681,6.544032381473663e-05
1325.3152031352838,1325.3152031352838,1.000090783382775,6.544143919480643e-05
1325.3235364799343,1325.3235364799343,0.9999905364344013,6.544071332970273e-05
1325.3311753794376,1325.3311753794376,1.0000087130711768,5.974039928684009e-05
1325.338119833751,1325.338119833751,1.0000223566571822,5.974503449712036e-05
1325.3450642882744,1325.3450642882744,0.9999871659161261,5.9744454118263565e-05
1325.352008742972,1325.352008742972,0.9999470711435487,5.9747018580139254e-05
1325.3589531978673,1325.3589531978673,0.9999758799773082,5.9754359576929725e-05
1325.3658976529728,1325.3658976529728,0.9999617565438903,5.975892510556671e-05
1325.3728421082637,1325.3728421082637,1.0000997312300344,5.976609881931093e-05
1325.3797865637184,1325.3797865637184,0.9999699717055259,5.976794267346142e-05
1325.386731019394,1325.386731019394,0.999975018316718,5.977694403650116e-05
1325.3936754752206,1325.3936754752206,1.000029987148157,5.978446003240839e-05
1325.4006199312455,1325.4006199312455,1.0000694538899597,5.9790443092930526e-05
1325.4075643874562,1325.4075643874562,1.0000602168964956,5.979264421374328e-05
1325.4145088438188,1325.4145088438188,1.000000334386516,5.9801883563418386e-05
1325.4214533004022,1325.4214533004022,0.9998539944102032,5.97997843364843e-05
1325.4283977571372,1325.4283977571372,1.0000266099833577,5.981163468577823e-05
1325.4353422140352,1325.4353422140352,0.9999863481889493,5.9814237354242984e-05
1325.4422866711077,1325.4422866711077,1.0000085530963494,5.9819942890135216e-05
1325.4492311283661,1325.4492311283661,0.9999584938572988,5.982344981475241e-05
1325.4561755857649,1325.4561755857649,1.000004026519467,5.982799071590706e-05
1325.463120043361,1325.463120043361,0.9999938518007981,5.983177888992014e-05
1325.4700645010857,1325.4700645010857,0.999970474242952,5.9833417883149147e-05
1325.4770089589963,1325.4770089589963,1.0000977771249557,5.984135544571798e-05
1325.4839534170583,1325.4839534170583,0.9999658744683471,5.984043426314722e-05
1325.4908978752835,1325.4908978752835,0.9999017431575806,5.98407229015038e-05
1325.4978423336481,1325.4978423336481,1.0001107700075669,5.985141428717656e-05
1325.5047867921876,1325.5047867921876,0.9999723068982345,5.985108737145675e-05
1325.5117312508783,1325.5117312508783,0.9999108676970085,5.985098797858412e-05
1325.5186757097085,1325.5186757097085,1.0001003340692924,5.985981014009242e-05
1325.5256201686784,1325.5256201686784,0.9999267862656593,5.9858447762113643e-05
1325.5325646278116,1325.5325646278116,1.0000318171010623,5.986522431387083e-05
1325.539509087096,1325.539509087096,1.0000651846081396,5.986989246237777e-05
1325.5464535465087,1325.5464535465087,0.9999826010542208,5.9869643048163646e-05
1325.5533980060723,1325.5533980060723,0.9999016354922675,5.98713326131139e-05
1325.5603424657875,1325.5603424657875,1.0000666896813926,5.988058085027442e-05
1325.567286925631,1325.567286925631,1.000070981714817,5.9885565710329825e-05
1325.5742313856251,1325.5742313856251,0.9999825761610015,5.988601568228151e-05
1325.5811758457246,1325.5811758457246,0.9999409661139465,5.98889657466789e-05
1325.5881203059748,1325.5881203059748,0.9999744100780562,5.989237950718329e-05
1325.5950647663656,1325.5950647663656,1.0000552603645352,5.9899201587893144e-05
1325.6020092268955,1325.6020092268955,1.0000097278946554,5.990221315177759e-05
1325.6089536875302,1325.6089536875302,0.9999746440256126,5.990417293476263e-05
1325.6158981482931,1325.6158981482931,1.000065273505571,5.990894633597952e-05
1325.622842609219,1325.622842609219,1.0000434109754819,5.9912329421863016e-05
1325.629787070238,1325.629787070238,0.9999204441067192,5.9912622915723924e-05
1325.636731531385,1325.636731531385,0.999982827557418,5.991775672403416e-05
1325.6436759926717,1325.6436759926717,0.9999812765992651,5.99218145361591e-05
1325.6506204540867,1325.6506204540867,0.9999956562604376,5.992642326293939e-05
1325.6575649155827,1325.6575649155827,1.0000731037389756,5.9932005425229915e-05
1325.6645093772306,1325.6645093772306,0.9999762267607238,5.993351094950933e-05
1325.671453838971,1325.671453838971,1.0000006468515121,5.993347482608216e-05
1325.6783983008518,1325.6783983008518,0.9999532475680273,5.993717780730975e-05
1325.6853427628255,1325.6853427628255,0.9999427155696388,5.99436508534929e-05
1325.692287224927,1325.692287224927,1.000015118729649,5.995056274490984e-05
1325.6992316871224,1325.6992316871224,1.0001099201394787,5.995579286513282e-05
1325.7061761494447,1325.7061761494447,1.0000255065764405,5.9960598628948185e-05
1325.7131206118725,1325.7131206118725,1.0000385505060327,5.9964351821743204e-05
1325.7200650744046,1325.7200650744046,0.9999656428374207,5.9968784070914964e-05
1325.7270095370418,1325.7270095370418,0.9999409540442835,5.997456395843218e-05
1325.7339539997836,1325.7339539997836,0.9999152052076011,5.9975870545384797e-05
1325.740898462642,1325.740898462642,0.9999832857022533,5.9983892822600375e-05
1325.7478429255934,1325.7478429255934,1.0000513377937268,5.999169862162523e-05
1325.75478738865,1325.75478738865,1.0000966369093969,5.99977257935986e-05
1325.761731851811,1325.761731851811,0.9999771391624691,6.000211138263764e-05
1325.768676315065,1325.768676315065,1.0000018483062874,6.0007128192181625e-05
1325.775620778412,1325.775620778412,0.9999908133586753,6.0009422041027954e-05
1325.7825652418644,1325.7825652418644,0.999897842563619,6.001041007592599e-05
1325.7895097054213,1325.7895097054213,1.0000179789509818,6.001660351606273e-05
1325.7964541690478,1325.7964541690478,0.9999034360111649,6.001710680002153e-05
1325.8033986327796,1325.8033986327796,1.0000759234130172,6.00276590367749e-05
1325.8103430966155,1325.8103430966155,1.0000087461392215,6.0027261570117406e-05
1325.8172875605335,1325.8172875605335,1.0000999274335995,6.003372080931549e-05
1325.8242320245558,1325.8242320245558,0.9999449511779577,6.00307956295516e-05
1325.8311764886366,1325.8311764886366,1.000105540888852,6.003879726286886e-05
1325.8381209528222,1325.8381209528222,1.0000351449119143,6.003942926313578e-05
1325.8450654171006,1325.8450654171006,0.9999126406101772,6.003585965578439e-05
1325.8520098814606,1325.8520098814606,0.9999542885332167,6.003943403075668e-05
1325.8589543459025,1325.8589543459025,1.0000223378777178,6.004228853698489e-05
1325.8658988104373,1325.8658988104373,0.9999385879030009,6.004207080628159e-05
1325.8728432750418,1325.8728432750418,1.0000634712730028,6.004403245896403e-05
1325.8797877397512,1325.8797877397512,0.9999119132327279,6.0039343353437695e-05
1325.8867322045303,1325.8867322045303,1.0000701485956474,6.004393123199083e-05
1325.8936766693794,1325.8936766693794,1.0000636721357714,6.004371174521765e-05
1325.9006211343217,1325.9006211343217,1.0000663767534272,6.0044012981298324e-05
1325.9075655993452,1325.9075655993452,0.9999790297062393,6.004049553198533e-05
1325.9145100644387,1325.9145100644387,0.9998497338304191,6.003552601748103e-05
1325.9214545295788,1325.9214545295788,1.0000894359947705,6.0047939251513184e-05
1325.9283989948588,1325.9283989948588,0.9999346074449758,6.004231693169274e-05
1325.9353434601617,1325.9353434601617,0.9999448882696708,6.0043213839904105e-05
1325.9422879255694,1325.9422879255694,1.0000955285257165,6.00485339391465e-05
1325.9492323910592,1325.9492323910592,0.9999126142037639,6.004156325208998e-05
1325.9561768565832,1325.9561768565832,1.0000948953306452,6.004971735419657e-05
1325.9642324366926,1325.9642324366926,0.9999425558981937,6.004783088946662e-05
1325.9714546810233,1325.9714546810233,1.0000005023066163,6.004501018822062e-05
1325.9783991468034,1325.9783991468034,0.9998712543301723,6.004093498358888e-05
1325.9853436126186,1325.9853436126186,1.0001717915529222,6.005030409730023e-05
1325.9922880785384,1325.9922880785384,0.9999656590527106,6.0045816670395154e-05
1325.9992325445055,1325.9992325445055,1.0000645205873118,6.004909860108282e-05
1326.0061770105535,1326.0061770105535,1.0000939574486725,6.0050850759140825e-05
1326.0131214766484,1326.0131214766484,1.000016104428613,6.00505504746967e-05
1326.0200659428247,1326.0200659428247,0.9998401919926112,6.004612725101952e-05
1326.027010409059,1326.027010409059,0.9998863465074169,6.005018077210815e-05
1326.0339548753514,1326.0339548753514,1.0000039087613757,6.005265726788268e-05
1326.0408993417252,1326.0408993417252,1.0000614506608492,6.0051627186259035e-05
1326.0478438081348,1326.0478438081348,0.9999793653261335,6.004863380439675e-05
1326.0547882746364,1326.0547882746364,1.0000238136000628,6.004990477019555e-05
1326.061732741174,1326.061732741174,1.0001151941669737,6.005436331910605e-05
1326.0686772077806,1326.0686772077806,1.000083272843531,6.0054690120599554e-05
1326.0756216744455,1326.0756216744455,0.9999394556754677,6.004784841320917e-05
1326.0825661411693,1326.0825661411693,0.9999095778319201,6.0044445648294326e-05
1326.0895106079624,1326.0895106079624,1.0000223750043182,6.005004614974812e-05
1326.0964550747908,1326.0964550747908,0.9999558968126762,6.004663594895276e-05
1326.1033995416888,1326.1033995416888,0.9999431603204856,6.004787530415225e-05
1326.1103440086329,1326.1103440086329,0.9999704816608629,6.004596891792947e-05
1326.1172884756475,1326.1172884756475,1.0000367702743382,6.0048677543424637e-05
1326.1242329427082,1326.1242329427082,0.9999751674629038,6.004294823948132e-05
1326.1311774098278,1326.1311774098278,1.0001294928603057,6.004653357281595e-05
1326.1381218770046,1326.1381218770046,0.9999713481131982,6.003914906651021e-05
1326.1450663442058,1326.1450663442058,1.0001302628575472,6.0046259277450435e-05
1326.152010811511,1326.152010811511,0.9998728391694719,6.003453221026561e-05
1326.1589552788396,1326.1589552788396,1.0000677233708921,6.0041635032862277e-05
1326.1658997462034,1326.1658997462034,0.9999838728777617,6.0038540994184126e-05
1326.1728442136366,1326.1728442136366,0.9999965836822835,6.0033938286534846e-05
1326.1797886811287,1326.1797886811287,0.9998755186471866,6.003104174053512e-05
1326.186733148655,1326.186733148655,1.0000387314486479,6.003029031916467e-05
1326.1936776162281,1326.1936776162281,0.9999692940374925,6.0027230255240736e-05
1326.2006220838598,1326.2006220838598,1.0000898639851543,6.003012270422335e-05
1326.2075665515376,1326.2075665515376,0.9999916052913946,6.002532938638733e-05
1326.214511019262,1326.214511019262,0.9999523942689628,6.002093310662481e-05
1326.2214554870216,1326.2214554870216,1.0000009194224635,6.0019209383607494e-05
1326.2283999548392,1326.2283999548392,0.9999898764382709,6.0018191757259885e-05
1326.2353444227033,1326.2353444227033,1.0000184298580257,6.001664981641737e-05
1326.2422888906137,1326.2422888906137,1.0000544190237477,6.0014304151497226e-05
1326.24923335856,1326.24923335856,0.9999349419866432,6.00096192645862e-05
1326.2561778265638,1326.2561778265638,1.0000569026342352,6.001092668888972e-05
1326.263122294591,1326.263122294591,0.9999704075175936,6.0008188817562224e-05
1326.2700667626882,1326.2700667626882,1.0000478492558764,6.000776021584203e-05
1326.2770112308085,1326.2770112308085,0.9999405003610853,6.0002986775981536e-05
1326.2839556989638,1326.2839556989638,0.9999813185076458,6.000229588614095e-05
1326.2909001671887,1326.2909001671887,0.999921243943923,6.000124631133453e-05
1326.2978446354373,1326.2978446354373,1.0002010633699385,6.000535697599121e-05
1326.3047891037202,1326.3047891037202,0.9999790345860091,5.999895137651788e-05
1326.3117335720622,1326.3117335720622,1.0000175542314051,6.000000083183552e-05
1326.3186780404153,1326.3186780404153,0.9998572200821598,5.999400098199014e-05
1326.3256225088264,1326.3256225088264,1.0000272585708876,5.999665131254898e-05
1326.3325669772962,1326.3325669772962,0.9998765559883432,5.999336346415073e-05
1326.3395114457774,1326.3395114457774,1.00008446484836,5.999744271039649e-05
1326.347567029286,1326.347567029286,0.9999685316338655,5.999445558688386e-05
1326.3561781703136,1326.3561781703136,1.0001041033752451,5.9996958299622835e-05
1326.3631226389232,1326.3631226389232,1.0000619043366512,5.999769823057254e-05
1326.370067107579,1326.370067107579,0.9999935878620784,5.999386067711285e-05
1326.3770115762813,1326.3770115762813,1.0000255946206575,5.9995992917923775e-05
1326.3839560449953,1326.3839560449953,1.000039128130853,5.999232777918151e-05
1326.3909005137675,1326.3909005137675,0.9999196341809762,5.998950271427476e-05
1326.3978449825634,1326.3978449825634,0.9999207363410493,5.999062331632929e-05
1326.4047894513935,1326.4047894513935,0.9999494760257231,5.9986902030357246e-05
1326.4117339202596,1326.4117339202596,1.000010503939818,5.9988357511115136e-05
1326.4186783891594,1326.4186783891594,1.0000474363036118,5.998918858730875e-05
1326.4256228580948,1326.4256228580948,1.0000168119021655,5.998515040943459e-05
1326.4325673270646,1326.4325673270646,1.0000175483902065,5.9984492140927396e-05
1326.4395117960582,1326.4395117960582,0.9999888354367101,5.998147438199352e-05
1326.4464562651099,1326.4464562651099,0.9999721473796075,5.997823592463782e-05
1326.453400734173,1326.453400734173,1.0000462411776456,5.997998081328657e-05
1326.46034520326,1326.46034520326,0.9999359396254262,5.9974461044580225e-05
1326.4672896723928,1326.4672896723928,1.0000872794084281,5.9975123100908753e-05
1326.474234141549,1326.474234141549,0.9999890090076688,5.997235192290745e-05
1326.481178610741,1326.481178610741,0.9999656721326051,5.9970163595850595e-05
1326.488123079967,1326.488123079967,0.99997397561417,5.996898140150014e-05
1326.4950675492285,1326.4950675492285,1.0000963045576965,5.9968282257065965e-05
1326.5020120185122,1326.5020120185122,0.9999798592744733,5.996530764151728e-05
1326.508956487809,1326.508956487809,0.999885288970073,5.996171752190527e-05
1326.5159009571514,1326.5159009571514,0.9999797181557499,5.996263372402493e-05
1326.5228454265175,1326.5228454265175,1.0000835692980286,5.9966397084048546e-05
1326.5297898959302,1326.5297898959302,1.0000273388301797,5.9965032068258245e-05
1326.5367343653538,1326.5367343653538,0.9999990045975853,5.996312069750811e-05
1326.543678834802,1326.543678834802,1.0000247908162165,5.9963090040645155e-05
1326.550623304284,1326.550623304284,0.9999607624514908,5.99629551786075e-05
1326.55756777379,1326.55756777379,1.00007196019164,5.9966683559732893e-05
1326.5645122433302,1326.5645122433302,0.9999292346353712,5.995967081504735e-05
1326.571456712871,1326.571456712871,0.9999636725325773,5.995707186812429e-05
1326.5784011824817,1326.5784011824817,1.0000218337413576,5.995782325749365e-05
1326.5853456520917,1326.5853456520917,0.9999384027486183,5.9957224946320504e-05
1326.5922901217375,1326.5922901217375,1.0001127313310623,5.9961499264569246e-05
1326.599234591406,1326.599234591406,0.9999945126605555,5.99539561309022e-05
1326.606179061086,1326.606179061086,0.9998929189952526,5.9950597706890364e-05
1326.6131235308017,1326.6131235308017,0.9999615531652477,5.995261265598264e-05
1326.6200680005513,1326.6200680005513,1.00015139103192,5.995538113808018e-05
1326.6270124703135,1326.6270124703135,0.9999857532231138,5.994814977362108e-05
1326.6339569401098,1326.6339569401098,1.0000086449915908,5.994821586619753e-05
1326.640901409907,1326.640901409907,0.9998561911571182,5.99415512816551e-05
1326.6478458797735,1326.6478458797735,1.0001038271736475,5.994783388318177e-05
1326.65479034964,1326.65479034964,1.0000673131774414,5.994310213618175e-05
1326.6617348195066,1326.6617348195066,1.000056247608813,5.993998403955213e-05
1326.6686792894077,1326.6686792894077,0.9999514664948549,5.9933546725621376e-05
1326.6756237593331,1326.6756237593331,0.9999154233360951,5.9930640227019685e-05
1326.6825682292806,1326.6825682292806,1.0000784044852893,5.992957299490682e-05
1326.6909015932488,1326.6909015932488,0.9998430122086404,5.992091589056847e-05
1326.6978460632668,1326.6978460632668,1.000025460787995,5.992249486367824e-05
1326.704790533273,1326.704790533273,0.9999274535001602,5.991507202078733e-05
1326.712568339733,1326.712568339733,1.0000215410001898,5.991835904652729e-05
1326.7200683673989,1326.7200683673989,0.9999695171939311,5.99128183398806e-05
1326.7270128374862,1326.7270128374862,1.0000754126645741,5.9914212624907206e-05
1326.7339573075856,1326.7339573075856,1.000026686168745,5.990941533839735e-05
1326.740901777732,1326.740901777732,1.000062765227701,5.9908620857333856e-05
1326.7478462478891,1326.7478462478891,1.0001360115305997,5.991061631729115e-05
1326.7547907180467,1326.7547907180467,1.0000197343237673,5.990540430048581e-05
1326.7617351882277,1326.7617351882277,0.9998824442145825,5.990187335239493e-05
1326.7686796584435,1326.7686796584435,0.9998941847602263,5.990505187188585e-05
1326.7756241286709,1326.7756241286709,1.0000416284212021,5.990698179265155e-05
1326.78256859891,1326.78256859891,1.0000001192678671,5.990807928415693e-05
1326.7895130691843,1326.7895130691843,0.999922287613584,5.9910461918719645e-05
1326.7964575394697,1326.7964575394697,1.0000632217388976,5.9916842925672865e-05
1326.8034020097791,1326.8034020097791,1.0000323123621155,5.991961079938917e-05
1326.8103464800874,1326.8103464800874,1.0000751856601195,5.9924201407442384e-05
1326.8172909504315,1326.8172909504315,1.0000034407891496,5.992365205497618e-05
1326.8242354207869,1326.8242354207869,0.9999460203667686,5.992446696142228e-05
1326.831179891154,1326.831179891154,1.0000407437405605,5.992797040940404e-05
1326.8381243615563,1326.8381243615563,0.9998611453267898,5.992944591839633e-05
1326.8450688319583,1326.8450688319583,1.0000890455065676,5.9936229727295655e-05
1326.852013302407,1326.852013302407,0.9999551874855156,5.993819331452994e-05
1326.8589577728555,1326.8589577728555,1.0000690298583095,5.993979360760653e-05
1326.8659022433044,1326.8659022433044,0.9999797302670675,5.9942870185251137e-05
1326.872846713753,1326.872846713753,0.9999886746411167,5.994226128970138e-05
1326.8797911842598,1326.8797911842598,0.9999799103374443,5.9943169772679366e-05
1326.8867356547667,1326.8867356547667,0.9999485397830451,5.994042690963057e-05
1326.8936801252964,1326.8936801252964,1.000113138257431,5.9949637802231356e-05
1326.900624595839,1326.900624595839,0.9999849840689936,5.993963046904223e-05
1326.9075690663803,1326.9075690663803,0.9999448208227933,5.994184795589783e-05
1326.914513536957,1326.914513536957,1.0000032805179706,5.994550368951497e-05
1326.9214580075454,1326.9214580075454,0.9999437844637779,5.994018798654478e-05
1326.9284024781455,1326.9284024781455,1.0000136138716034,5.994477864765619e-05
1326.9353469487571,1326.9353469487571,1.0000753552912247,5.9944025280077694e-05
1326.94229141938,1326.94229141938,0.9999034852175033,5.9941031204783394e-05
1326.9492358900386,1326.9492358900386,1.000096192528242,5.9945393897485284e-05
1326.9561803606964,1326.9561803606964,1.0000085110385388,5.994675084752819e-05
1326.9631248313667,1326.9631248313667,0.9999931756878404,5.99447676474633e-05
1326.9700693020598,1326.9700693020598,1.0000246831170803,5.99486963312213e-05
1326.9770137727526,1326.9770137727526,0.9999960279530832,5.99469686861264e-05
1326.9839582434927,1326.9839582434927,0.9999712716346622,5.995023239731835e-05
1326.9909027141741,1326.9909027141741,1.0000112300851385,5.995335406703355e-05
1326.9978471849367,1326.9978471849367,0.9999473322158907,5.995086734774159e-05
1327.0047916557116,1327.0047916557116,0.9999197894752478,5.9957536989412126e-05
1327.0117361264627,1327.0117361264627,1.0000241976049336,5.996483935562406e-05
1327.0186805972492,1327.0186805972492,1.0000360754847337,5.9967943412006844e-05
1327.0256250680354,1327.0256250680354,1.0000033562673845,5.997196762765808e-05
1327.0325695388567,1327.0325695388567,1.0000678793504885,5.997878033717208e-05
1327.0395140096657,1327.0395140096657,0.9999963627756209,5.998162120873875e-05
1327.046458480499,1327.046458480499,1.0001172591444851,5.9988209532372934e-05
1327.0534029513433,1327.0534029513433,0.9999318824944854,5.9990231583271473e-05
1327.0614585375413,1327.0614585375413,1.0000407137055738,5.9999589009710254e-05
1327.0686807872385,1327.0686807872385,0.999901767848133,6.000183501698865e-05
