time,time,flux,flux_err
1354.1141548561725,1354.1141548561725,1648.9875,7.14677
1354.1155437759205,1354.1155437759205,1649.6719,7.141049
1354.118321614949,1354.118321614949,1670.2346,7.154643
1354.1197105342314,1354.1197105342314,1656.1149,7.153063
1354.1210994535134,1354.1210994535134,1643.9976,7.145015
1354.1224883732607,1354.1224883732607,1653.5553,7.157056
1354.1238772925424,1354.1238772925424,1649.9655,7.144756
1354.1252662122904,1354.1252662122904,1660.8844,7.1531644
1354.126655131573,1354.126655131573,1661.2678,7.1561937
1354.1280440508547,1354.1280440508547,1646.9712,7.1455607
1354.1294329706022,1354.1294329706022,1657.0698,7.154472
1354.1308218898837,1354.1308218898837,1664.401,7.155448
1354.1322108091656,1354.1322108091656,1669.3856,7.1645494
1354.1335997289136,1354.1335997289136,1666.011,7.1672606
1354.1349886481955,1354.1349886481955,1653.956,7.1567106
1354.136377567477,1354.136377567477,1649.8508,7.1468816
1354.1377664867596,1354.1377664867596,1648.1094,7.1468644
1354.139155406507,1354.139155406507,1647.078,7.1413054
1354.1405443257893,1354.1405443257893,1650.9532,7.152129
1354.1419332450712,1354.1419332450712,1654.9056,7.1526275
1354.1433221643522,1354.1433221643522,1641.9141,7.133589
1354.1447110836345,1354.1447110836345,1656.8906,7.15425
1354.146100002917,1354.146100002917,1643.544,7.137434
1354.1474889226645,1354.1474889226645,1646.8704,7.1441207
1354.1488778419462,1354.1488778419462,1643.383,7.1403933
1354.1502667612278,1354.1502667612278,1653.7983,7.146248
1354.1516556805102,1354.1516556805102,1652.4598,7.1521406
1354.1530445997928,1354.1530445997928,1647.8043,7.14671
1354.154433519074,1354.154433519074,1648.9324,7.1477857
1354.1558224383555,1354.1558224383555,1650.3386,7.1541886
1354.1572113576378,1354.1572113576378,1651.8721,7.1472316
1354.1586002769204,1354.1586002769204,1665.0787,7.16425
1354.159989196202,1354.159989196202,1656.2911,7.154345
1354.161378115483,1354.161378115483,1649.0293,7.1440983
1354.1627670347655,1354.1627670347655,1650.702,7.1565847
1354.164155954048,1354.164155954048,1654.9208,7.1496625
1354.1655448733297,1354.1655448733297,1654.4916,7.16012
1354.1669337926116,1354.1669337926116,1632.0074,7.135828
1354.168322711893,1354.168322711893,1640.635,7.143274
1354.1697116311757,1354.1697116311757,1651.6611,7.151955
1354.1711005499926,1354.1711005499926,1642.6769,7.145219
1354.1724894692736,1354.1724894692736,1662.8167,7.162803
1354.1738783885553,1354.1738783885553,1639.283,7.1439533
1354.1752673078379,1354.1752673078379,1657.4398,7.152817
1354.1766562271193,1354.1766562271193,1649.4677,7.1528883
1354.1780451464017,1354.1780451464017,1644.3809,7.1412263
1354.179434065218,1354.179434065218,1651.3463,7.1501966
1354.1808229844999,1354.1808229844999,1648.8265,7.1518803
1354.1822119037822,1354.1822119037822,1649.3074,7.1452665
1354.1836008230637,1354.1836008230637,1658.1609,7.1537647
1354.1849897418806,1354.1849897418806,1638.3783,7.141771
1354.1863786611623,1354.1863786611623,1653.9257,7.1518703
1354.1877675804433,1354.1877675804433,1653.1345,7.1469226
1354.1891564992602,1354.1891564992602,1655.362,7.152404
1354.1905454185428,1354.1905454185428,1656.8716,7.161953
1354.1919343378243,1354.1919343378243,1632.27,7.1377425
1354.1933232566405,1354.1933232566405,1657.7205,7.1634755
1354.1947121759222,1354.1947121759222,1639.2036,7.136701
1354.1961010952048,1354.1961010952048,1655.4745,7.157263
1354.1974900140215,1354.1974900140215,1654.2172,7.1567163
1354.1988789333025,1354.1988789333025,1645.8121,7.1475377
1354.2002678521185,1354.2002678521185,1649.4127,7.151807
1354.201656771401,1354.201656771401,1651.5099,7.149011
1354.2030456906834,1354.2030456906834,1651.5201,7.1509643
1354.2044346094992,1354.2044346094992,1648.5162,7.1490273
1354.2058235287805,1354.2058235287805,1647.4794,7.1391315
1354.2072124475974,1354.2072124475974,1642.791,7.1389933
1354.2086013668797,1354.2086013668797,1653.7039,7.1458573
1354.2099902856955,1354.2099902856955,1657.3114,7.1613703
1354.2113792045118,1354.2113792045118,1650.797,7.1522555
1354.2127681237937,1354.2127681237937,1644.7032,7.1481237
1354.2141570426104,1354.2141570426104,1655.1089,7.156046
1354.2155459618928,1354.2155459618928,1647.9639,7.1440163
1354.216934880708,1354.216934880708,1649.2278,7.1511817
1354.2183237995243,1354.2183237995243,1644.9487,7.143684
1354.2197127188067,1354.2197127188067,1646.297,7.1509814
1354.2211016376227,1354.2211016376227,1647.3082,7.1496987
1354.2224905569053,1354.2224905569053,1636.5397,7.1440763
1354.223879475721,1354.223879475721,1641.7496,7.1427183
1354.2252683945374,1354.2252683945374,1656.6487,7.1552124
1354.226657313354,1354.226657313354,1647.5791,7.146107
1354.228046232636,1354.228046232636,1649.0225,7.1447287
1354.2294351514518,1354.2294351514518,1657.4464,7.1598253
1354.230824070268,1354.230824070268,1657.9078,7.1591053
1354.232212989084,1354.232212989084,1666.804,7.159739
1354.2336019083666,1354.2336019083666,1656.5448,7.159506
1354.2349908271833,1354.2349908271833,1649.0079,7.152522
1354.2363797459993,1354.2363797459993,1638.899,7.137447
1354.2377686648153,1354.2377686648153,1650.6731,7.1511536
1354.2391575836316,1354.2391575836316,1650.9103,7.149321
1354.240546502914,1354.240546502914,1660.9137,7.1577263
1354.2419354217307,1354.2419354217307,1660.0557,7.1559505
1354.243324340546,1354.243324340546,1651.6973,7.150665
1354.2447132593622,1354.2447132593622,1655.0393,7.1514487
1354.246102178179,1354.246102178179,1638.4353,7.140114
1354.2474910969956,1354.2474910969956,1645.0239,7.145419
1354.248880015812,1354.248880015812,1646.18,7.1478415
1354.2502689346272,1354.2502689346272,1643.6808,7.1491632
1354.251657853444,1354.251657853444,1652.5676,7.151515
1354.2530467722606,1354.2530467722606,1659.0059,7.1542697
1354.2544356910769,1354.2544356910769,1647.9147,7.1534653
1354.2558246098927,1354.2558246098927,1637.2479,7.1474376
1354.257213528709,1354.257213528709,1663.1198,7.1630917
1354.2586024475256,1354.2586024475256,1646.9673,7.1385355
1354.2599913663423,1354.2599913663423,1649.8433,7.1462526
1354.2613802851577,1354.2613802851577,1653.4857,7.148463
1354.262769203974,1354.262769203974,1644.598,7.142156
1354.2641581227906,1354.2641581227906,1650.083,7.151327
1354.2655470416069,1354.2655470416069,1652.6018,7.150941
1354.2669359604236,1354.2669359604236,1656.1846,7.159005
1354.2683248792396,1354.2683248792396,1655.5531,7.158376
1354.26971379759,1354.26971379759,1644.6503,7.1492505
1354.2711027164066,1354.2711027164066,1660.627,7.163779
1354.2724916352229,1354.2724916352229,1653.5261,7.148604
1354.2738805540391,1354.2738805540391,1657.6237,7.1598454
1354.275269472855,1354.275269472855,1653.8442,7.150061
1354.2766583916712,1354.2766583916712,1652.5182,7.157415
1354.2780473100222,1354.2780473100222,1642.5388,7.1342297
1354.279436228839,1354.279436228839,1652.2456,7.154711
1354.2808251476552,1354.2808251476552,1658.7467,7.155228
1354.282214066471,1354.282214066471,1646.3146,7.13948
1354.2836029848215,1354.2836029848215,1661.4586,7.1611943
1354.2849919036382,1354.2849919036382,1641.1106,7.139065
1354.2863808224545,1354.2863808224545,1641.1705,7.1370974
1354.2877697408042,1354.2877697408042,1636.9985,7.129416
1354.2891586596209,1354.2891586596209,1642.5719,7.1436353
1354.2905475784376,1354.2905475784376,1652.3358,7.1498537
1354.2919364967886,1354.2919364967886,1647.624,7.149482
1354.2933254156048,1354.2933254156048,1665.3865,7.1612287
1354.2947143339545,1354.2947143339545,1647.4401,7.1438303
1354.2961032527712,1354.2961032527712,1646.4971,7.141583
1354.297492171588,1354.297492171588,1652.0331,7.1476965
1354.2988810899378,1354.2988810899378,1655.1075,7.1534123
1354.3002700087538,1354.3002700087538,1655.9178,7.151779
1354.3016589271049,1354.3016589271049,1654.2942,7.1488533
1354.3030478459216,1354.3030478459216,1649.92,7.14968
1354.3044367642729,1354.3044367642729,1644.2269,7.146247
1354.3058256830884,1354.3058256830884,1653.3389,7.15107
1354.3072146014385,1354.3072146014385,1652.0557,7.1473684
1354.3086035202552,1354.3086035202552,1643.8783,7.1372085
1354.3099924386058,1354.3099924386058,1651.7802,7.1520963
1354.3113813574225,1354.3113813574225,1661.9716,7.1603494
1354.3127702757731,1354.3127702757731,1653.6736,7.153115
1354.3141591945891,1354.3141591945891,1646.5303,7.1471705
1354.3155481129404,1354.3155481129404,1657.5403,7.1525483
1354.3169370312905,1354.3169370312905,1641.922,7.1411595
1354.3183259501068,1354.3183259501068,1654.7428,7.149095
1354.3197148684571,1354.3197148684571,1649.7502,7.1583776
1354.3211037868075,1354.3211037868075,1658.3936,7.1540685
1354.3224927056242,1354.3224927056242,1656.2814,7.1507444
1354.3238816239752,1354.3238816239752,1659.6514,7.1633177
1354.3252705423258,1354.3252705423258,1643.544,7.139102
1354.326659461142,1354.326659461142,1657.0951,7.153202
1354.3280483794922,1354.3280483794922,1646.7183,7.151085
1354.3294372978432,1354.3294372978432,1646.4951,7.139941
1354.3308262161938,1354.3308262161938,1662.065,7.1541533
1354.3322151350092,1354.3322151350092,1649.1714,7.147286
1354.3336040533602,1354.3336040533602,1657.6478,7.158906
1354.3349929717115,1354.3349929717115,1660.4799,7.1525555
1354.3363818900627,1354.3363818900627,1657.3523,7.1566086
1354.3377708088785,1354.3377708088785,1635.7028,7.1346836
1354.3391597272282,1354.3391597272282,1642.0609,7.1366396
1354.3405486455795,1354.3405486455795,1648.5754,7.1411796
1354.3419375639307,1354.3419375639307,1648.2043,7.1466947
1354.3433264822804,1354.3433264822804,1651.352,7.1477466
1354.3447154006305,1354.3447154006305,1654.8324,7.1531568
1354.3461043189818,1354.3461043189818,1655.9524,7.158311
1354.347493237333,1354.347493237333,1655.1592,7.1515303
1354.3488821561498,1354.3488821561498,1658.5865,7.1498866
1354.3502710744995,1354.3502710744995,1652.7556,7.153424
1354.3516599928498,1354.3516599928498,1659.1411,7.1500964
1354.353048911201,1354.353048911201,1648.6387,7.1472106
1354.3544378295512,1354.3544378295512,1649.0747,7.146885
1354.3558267479018,1354.3558267479018,1661.0658,7.1629295
1354.3572156662522,1354.3572156662522,1646.6199,7.155474
1354.3586045846034,1354.3586045846034,1657.008,7.1591907
1354.3599935029545,1354.3599935029545,1654.7848,7.154483
1354.3613824213048,1354.3613824213048,1648.1714,7.1480303
1354.3627713396552,1354.3627713396552,1648.0657,7.1456847
1354.3641602580058,1354.3641602580058,1646.2344,7.148854
1354.3655491758902,1354.3655491758902,1644.9706,7.148161
1354.3669380942415,1354.3669380942415,1639.8804,7.140967
1354.3683270125928,1354.3683270125928,1652.5775,7.150871
1354.369715930943,1354.369715930943,1651.6958,7.148956
1354.3711048492935,1354.3711048492935,1644.9773,7.1450295
1354.3724937676438,1354.3724937676438,1646.1,7.1414447
1354.373882685995,1354.373882685995,1646.5261,7.1360803
1354.3752716043452,1354.3752716043452,1652.6226,7.155656
1354.3766605222293,1354.3766605222293,1650.9249,7.1492877
1354.3780494405805,1354.3780494405805,1643.4016,7.1381583
1354.3794383589318,1354.3794383589318,1654.2482,7.1444297
1354.3808272772828,1354.3808272772828,1655.9335,7.155651
1354.3822161951675,1354.3822161951675,1651.4468,7.1496496
1354.3836051135174,1354.3836051135174,1667.215,7.1651216
1354.3849940318685,1354.3849940318685,1649.3115,7.14661
1354.3863829502195,1354.3863829502195,1650.0347,7.152377
1354.3877718681035,1354.3877718681035,1654.112,7.157248
1354.389160786454,1354.389160786454,1659.3799,7.1570764
1354.3905497048052,1354.3905497048052,1657.2893,7.1527905
1354.3919386226905,1354.3919386226905,1650.5358,7.1460524
1354.3933275410416,1354.3933275410416,1642.4009,7.1422944
1354.3947164593912,1354.3947164593912,1663.4637,7.157559
1354.3961053772762,1354.3961053772762,1658.9819,7.1530924
1354.3974942956272,1354.3974942956272,1647.495,7.1503468
1354.3988832139778,1354.3988832139778,1652.3137,7.146459
1354.4002721318623,1354.4002721318623,1644.5897,7.1337833
1354.4016610502129,1354.4016610502129,1658.1069,7.1523438
1354.4030499680982,1354.4030499680982,1648.0211,7.1504235
1354.4044388864493,1354.4044388864493,1654.7184,7.152028
1354.4058278043342,1354.4058278043342,1634.6411,7.136114
1354.4072167226843,1354.4072167226843,1653.5099,7.1571245
1354.408605641035,1354.408605641035,1645.0146,7.139562
1354.4099945589198,1354.4099945589198,1658.4117,7.1549716
1354.4113834772709,1354.4113834772709,1650.6318,7.145778
1354.4127723951563,1354.4127723951563,1663.2177,7.159948
1354.4141613135066,1354.4141613135066,1653.8635,7.1506457
1354.4155502313913,1354.4155502313913,1653.2894,7.1541114
1354.4169391492762,1354.4169391492762,1650.8788,7.1526947
1354.4183280676273,1354.4183280676273,1647.9106,7.145491
1354.4197169855122,1354.4197169855122,1638.2716,7.131156
1354.4211059038619,1354.4211059038619,1653.5854,7.148869
1354.4224948217473,1354.4224948217473,1650.8988,7.145716
1354.4238837396326,1354.4238837396326,1659.7421,7.160461
1354.4252726579837,1354.4252726579837,1654.4595,7.1497517
1354.4266615758686,1354.4266615758686,1648.5566,7.1447005
1354.4280504942183,1354.4280504942183,1659.4575,7.152705
1354.4294394121036,1354.4294394121036,1658.4469,7.15478
1354.430828329989,1354.430828329989,1650.532,7.142963
1354.432217247873,1354.432217247873,1652.3861,7.1472692
1354.4336061662236,1354.4336061662236,1646.847,7.1457424
1354.434995084109,1354.434995084109,1658.1982,7.154013
1354.4363840019944,1354.4363840019944,1655.2279,7.1504297
1354.4377729203454,1354.4377729203454,1645.8228,7.1404524
1354.4391618382294,1354.4391618382294,1653.3541,7.1469064
1354.4405507561144,1354.4405507561144,1650.1185,7.1510572
1354.4419396739997,1354.4419396739997,1649.6492,7.141557
1354.4433285918847,1354.4433285918847,1659.8865,7.155591
1354.444717510235,1354.444717510235,1648.5612,7.148945
1354.4461064281197,1354.4461064281197,1655.4594,7.1512127
1354.447495346005,1354.447495346005,1643.1185,7.1403522
1354.4488842638905,1354.4488842638905,1653.1909,7.149987
1354.4502731817754,1354.4502731817754,1664.3639,7.159386
1354.4516620996603,1354.4516620996603,1649.4249,7.1463904
1354.4530510180105,1354.4530510180105,1646.8623,7.1405725
1354.4544399358954,1354.4544399358954,1651.7914,7.1483035
1354.4558288537808,1354.4558288537808,1659.2142,7.156218
1354.4572177716661,1354.4572177716661,1662.051,7.1533628
1354.458606689551,1354.458606689551,1652.6555,7.1484685
1354.4599956074358,1354.4599956074358,1649.0684,7.1449614
1354.4613845253205,1354.4613845253205,1641.5249,7.1415176
1354.4627734432058,1354.4627734432058,1635.2444,7.129519
1354.4641623610908,1354.4641623610908,1643.9547,7.1429553
1354.4655512789748,1354.4655512789748,1649.0112,7.146387
1354.4669401968602,1354.4669401968602,1649.5449,7.148286
1354.4683291147455,1354.4683291147455,1651.901,7.144968
1354.469718032631,1354.469718032631,1645.7225,7.1442657
1354.4711069505158,1354.4711069505158,1648.6334,7.1384335
1354.4724958683998,1354.4724958683998,1655.7228,7.150402
1354.4738847862852,1354.4738847862852,1648.6632,7.148344
1354.4752737041706,1354.4752737041706,1648.9008,7.1534605
1354.4766626220548,1354.4766626220548,1648.6461,7.1493297
1354.4780515399395,1354.4780515399395,1653.9077,7.1478353
1354.4794404573593,1354.4794404573593,1650.1207,7.1540403
1354.4808293752449,1354.4808293752449,1664.5138,7.158561
1354.4822182931305,1354.4822182931305,1656.4767,7.154918
1354.4836072110145,1354.4836072110145,1643.8894,7.1432424
1354.484996128899,1354.484996128899,1651.0743,7.145574
1354.4863850467846,1354.4863850467846,1644.6273,7.135819
1354.4877739646693,1354.4877739646693,1640.471,7.1383343
1354.4891628820885,1354.4891628820885,1641.8403,7.1397805
1354.490551799973,1354.490551799973,1643.0104,7.1380806
1354.4919407178586,1354.4919407178586,1657.7812,7.153316
1354.4933296357442,1354.4933296357442,1652.4285,7.1486025
1354.494718553163,1354.494718553163,1646.5062,7.140508
1354.496107471048,1354.496107471048,1648.0171,7.139878
1354.4974963889326,1354.4974963889326,1649.7391,7.149591
1354.4988853068173,1354.4988853068173,1648.8346,7.1473317
1354.500274224237,1354.500274224237,1651.1013,7.1503587
1354.5016631421227,1354.5016631421227,1648.6951,7.151434
1354.5030520600073,1354.5030520600073,1663.3357,7.158191
1354.5044409774266,1354.5044409774266,1656.9417,7.14425
1354.505829895311,1354.505829895311,1664.7821,7.156679
1354.5072188131967,1354.5072188131967,1641.9731,7.137178
1354.5086077306157,1354.5086077306157,1647.9236,7.147841
1354.5099966484997,1354.5099966484997,1658.9913,7.1621313
1354.5113855663851,1354.5113855663851,1645.6534,7.1476765
1354.512774483805,1354.512774483805,1660.1781,7.1536765
1354.5141634016907,1354.5141634016907,1665.3712,7.156909
1354.5155523191095,1354.5155523191095,1658.4979,7.157541
1354.5169412369935,1354.5169412369935,1666.7944,7.1559224
1354.5183301544134,1354.5183301544134,1655.8177,7.1460853
1354.519719072299,1354.519719072299,1654.926,7.1491947
1354.5211079897174,1354.5211079897174,1653.1105,7.1446238
1354.522496907602,1354.522496907602,1649.7468,7.1496367
1354.5238858254877,1354.5238858254877,1664.3987,7.159317
1354.5252747429074,1354.5252747429074,1657.2124,7.1531296
1354.5266636603271,1354.5266636603271,1652.4116,7.148735
1354.5280525782111,1354.5280525782111,1644.7303,7.13881
1354.5294414956304,1354.5294414956304,1659.1033,7.1643033
1354.5308304135158,1354.5308304135158,1652.1772,7.145774
1354.5322193309346,1354.5322193309346,1644.1362,7.1315007
1354.5336082488195,1354.5336082488195,1646.5874,7.146182
1354.5349971662388,1354.5349971662388,1660.5171,7.1586776
1354.5363860841242,1354.5363860841242,1644.6641,7.1474366
1354.5377750015439,1354.5377750015439,1651.3611,7.1485443
1354.5391639189631,1354.5391639189631,1665.8434,7.1616106
1354.5405528368476,1354.5405528368476,1642.8838,7.141132
1354.5419417542669,1354.5419417542669,1654.6274,7.1490207
1354.543330671686,1354.543330671686,1652.4214,7.15018
1354.5447195895715,1354.5447195895715,1644.3392,7.140099
1354.5461085069912,1354.5461085069912,1650.8657,7.148028
1354.54749742441,1354.54749742441,1646.026,7.1514244
1354.548886342295,1354.548886342295,1644.484,7.1399612
1354.5502752597142,1354.5502752597142,1645.7777,7.1453075
1354.551664177134,1354.551664177134,1646.877,7.1402354
1354.5530530945528,1354.5530530945528,1634.8447,7.133362
1354.554442012437,1354.554442012437,1650.6888,7.1543474
1354.555830929857,1354.555830929857,1647.3835,7.148981
1354.5572198472767,1354.5572198472767,1646.8674,7.145834
1354.5586087646964,1354.5586087646964,1647.6758,7.142561
1354.5599976825813,1354.5599976825813,1650.1302,7.145009
1354.5613865999997,1354.5613865999997,1652.5121,7.1441555
1354.5627755174194,1354.5627755174194,1650.3209,7.1502523
1354.564164434839,1354.564164434839,1657.496,7.155916
1354.5655533522574,1354.5655533522574,1650.0388,7.149452
1354.5669422696767,1354.5669422696767,1652.0001,7.1512747
1354.5683311870964,1354.5683311870964,1648.4573,7.137941
1354.5697201049818,1354.5697201049818,1654.3381,7.14816
1354.5711090224015,1354.5711090224015,1657.8018,7.151259
1354.5724979398199,1354.5724979398199,1651.2858,7.1472173
1354.5738868572391,1354.5738868572391,1658.3047,7.155005
1354.5752757746588,1354.5752757746588,1655.9807,7.1486664
1354.576664692078,1354.576664692078,1647.1254,7.1415524
1354.578053609497,1354.578053609497,1656.6823,7.157205
1354.5794425269162,1354.5794425269162,1653.1251,7.1474514
1354.580831444336,1354.580831444336,1648.6376,7.145995
1354.5822203617556,1354.5822203617556,1643.679,7.141226
1354.5836092791749,1354.5836092791749,1644.9972,7.143434
1354.584998196594,1354.584998196594,1651.2986,7.1438184
1354.586387114013,1354.586387114013,1655.5024,7.1486716
1354.5877760314322,1354.5877760314322,1650.5269,7.1516404
1354.589164948852,1354.589164948852,1656.3412,7.154806
1354.5905538662716,1354.5905538662716,1661.0845,7.162157
1354.591942783691,1354.591942783691,1662.7141,7.1580243
1354.5933317011097,1354.5933317011097,1666.2992,7.157525
1354.594720618529,1354.594720618529,1650.9382,7.147981
1354.5961095359487,1354.5961095359487,1650.0967,7.1484323
1354.597498453368,1354.597498453368,1656.2025,7.1515346
1354.5988873707863,1354.5988873707863,1647.5392,7.143741
1354.6002762877404,1354.6002762877404,1638.3833,7.1318936
