time,time,flux,flux_err
1517.3649774937792,1517.3649774937792,1.0008564871468988,0.0022789268125966477
1517.3744684262463,1517.3744684262463,1.0001175229244843,0.002031350304199684
1517.3814130114324,1517.3814130114324,1.0009706766423379,0.0019988404456251422
1517.3883575969917,1517.3883575969917,0.9990444010817889,0.0019652686423049038
1517.3955799663581,1517.3955799663581,0.9999351753341355,0.0019341394838958696
1517.4036356864501,1517.4036356864501,1.0017369801018594,0.0019010697028422371
1517.4105802730799,1517.4105802730799,1.001870102595568,0.0018750438390839285
1517.4175248600359,1517.4175248600359,1.0022206818149555,0.0018514785003925667
1517.4244694473173,1517.4244694473173,1.0005720614147566,0.0018290857115536823
1517.4314140349256,1517.4314140349256,0.9973110123736528,0.001808607988355998
1517.4383586228123,1517.4383586228123,1.0003849099044688,0.00179005632956137
1517.4453032110255,1517.4453032110255,0.9968102724580795,0.0017721605641966953
1517.4522477995645,1517.4522477995645,1.0016153729142356,0.0017565185127896995
1517.4591923883365,1517.4591923883365,0.999936073346183,0.0017415679876911668
1517.4661369774342,1517.4661369774342,0.9995770223681442,0.001727699225510015
1517.4730815667651,1517.4730815667651,0.9981569727062528,0.0017151966446962048
1517.4800261563748,1517.4800261563748,1.0006961474331908,0.0017028475035318394
1517.4869707463113,1517.4869707463113,1.0009343868043166,0.0016911962927917443
1517.49391533648,1517.49391533648,1.0021990267627436,0.0016785637886196723
1517.5008599267883,1517.5008599267883,0.999230372748489,0.0016677970660740969
1517.5078045175164,1517.5078045175164,1.002071677740719,0.0016562434728124929
1517.5147491083837,1517.5147491083837,1.0011349097163766,0.0016462053887158323
1517.5216936995303,1517.5216936995303,0.9992071231461276,0.001636477788394923
1517.5286382909098,1517.5286382909098,1.0009003195932153,0.0016274814747733088
1517.5355828824759,1517.5355828824759,1.0011417521087251,0.001618573507773621
1517.5425274743207,1517.5425274743207,0.9977108535679257,0.001609687346901531
1517.5494720663526,1517.5494720663526,0.9987322463890284,0.0016016659974692287
1517.5564166585705,1517.5564166585705,1.001357959808557,0.0015945463924498793
1517.5633612510676,1517.5633612510676,1.00173430864697,0.001587275083920841
1517.5703058437975,1517.5703058437975,1.000961648927109,0.0015805237573330295
1517.577250436667,1517.577250436667,0.9974076665090644,0.0015737858492855263
1517.5841950296303,1517.5841950296303,0.9999050822685616,0.0015668532075470692
1517.5911396228723,1517.5911396228723,1.0000503855821667,0.0015617533220148396
1517.5980842163008,1517.5980842163008,0.9986942139591621,0.0015556073870414172
1517.6050288099154,1517.6050288099154,1.0024674395375508,0.001549709714430622
1517.611973403763,1517.611973403763,1.000437602253878,0.0015446188816275195
1517.6189179976573,1517.6189179976573,0.998259696994684,0.001539383732146865
1517.6258625918776,1517.6258625918776,0.9973118859141679,0.001535194023247502
1517.6328071861903,1517.6328071861903,1.0038333839155393,0.0015311486376642608
1517.6397517806436,1517.6397517806436,0.9999245052722208,0.0015256012237529102
1517.6466963752828,1517.6466963752828,1.0013239572006338,0.0015215070905688116
1517.6536409700152,1517.6536409700152,0.99837364402829,0.0015174883237877683
1517.6605855650273,1517.6605855650273,1.001267292849383,0.001513615755466394
1517.6675301600385,1517.6675301600385,0.9977937335177358,0.0015099668197677792
1517.6744747552834,1517.6744747552834,1.0006087201544875,0.0015050688185785396
1517.681419350714,1517.681419350714,1.001515479199869,0.0015000580551539151
1517.6883639461917,1517.6883639461917,0.9980930093698965,0.0014957964087578004
1517.6953085418552,1517.6953085418552,0.9991556810611157,0.0014916955697014875
1517.7022531376588,1517.7022531376588,0.9998640280909292,0.0014866784808779843
1517.709197733555,1517.709197733555,1.0002298096004778,0.0014818040094727067
1517.716142329591,1517.716142329591,1.0006422292577608,0.0014771685141913044
1517.7230869258135,1517.7230869258135,0.9996574707485412,0.0014732461714432156
1517.7300315219431,1517.7300315219431,1.0025151427886299,0.001469266492811354
1517.7369761184916,1517.7369761184916,0.9998529774155474,0.0014643855534196308
1517.7439207149469,1517.7439207149469,1.0000516194355462,0.0014602234976732165
1517.7508653115883,1517.7508653115883,0.9974014213069481,0.0014557436829580916
1517.757809908323,1517.757809908323,1.0018692031259453,0.0014528710070645522
1517.7647545051975,1517.7647545051975,0.998839419567164,0.0014487828245076145
1517.771699102165,1517.771699102165,1.0009531134890217,0.0014462057286862022
1517.7786436991792,1517.7786436991792,0.9976366921429808,0.0014412063667318857
1517.7855882962863,1517.7855882962863,1.0010249858949547,0.0014380052949417574
1517.792532893533,1517.792532893533,0.9995867367080431,0.0014337656105311886
1517.7994774909198,1517.7994774909198,1.0014571374530161,0.0014315405254635395
1517.8064220883064,1517.8064220883064,0.9996287337686068,0.0014271824321336946
1517.8133666857861,1517.8133666857861,0.9995328403745329,0.0014244616080825588
1517.8203112834988,1517.8203112834988,1.0008525810499547,0.001422119760541389
1517.8272558811648,1517.8272558811648,1.0017678162237202,0.0014191986192053816
1517.834200478924,1517.834200478924,0.9996823997480613,0.0014161971913035963
1517.8411450767762,1517.8411450767762,0.9995380133926712,0.0014137106003679627
1517.8480896747212,1517.8480896747212,0.9990620064395053,0.0014117981388848404
1517.8550342727137,1517.8550342727137,0.9998053440521721,0.0014095267299821205
1517.8619788707988,1517.8619788707988,0.9994237753087095,0.0014086025797309736
1517.8689234689768,1517.8689234689768,0.999182965629343,0.0014060868609087715
1517.8758680672022,1517.8758680672022,1.0008548284760472,0.0014038419558186886
1517.8828126655194,1517.8828126655194,1.0008999300448127,0.001402194577229336
1517.8897572638375,1517.8897572638375,1.0006429005694082,0.001401233207336046
1517.8967018622957,1517.8967018622957,1.0000518015783868,0.0013990694447736578
1517.9036464607993,1517.9036464607993,1.000865717538606,0.001397184968018939
1517.9105910593037,1517.9105910593037,0.9956307093934955,0.0013943500145188012
1517.9175356579476,1517.9175356579476,1.000156916173097,0.0013934604797205994
1517.9244802566377,1517.9244802566377,1.0007662077649568,0.001392638304608451
1517.9314248553283,1517.9314248553283,1.0018028154214695,0.0013917817547681017
1517.9383694541586,1517.9383694541586,0.9994439153465086,0.0013907242832553197
1517.946702972727,1517.946702972727,0.9998695966483746,0.0013875547672600702
1517.95364757165,1517.95364757165,0.9998254560506095,0.0013874880590029747
1517.9605921706202,1517.9605921706202,1.0003489288743692,0.0013849557490840756
1517.9675367695895,1517.9675367695895,1.0020948371837253,0.0013843006799378866
1517.9744813686532,1517.9744813686532,0.9993910894269054,0.0013831743150739778
1517.9814259677623,1517.9814259677623,0.9987027968229196,0.0013805160870561729
1517.988370566872,1517.988370566872,0.9994559243403955,0.0013803446289495527
1517.9953151660284,1517.9953151660284,1.0019318581767047,0.001380030039821388
1518.0022597652774,1518.0022597652774,0.9985980874270857,0.0013778088594923843
1518.0092043645734,1518.0092043645734,0.9998245018939216,0.0013766144776025853
1518.0161489638226,1518.0161489638226,0.9978954985354811,0.001376118785641795
1518.0230935631182,1518.0230935631182,1.0024221192733376,0.0013751045933192096
1518.0300381625075,1518.0300381625075,1.0024139752398002,0.0013744722274497832
1518.036982761943,1518.036982761943,0.9998205840176807,0.0013722363004507877
1518.0439273613315,1518.0439273613315,1.0010462447920356,0.0013712644995511458
1518.0508719608138,1518.0508719608138,1.0001178587580737,0.0013716058122715115
1518.057816560296,1518.057816560296,0.9987942013401522,0.0013683745900942047
1518.0647611598242,1518.0647611598242,0.9993310138139384,0.001369330109730139
1518.0717057594,1518.0717057594,1.000477246120052,0.0013672971928712732
1518.0786503590216,1518.0786503590216,0.9999638852011115,0.001368530668438355
1518.0855949585966,1518.0855949585966,0.9991091535921199,0.0013648608834294818
1518.0925395582185,1518.0925395582185,1.0019718633013805,0.0013651022394042785
1518.099484157887,1518.099484157887,1.000994015159359,0.00136401087500726
1518.1064287575548,1518.1064287575548,0.9990579264861281,0.0013628334590107644
1518.1133733573167,1518.1133733573167,0.9991168413797821,0.0013607988883127023
1518.1203179569384,1518.1203179569384,0.9998596729947774,0.0013604601112801166
1518.127262556793,1518.127262556793,0.9986951411877032,0.0013585489709389764
1518.1342071564618,1518.1342071564618,0.9990619891094308,0.00135696786899983
1518.1411517562694,1518.1411517562694,0.999968049774892,0.0013565722820526333
1518.148096356124,1518.148096356124,1.0009874307707989,0.0013554990536150603
1518.1550409559786,1518.1550409559786,1.0013218313872119,0.0013542232496905374
1518.1619855558333,1518.1619855558333,0.9991673945938981,0.0013528839915933671
1518.1689301556876,1518.1689301556876,1.00127900001062,0.001352735181004447
1518.1758747555427,1518.1758747555427,1.0017126333557564,0.0013506154063203332
1518.182819355397,1518.182819355397,0.9978100711178739,0.001349723736999673
1518.1897639552517,1518.1897639552517,1.0016114258195954,0.00134928685330061
1518.1967085551064,1518.1967085551064,1.0016657087656728,0.0013485102164717878
1518.2036531549606,1518.2036531549606,0.998063689835656,0.0013479529361844589
1518.2105977548156,1518.2105977548156,1.0003295542667903,0.0013474574325242617
1518.2175423548565,1518.2175423548565,1.000548640919626,0.0013471658339541306
1518.2244869547576,1518.2244869547576,0.9990315089058983,0.0013465294484384085
1518.2314315546125,1518.2314315546125,0.9995385327580977,0.0013460466661401507
1518.2383761546532,1518.2383761546532,0.9998708990642978,0.0013460163041773463
1518.2453207545543,1518.2453207545543,0.9994203180990354,0.001345004799447407
1518.2522653544556,1518.2522653544556,1.0010788742093242,0.0013447162875854228
1518.2592099544968,1518.2592099544968,1.0003099589304718,0.0013441002328012336
1518.2667101223392,1518.2667101223392,0.9995922386684232,0.001345597183355466
1518.2744880744092,1518.2744880744092,1.000469004302459,0.0013437097168809658
1518.2814326742637,1518.2814326742637,1.0004194164944593,0.0013436981795215933
1518.2883772743048,1518.2883772743048,1.0003395550323102,0.0013437238946252873
1518.295321874206,1518.295321874206,0.9992353661109347,0.0013435180924738282
1518.3022664742002,1518.3022664742002,1.0012055181510784,0.0013427616830230895
1518.3094888581422,1518.3094888581422,0.9986430561139381,0.0013414399729427828
1518.3175445940665,1518.3175445940665,0.9990324421922967,0.0013427080514741663
1518.3244891940608,1518.3244891940608,0.9991225323258643,0.0013410294828865136
1518.331433793916,1518.331433793916,1.0013057395799083,0.0013414462567141769
1518.3383783939564,1518.3383783939564,1.0021125634130388,0.001342339392979975
1518.3453229938575,1518.3453229938575,1.0007222313989124,0.001340746781614508
1518.3522675937124,1518.3522675937124,0.9990596264824128,0.0013400775685303774
1518.3592121938,1518.3592121938,0.9987141392213384,0.0013406512448948288
1518.3661567936542,1518.3661567936542,1.0000086859785422,0.0013398251784449697
1518.373101393509,1518.373101393509,1.0009283624439234,0.0013402989849862729
1518.3800459933632,1518.3800459933632,0.9991023549200037,0.0013397442524024274
1518.3869905934046,1518.3869905934046,0.9987125559570774,0.0013386328164918036
1518.3939351933054,1518.3939351933054,1.0000503784526376,0.001338847323013047
1518.4008797931597,1518.4008797931597,0.9981192326518016,0.0013371140339771118
1518.4078243930148,1518.4078243930148,1.0013537023559764,0.0013372688846075868
1518.4158801288463,1518.4158801288463,1.000149190661162,0.001336253643769677
1518.423102512695,1518.423102512695,0.9997480242521846,0.0013351847716168207
1518.4300471125498,1518.4300471125498,1.000710101267094,0.0013358695829552738
1518.4369917124045,1518.4369917124045,1.0009036052877747,0.0013340098591004658
1518.443936312026,1518.443936312026,0.9985184533642733,0.0013343333320176552
1518.4508809118806,1518.4508809118806,1.0008506633390213,0.0013326778743585912
1518.4581032957294,1518.4581032957294,1.0011063628084362,0.001333108283467008
1518.4661590313747,1518.4661590313747,0.9991125262083882,0.0013314035188291926
1518.4731036311823,1518.4731036311823,0.9993980033688702,0.0013309289669284057
1518.4800482308974,1518.4800482308974,0.9991192495614687,0.0013307106113496056
1518.486992830659,1518.486992830659,0.9985958452333064,0.0013300466211043967
1518.4939374303274,1518.4939374303274,1.0011316768685714,0.0013298391841474314
1518.5008820300422,1518.5008820300422,1.0016359260121865,0.0013297211080735107
1518.5078266297107,1518.5078266297107,1.0002080230601034,0.0013303285567549314
1518.5147712293788,1518.5147712293788,0.9993221914630042,0.0013294050153887468
1518.5217158290004,1518.5217158290004,0.9995990589993269,0.0013304477325952672
1518.5286604286225,1518.5286604286225,1.001941486939902,0.0013303439444795114
1518.5356050281973,1518.5356050281973,0.9993738819057378,0.0013305201751799957
1518.5425496277728,1518.5425496277728,0.9990745710348948,0.0013296144654354912
1518.5494942273483,1518.5494942273483,0.998765719417516,0.0013301227613857635
1518.556438826923,1518.556438826923,1.0003940588118327,0.0013310116803055935
1518.5633834264054,1518.5633834264054,1.0016127358216356,0.0013313295174077354
1518.5703280259804,1518.5703280259804,1.000080767948314,0.0013306306858656333
1518.5772726254158,1518.5772726254158,0.9995621317539554,0.0013312271042367878
1518.584217224898,1518.584217224898,0.9985532545477988,0.0013306525850451708
1518.5911618243338,1518.5911618243338,0.9995132762424465,0.0013315880708851633
1518.598106423769,1518.598106423769,1.0011167352680865,0.0013305988450266636
1518.6050510231585,1518.6050510231585,1.0008758940120304,0.0013303599123576702
1518.6119956225002,1518.6119956225002,1.000437362900336,0.001330439242356182
1518.6189402218893,1518.6189402218893,0.9980493641803723,0.0013301106420118712
1518.6258848211849,1518.6258848211849,1.0001931818758572,0.0013305351756805832
1518.6328294204811,1518.6328294204811,1.0012088249147004,0.0013307069329160574
1518.6397740198233,1518.6397740198233,1.0014324164497026,0.0013299267972715768
1518.6467186189795,1518.6467186189795,0.9984269734569787,0.0013294002920055147
1518.6536632182754,1518.6536632182754,0.9989649917345325,0.0013308194812961605
1518.6606078174777,1518.6606078174777,0.9995824845338376,0.0013306753286583986
1518.6675524166808,1518.6675524166808,0.999908549025216,0.0013300976973520948
1518.6744970157902,1518.6744970157902,1.001725031685125,0.0013318631864694536
1518.6814416149464,1518.6814416149464,1.0001980253848826,0.001330585938777493
1518.688386214009,1518.688386214009,1.000142320956694,0.001330731667904137
1518.6953308131185,1518.6953308131185,1.0009063888227643,0.0013306500673254513
1518.702275412182,1518.702275412182,0.9991727688881875,0.0013307205067153976
1518.7092200111979,1518.7092200111979,0.998531533486025,0.001330179056849172
1518.7161646102145,1518.7161646102145,0.9996092972962126,0.0013304980910634984
1518.7231092091847,1518.7231092091847,0.9992819044206325,0.0013297123210093112
1518.7300538081076,1518.7300538081076,1.0006205919728148,0.0013325926708776584
1518.7369984070313,1518.7369984070313,1.000777983151648,0.0013305884463855277
1518.7439430059544,1518.7439430059544,1.0005729240377745,0.0013307663061425878
1518.7508876047843,1518.7508876047843,1.000146413129637,0.001329901745495955
1518.757832203568,1518.757832203568,0.9997614149066159,0.0013308184969861175
1518.7647768024449,1518.7647768024449,0.9988000047296894,0.0013302048261208568
1518.7717214011814,1518.7717214011814,1.0007849676472973,0.001330389771473078
1518.7786659998724,1518.7786659998724,1.0017461002101749,0.0013303752000189948
1518.7856105985625,1518.7856105985625,0.9987238257304508,0.001329551753811494
1518.7925551972528,1518.7925551972528,0.9997349127459122,0.0013299569784776632
1518.7994997959436,1518.7994997959436,1.0000279208330602,0.001331399380382974
1518.8064443946337,1518.8064443946337,0.9997272801998504,0.0013324870902173046
1518.8133889931382,1518.8133889931382,1.0002268752158703,0.0013305671175999397
1518.820333591782,1518.820333591782,0.9983440116327538,0.0013291163867936717
1518.8272781902397,1518.8272781902397,1.0021743504781522,0.0013309686470489863
1518.8342227887438,1518.8342227887438,1.0031839425951488,0.0013315916921056944
1518.8411673872015,1518.8411673872015,0.998786624312752,0.001330401393250322
1518.848111985659,1518.848111985659,0.998839669476715,0.001329953657251337
1518.8550565840237,1518.8550565840237,0.999805874639757,0.001330419322019188
1518.8620011824344,1518.8620011824344,1.001293987068784,0.0013308804344991036
1518.8689457807523,1518.8689457807523,0.9994361062234342,0.0013301494160622583
1518.8758903790701,1518.8758903790701,1.000018998072267,0.0013302210686938903
1518.8828349773416,1518.8828349773416,0.9992861213722627,0.0013302459162589492
1518.8897795755668,1518.8897795755668,0.9986286166312823,0.0013299019445304494
1518.8967241737444,1518.8967241737444,0.9994524828161382,0.001328142457686038
1518.903668771923,1518.903668771923,1.001262653241111,0.0013290324808350258
1518.9106133700545,1518.9106133700545,1.0010206817651892,0.0013280068294712806
1518.9175579681396,1518.9175579681396,0.9994383208995472,0.0013274561154071065
1518.9245025662246,1518.9245025662246,1.001310586539962,0.001328069536753214
1518.9314471642629,1518.9314471642629,0.9995344513189968,0.0013260942188591163
1518.9383917622554,1518.9383917622554,1.000321535829201,0.0013273314631489222
1518.9453363602001,1518.9453363602001,0.9996939641065898,0.0013272539905448346
1518.952280958146,1518.952280958146,0.9995444748368489,0.001326240951968877
1518.959225556045,1518.959225556045,0.9999999112001454,0.001326184905592008
1518.966170153897,1518.966170153897,0.9985241249062327,0.0013280933214866193
1518.9731147517025,1518.9731147517025,1.0015988059362346,0.0013277405263495596
1518.9800593495086,1518.9800593495086,1.002261968628853,0.0013277740984039596
1518.9870039472212,1518.9870039472212,1.0006064909460304,0.0013285109641811702
1518.9939485449333,1518.9939485449333,0.9996444193446541,0.0013291416900553243
1519.0008931425996,1519.0008931425996,0.9992331243226937,0.0013299084533627415
1519.007837740312,1519.007837740312,1.0008890107873736,0.0013294428900937495
1519.014782337885,1519.014782337885,1.0002321237142298,0.0013297384442619207
1519.0217269354112,1519.0217269354112,1.0008933519907262,0.0013306804736464752
1519.0286715329376,1519.0286715329376,0.9983297516527678,0.0013304154243314328
1519.035616130464,1519.035616130464,0.999633269754557,0.001330903103761005
1519.0425607279435,1519.0425607279435,0.9995346177019455,0.001331683078188346
1519.0495053252835,1519.0495053252835,0.9992348675140288,0.0013318343308613078
1519.0564499227166,1519.0564499227166,1.0017616079409628,0.0013317602474833567
1519.063394520057,1519.063394520057,1.0001832571932017,0.0013317786632910966
1519.07033911735,1519.07033911735,0.9987806872307805,0.001332623646437752
1519.0772837145971,1519.0772837145971,1.001424016010489,0.0013321513353319325
1519.084228311844,1519.084228311844,1.0005049058161688,0.001332715066732488
1519.091172909044,1519.091172909044,1.0000518034409824,0.0013311552048169658
1519.0981175061977,1519.0981175061977,0.9977730838648462,0.0013317424957010415
1519.105062103305,1519.105062103305,1.000627211985281,0.001331508279005938
1519.1120067003658,1519.1120067003658,0.9979697491886362,0.0013306448274012718
1519.1189512973797,1519.1189512973797,1.000795488349314,0.00133125679527154
1519.1258958943938,1519.1258958943938,0.9987469319368678,0.0013312040670571419
1519.1328404913615,1519.1328404913615,1.0010404310622185,0.0013316173612056424
1519.1397850882822,1519.1397850882822,1.000119429245401,0.00133149109541618
