time,time,flux,flux_err
1468.2781979027243,1468.2781979027243,1.0258040781968156,0.021609200182492273
1468.285142411733,1468.285142411733,0.9912008644517301,0.0215708642278176
1468.292086920788,1468.292086920788,0.9986650790301944,0.02156298560446676
1468.299031429704,1468.299031429704,0.9940825358765334,0.021574328885844467
1468.3059759385735,1468.3059759385735,0.969905457691669,0.021559632489472513
1468.312920447303,1468.312920447303,0.9706118123514033,0.021541986028094397
1468.319864955939,1468.319864955939,1.0109613889823348,0.021563713483657897
1468.3268094644823,1468.3268094644823,0.9914085761478011,0.02164228582382906
1468.3337539730253,1468.3337539730253,0.9847407159533681,0.021581300782463547
1468.3406984814756,1468.3406984814756,1.014187866082398,0.021578079430337075
1468.3476429897858,1468.3476429897858,1.0235707219040469,0.021609949410010175
1468.354587498003,1468.354587498003,1.0083716072760387,0.021562261185332644
1468.3615320062204,1468.3615320062204,1.0249568785833199,0.021593847497802493
1468.3684765142978,1468.3684765142978,1.004786113395156,0.021632613153470252
1468.375421022329,1468.375421022329,1.0179388051572231,0.021574449733710047
1468.3901433789704,1468.3901433789704,0.9972507701360781,0.021556708215413375
1468.3990323488517,1468.3990323488517,0.984471447715773,0.021524270957248327
1468.405976856464,1468.405976856464,1.016261743661246,0.02159865233056841
1468.4129213640288,1468.4129213640288,1.0038970093833985,0.02151024856213743
1468.4198658715009,1468.4198658715009,0.9876043486817616,0.0214789744616058
1468.4268103789268,1468.4268103789268,1.0224002324679353,0.021527990674361487
1468.4337548861658,1468.4337548861658,0.9791544662582735,0.021496954036291257
1468.4406993933587,1468.4406993933587,1.0242290736044963,0.021518969210408884
1468.4476439005514,1468.4476439005514,1.0057767803974547,0.021553533694086618
1468.4545884075583,1468.4545884075583,0.9714197139464333,0.02151339666308332
1468.461532914518,1468.461532914518,1.0100108777876033,0.02150874072088916
1468.468477421478,1468.468477421478,0.9811181943872324,0.021524494204698822
1468.4754219282518,1468.4754219282518,0.9913103032932888,0.021533137644932837
1468.4823664349783,1468.4823664349783,1.0283223144500613,0.021499006581314144
1468.489310941566,1468.489310941566,0.9911259554671098,0.021540965423562992
1468.496255448154,1468.496255448154,1.0077647297986867,0.021589649979551505
1468.503199954555,1468.503199954555,0.995666881855699,0.021507565961108657
1468.5101444609559,1468.5101444609559,1.0054159614406277,0.021553657775232597
1468.517088967264,1468.517088967264,0.9928978316188722,0.02151246635393117
1468.5240334735254,1468.5240334735254,1.0081830872948392,0.02150728205550909
1468.530977979647,1468.530977979647,0.9740095212399952,0.021552543511147146
1468.5379224856295,1468.5379224856295,0.9971281708566672,0.021620585804476407
1468.5448669916577,1468.5448669916577,1.0031879487334467,0.021720090522640075
1468.5518114975464,1468.5518114975464,1.002046396631522,0.02169070090322181
1468.5587560033425,1468.5587560033425,1.024049679291156,0.021685830678767597
1468.565700509092,1468.565700509092,0.9964823959873073,0.021788822031312702
1468.572645014701,1468.572645014701,0.9914509498481021,0.02178303104759336
1468.5795895203107,1468.5795895203107,0.9772173244511062,0.021766715762837598
1468.5865340256876,1468.5865340256876,0.9949884613641157,0.02181800870289799
1468.5934785311106,1468.5934785311106,1.0100716340897686,0.02185245202547819
1468.6004230363947,1468.6004230363947,0.9869142723788518,0.02175659319623405
1468.607367541678,1468.607367541678,1.0280291646540163,0.021756633795221147
1468.614312046775,1468.614312046775,0.9958402116509275,0.021746105711506626
1468.6212565518258,1468.6212565518258,1.012070728703811,0.021806330984562878
1468.6282010568304,1468.6282010568304,0.980678714195735,0.02164931274894067
1468.6351455616948,1468.6351455616948,0.9781570099849901,0.02164694940177354
1468.6420900665123,1468.6420900665123,1.0101423136078493,0.021640413504071858
1468.6490345712375,1468.6490345712375,1.014778179045929,0.021656461728123043
1468.6559790759154,1468.6559790759154,1.0057813168016831,0.021678595964287388
1468.6629235804076,1468.6629235804076,1.0014972390334382,0.02180355449559957
1468.669868084853,1468.669868084853,1.0059400805185483,0.02178247368718612
1468.6768125892982,1468.6768125892982,0.9894286033965585,0.021799154935322983
1468.6837570936502,1468.6837570936502,1.0103437603919108,0.02176581698705989
1468.690701597863,1468.690701597863,1.0024368548518936,0.021717545816123902
1468.697646102029,1468.697646102029,0.9746680123106737,0.021723131270867006
1468.7045906061016,1468.7045906061016,0.993541982692326,0.021778943668907917
1468.7115351100815,1468.7115351100815,0.992563650097788,0.02178717923415784
1468.7184796139682,1468.7184796139682,1.0007765438204657,0.021898715405927638
1468.7254241178082,1468.7254241178082,1.0107710216354946,0.021850447301975096
1468.7323686215086,1468.7323686215086,1.0216250137058212,0.021806055281334377
1468.7393131252088,1468.7393131252088,1.0052242763958306,0.02183462070574644
1468.7462576287694,1468.7462576287694,1.016511869384598,0.02182475669135047
1468.7532021322834,1468.7532021322834,0.9940128836507414,0.021817784045935158
1468.7601466356577,1468.7601466356577,0.9740577730781327,0.021793109715783902
1468.7670911389391,1468.7670911389391,0.9959735585809473,0.021769755115848485
1468.7740356422203,1468.7740356422203,0.969934811856794,0.021737710834034262
1468.7809801454082,1468.7809801454082,1.0058381076356704,0.021728151885388264
1468.7879246485033,1468.7879246485033,1.018749738026059,0.021753809185195056
1468.7948691515053,1468.7948691515053,1.0045994068123176,0.021783788514149346
1468.8018136544142,1468.8018136544142,1.002155987648659,0.021765713039699337
1468.8087581572292,1468.8087581572292,1.001454137310904,0.02174810172862873
1468.815702659998,1468.815702659998,1.0193100127439352,0.02173267529942511
1468.8226471626745,1468.8226471626745,0.9917173857047834,0.021649074763878944
1468.8295916652105,1468.8295916652105,0.9969712724877468,0.021648879563273028
1468.8365361677002,1468.8365361677002,0.9928877453846644,0.021668756125081456
1468.843480670143,1468.843480670143,0.9940184048003037,0.02181090091509668
1468.850425172493,1468.850425172493,0.9945162610612895,0.021752815489538255
1468.8573696747965,1468.8573696747965,1.0023594378469811,0.021849921397657426
1468.86431417696,1468.86431417696,1.0146640109104954,0.02182159604048132
1468.871258679077,1468.871258679077,0.9999728582238637,0.02185703387743771
1468.8782031810076,1468.8782031810076,0.9868325457069259,0.021866315814837122
1468.885147682985,1468.885147682985,1.0164300155961565,0.02187679492578193
1468.892092184823,1468.892092184823,1.0057626958703767,0.021853490974433176
1468.899036686521,1468.899036686521,0.9932766967648889,0.021881087485917848
1468.9059811882655,1468.9059811882655,0.9963792586377889,0.02191662227293325
1468.9129256898702,1468.9129256898702,0.9926460601361757,0.021905514223740936
1468.919870191382,1468.919870191382,0.9946455895507038,0.02191442385978641
1468.9268146928007,1468.9268146928007,0.9943411666502154,0.02198760430060689
1468.9337591941726,1468.9337591941726,1.0127641414938766,0.021944235338495717
1468.9407036954515,1468.9407036954515,1.0001680181276804,0.021866650787608972
1468.947648196637,1468.947648196637,1.0031821621630612,0.02186121597732313
1468.9545926977298,1468.9545926977298,0.9938065648235332,0.021822178167447227
1468.9626483188354,1468.9626483188354,1.0024360478753442,0.021882058889650214
1468.9698705998267,1468.9698705998267,0.9882153017587276,0.021752434501442163
1468.976815100779,1468.976815100779,1.0035278857998384,0.0217487023515171
1468.9837596014993,1468.9837596014993,1.003917400644589,0.021707830185476763
1468.990704102173,1468.990704102173,0.993650087203768,0.02173098103116451
1468.9976486027997,1468.9976486027997,1.0289418345175148,0.021873832795926397
1469.0045931033335,1469.0045931033335,1.0021052988786585,0.02188465700031924
1469.0115376037274,1469.0115376037274,0.9927890628715549,0.021863481057638943
1469.0184821041216,1469.0184821041216,0.9906344505975475,0.02188529035761661
1469.0254266043762,1469.0254266043762,1.0140777116781943,0.021909192616714337
1469.0323711045844,1469.0323711045844,0.9899214122091429,0.021955965835282986
1469.0393156046525,1469.0393156046525,0.9917317420012891,0.021908677109906197
1469.0462601047204,1469.0462601047204,0.9922584956785598,0.02199901168257235
1469.0532046046956,1469.0532046046956,0.9840264544843699,0.021992652595653913
1469.0601491045309,1469.0601491045309,0.9998574445330168,0.021922050668602398
1469.0670936043196,1469.0670936043196,1.040890804581103,0.021910921011393674
1469.0740381040619,1469.0740381040619,0.9892528479955406,0.021909242132777045
1469.0809826036646,1469.0809826036646,1.0169234688850015,0.02177777113187935
1469.0879271031738,1469.0879271031738,0.974923409431986,0.021715211535276918
1469.0948716026364,1469.0948716026364,0.990845360046209,0.021656105946280896
1469.1018161020065,1469.1018161020065,0.9952408485433338,0.021595285062010333
1469.1087606013293,1469.1087606013293,1.0010055382264138,0.021545778085014188
1469.1157051005594,1469.1157051005594,1.0205566009623515,0.021643257122050688
1469.1226495996495,1469.1226495996495,0.9980652235957287,0.021725864193702298
1469.1295940986934,1469.1295940986934,0.9992318437294638,0.021784063545159042
1469.1365385976903,1469.1365385976903,1.0027841375028204,0.021844141961550288
1469.1434830965482,1469.1434830965482,1.011289331631921,0.021902243360859
1469.150427595359,1469.150427595359,1.0063563878050836,0.021966583396360137
1469.157372094123,1469.157372094123,0.9942531592423721,0.022049150089433832
1469.1643165927476,1469.1643165927476,0.9865565190042582,0.02213243710295188
1469.1712610913257,1469.1712610913257,0.9799917489117773,0.022211739272523665
1469.1782055897645,1469.1782055897645,0.9785151980645628,0.022254184758461793
1469.1851500882026,1469.1851500882026,0.9888329273661292,0.022277290495259262
1469.1920945864547,1469.1920945864547,1.0253166605999549,0.022280190470304464
1469.1990390847063,1469.1990390847063,1.00187803895272,0.022185624611770868
1469.205983582912,1469.205983582912,0.9941122151552749,0.02213882696103317
1469.2129280809781,1469.2129280809781,1.0010316327406579,0.022128053535983253
1469.2198725789508,1469.2198725789508,1.0165515983212026,0.02200343613896838
1469.2268170768766,1469.2268170768766,1.015299533425005,0.021944530173523876
1469.23376157471,1469.23376157471,0.9990096804366431,0.021845945764146665
1469.24070607245,1469.24070607245,1.005641337509814,0.021800506087954294
1469.2476505701434,1469.2476505701434,0.999490045734826,0.02182067513879315
1469.25459506765,1469.25459506765,1.0166634604621376,0.021837424433057338
1469.2615395651103,1469.2615395651103,0.9748588361954417,0.02185867963800138
1469.268484062571,1469.268484062571,1.0026506084707862,0.02177753997629446
1469.275428559985,1469.275428559985,0.9985197137702236,0.0218770724952521
1469.2823730572125,1469.2823730572125,0.9985417132853144,0.021845650089956883
1469.2893175543938,1469.2893175543938,0.9954522478812532,0.02186995431653581
1469.2962620514816,1469.2962620514816,1.00773487623789,0.02185677014181276
1469.3032065485227,1469.3032065485227,0.9948143749825364,0.021794047927623565
1469.3101510454246,1469.3101510454246,0.9890778493474395,0.021835473648219257
1469.3170955422797,1469.3170955422797,1.0032517319385879,0.02178297984892875
1469.3240400390882,1469.3240400390882,1.0305421377962378,0.021824996441542645
1469.330984535757,1469.330984535757,0.9819696560298024,0.021705414346456172
1469.337929032379,1469.337929032379,0.9910765650632696,0.021714558316312187
1469.3448735289085,1469.3448735289085,1.0086288325468398,0.021689185593227682
1469.3518180253445,1469.3518180253445,0.9925352132075395,0.021642321326054058
1469.358762521641,1469.358762521641,1.0112770827359832,0.021687618741415626
1469.3657070179374,1469.3657070179374,0.9846173616193663,0.02162349695025307
1469.3726515142332,1469.3726515142332,0.9934877146029985,0.021661362777349626
1469.379596010344,1469.379596010344,1.0144438385130488,0.021685940978758637
1469.386540506407,1469.386540506407,1.0065786850707954,0.021726252421495642
1469.3934850023309,1469.3934850023309,1.0089848359136366,0.021698065568970092
1469.4004294982083,1469.4004294982083,1.0017511892874573,0.02173390807322608
1469.4073739940384,1469.4073739940384,0.9951301938228324,0.0218201653191238
1469.4143184897296,1469.4143184897296,0.9998130063754502,0.021868194943856382
1469.4212629853741,1469.4212629853741,0.9994270849615077,0.021838872091244053
1469.4282074809719,1469.4282074809719,0.9844658567393998,0.02183923717679535
1469.4351519763838,1469.4351519763838,0.9920077011045031,0.02188306870382773
1469.442096471795,1469.442096471795,1.0072124400251976,0.02186755893757968
1469.4490409671134,1469.4490409671134,1.0232138775518145,0.021976344400468743
1469.4559854623387,1469.4559854623387,0.9697186990355172,0.021965594669738013
1469.4629299574708,1469.4629299574708,0.9723145718803948,0.021888316593184416
1469.469874452603,1469.469874452603,1.0118478610842723,0.0219166657485527
1469.476818947549,1469.476818947549,1.0069492212097073,0.021873144023469716
1469.4837634424946,1469.4837634424946,1.0215349840726171,0.02181133930420119
1469.4907079373013,1469.4907079373013,0.9978332415917164,0.021852026941413027
1469.4976524320605,1469.4976524320605,0.968892517461591,0.0217591803858633
1469.5045969266807,1469.5045969266807,1.009545388336682,0.02185252700065952
1469.5115414212542,1469.5115414212542,0.995722361561594,0.021792920407767678
1469.5184859157803,1469.5184859157803,1.008523718078418,0.021793538017455313
1469.5254304102143,1469.5254304102143,1.0050366459987223,0.021805252882052244
1469.532374904555,1469.532374904555,0.9940124024930974,0.02185504637773559
1469.5393193988025,1469.5393193988025,1.0050540475262275,0.021882877780720268
1469.5462638930035,1469.5462638930035,1.0215679351686304,0.021963305553759232
1469.5532083871108,1469.5532083871108,0.9869307346930711,0.0219512430506574
1469.560152881172,1469.560152881172,0.9851842249469177,0.02201909478428549
1469.5670973750937,1469.5670973750937,1.013478532627986,0.021957517165930453
1469.5740418688752,1469.5740418688752,0.9920385932798705,0.022042213626139128
1469.5809863627037,1469.5809863627037,0.9904435438690531,0.021953860241457422
1469.5879308563922,1469.5879308563922,0.9865135632119431,0.022018135600176836
1469.5948753499874,1469.5948753499874,1.0152222495535823,0.021976226828923286
1469.6018198435365,1469.6018198435365,0.992885048587034,0.022030356646732772
1469.608764337039,1469.608764337039,0.9945885110612126,0.02195937273192522
1469.615708830355,1469.615708830355,1.0175116304301421,0.021984313067974482
1469.622653323625,1469.622653323625,1.0161645026407227,0.021935737605673487
1469.6295978168478,1469.6295978168478,1.0178884839969613,0.022011677235697802
1469.6365423099774,1469.6365423099774,0.9998081762045029,0.0219826744849785
1469.6434868030142,1469.6434868030142,0.9732552416146968,0.021928007651646854
1469.6504312960042,1469.6504312960042,0.9777272980477788,0.021964334071158706
1469.6573757888082,1469.6573757888082,1.005781600078654,0.022005358421949374
1469.6643202816124,1469.6643202816124,1.0015925768475606,0.02196684740046248
1469.6712647744155,1469.6712647744155,1.0048231954945681,0.02194817465373628
1469.6782092670799,1469.6782092670799,0.9985805443777138,0.02194428963313995
1469.685153759651,1469.685153759651,0.9888288748118225,0.021914296214569216
1469.6920982521292,1469.6920982521292,1.0262396395398588,0.021845644773361268
1469.6990427445137,1469.6990427445137,0.9931776670377215,0.02183599545442503
1469.7059872368516,1469.7059872368516,1.010931928344452,0.021841610749176812
1469.712931729097,1469.712931729097,0.9818674608814048,0.021789812110237956
1469.7198762212488,1469.7198762212488,1.0003969753988222,0.0218015309617044
1469.726820713354,1469.726820713354,1.0119167301858645,0.02181635122481877
1469.73376520532,1469.73376520532,0.9969502815599519,0.021797782224610308
1469.7407096972388,1469.7407096972388,1.0100921814971846,0.021784938333561876
1469.7476541890649,1469.7476541890649,0.9783848105001496,0.021860531724960656
1469.7545986808443,1469.7545986808443,0.9911774954711079,0.021806034613878405
1469.761543172484,1469.761543172484,1.0038280811922493,0.02175895862042871
1469.7684876641238,1469.7684876641238,1.0090547473406102,0.0217427107577575
1469.775432155624,1469.775432155624,1.0021204188263704,0.021742791945530394
1469.782376647077,1469.782376647077,0.9986395148648454,0.02168787316528734
1469.7893211384376,1469.7893211384376,1.0094068662843398,0.021732291909894324
1469.7962656296581,1469.7962656296581,0.9786102667301826,0.02166388429957199
1469.803210120879,1469.803210120879,1.023482882799099,0.021679209008511915
1469.8101546120529,1469.8101546120529,0.9952610309674448,0.02171722827259693
1469.8170991030406,1469.8170991030406,1.0001273796335344,0.02157985051886417
1469.8240435939817,1469.8240435939817,0.9881786269111401,0.02170833731373807
1469.8309880848296,1469.8309880848296,1.0080021479581556,0.021699944334767452
1469.8379325756778,1469.8379325756778,0.9715543761632979,0.021691919085742306
1469.84487706634,1469.84487706634,1.0221516063472527,0.021727126996800482
1469.8518215570482,1469.8518215570482,0.9906812403738066,0.02176150736014388
1469.8587660475237,1469.8587660475237,0.989812746476417,0.02180967534386343
1469.8657105379993,1469.8657105379993,1.014287176894366,0.021822285885586806
1469.8726550284282,1469.8726550284282,1.004540711798717,0.021960325995735813
1469.879599518718,1469.879599518718,0.9857377380509356,0.021973277762180003
1469.8865440089137,1469.8865440089137,1.0108767928326334,0.021915624006189422
1469.8934884990633,1469.8934884990633,0.9851597542020721,0.02196734582107515
1469.9004329891195,1469.9004329891195,1.007664392108952,0.02199013939742398
1469.9073774791295,1469.9073774791295,0.9893222617047147,0.02191072197417334
1469.9143219690463,1469.9143219690463,0.9907597946824428,0.021858023017342538
1469.9212664588235,1469.9212664588235,1.0090400706153924,0.021770429829475194
1469.9282109486007,1469.9282109486007,0.9867354873012385,0.02180824632907005
1469.9351554382383,1469.9351554382383,0.9996379707186135,0.021807584108593295
1469.9420999278286,1469.9420999278286,1.0224535964093326,0.021710317673447273
1469.949044417373,1469.949044417373,1.0092123942808144,0.02169728872738549
1469.955988906731,1469.955988906731,1.0086850083318257,0.02168331617839061
1469.9629333960424,1469.9629333960424,0.9836168697744313,0.0215854272038593
1469.969877885354,1469.969877885354,0.9935639419348334,0.021603022515933677
1469.976822374572,1469.976822374572,1.0033357733660755,0.021654108142813648
1469.9837668636505,1469.9837668636505,0.9905693610973347,0.021729811288698518
1469.9907113526826,1469.9907113526826,0.9976569911486631,0.021762396380422926
1469.9976558415751,1469.9976558415751,1.0155588063036356,0.02179592507416816
1470.0046003304674,1470.0046003304674,1.0039683208487502,0.02180983667461685
1470.01154481922,1470.01154481922,1.0012276874933121,0.021816246801251625
1470.0184893079258,1470.0184893079258,1.014550288626911,0.021800757048765006
1470.025433796585,1470.025433796585,0.9744043630442153,0.021715727950086736
1470.032378285105,1470.032378285105,0.969101193876415,0.021625815675649446
1470.0393227735317,1470.0393227735317,0.9907697910669245,0.02155508132190797
1470.0462672619587,1470.0462672619587,1.0182014520240639,0.021614788841323354
1470.0532117502457,1470.0532117502457,1.0112743761927894,0.02155459560743462
1470.060156238486,1470.060156238486,1.004873570731128,0.021607062577120407
1470.0671007266333,1470.0671007266333,1.0093762411243428,0.021581072431649157
1470.074045214594,1470.074045214594,1.0137519680489295,0.02161510411049474
1470.0809897026015,1470.0809897026015,1.0026130316753883,0.02161899742755404
1470.087934190516,1470.087934190516,1.0091511577677843,0.021607711102545932
