time,time,flux,flux_err
1437.9993403507963,1437.9993403507963,1.000010738793964,0.00017893468358246874
1438.0076738774349,1438.0076738774349,1.000096672828761,0.00017882406987887827
1438.0153129437329,1438.0153129437329,0.9999643047734688,0.00016318518143352415
1438.0222575490866,1438.0222575490866,0.9997249854527362,0.00016308305472170862
1438.0292021548125,1438.0292021548125,1.0000970954503636,0.00016304237735010073
1438.0361467609114,1438.0361467609114,1.0001565053915646,0.0001630019534760445
1438.0430913666373,1438.0430913666373,0.9998190773346757,0.0001629563811770156
1438.0500359723633,1438.0500359723633,1.0000512157905674,0.00016290306712352345
1438.056980578462,1438.056980578462,0.9999564544250678,0.00016282627687140382
1438.063925184281,1438.063925184281,0.9999015706076355,0.00016279339895366817
1438.0708697904724,1438.0708697904724,1.0000152960578919,0.00016276465731064854
1438.0778143963848,1438.0778143963848,1.0003704073067008,0.00016273419210091869
1438.08475900239,1438.08475900239,1.000006004663294,0.00016261831836445636
1438.0917036085818,1438.0917036085818,0.9998018184640001,0.00016259788980593545
1438.0986482146807,1438.0986482146807,0.9999530515125052,0.00016257587392845636
1438.105592820872,1438.105592820872,1.0000456098313228,0.00016258755194677272
1438.1125374269707,1438.1125374269707,1.0000159158173685,0.00016253655378936201
1438.1194820331623,1438.1194820331623,0.9998957214334409,0.00016249172122793326
1438.126426639261,1438.126426639261,1.0005353169738354,0.0001625068875469948
1438.1333712454525,1438.1333712454525,0.9999785346918613,0.00016243259704789296
1438.1403158516443,1438.1403158516443,0.9996424588749658,0.00016240173847487663
1438.1472604577427,1438.1472604577427,0.9998419226000405,0.0001624277227973338
1438.1542050639348,1438.1542050639348,0.9998033894776093,0.00016239142495989676
1438.161149670033,1438.161149670033,1.0000035611411704,0.00016238738681609055
1438.1680942762246,1438.1680942762246,1.0000043261403908,0.00016235777924172634
1438.1750388823234,1438.1750388823234,1.000337413485557,0.0001623766976015766
1438.1819834884218,1438.1819834884218,1.00012675277017,0.00016235840492783836
1438.1889280944274,1438.1889280944274,1.0000244743206574,0.00016229355776988796
1438.195872700526,1438.195872700526,1.0001146459916712,0.00016228457302418567
1438.2028173065312,1438.2028173065312,0.9996644732532683,0.00016230611561658876
1438.2097619124438,1438.2097619124438,0.9999959971566416,0.00016223558475927024
1438.216706518542,1438.216706518542,0.9998047613893079,0.00016221577055550594
1438.2236511243611,1438.2236511243611,0.9996709466471035,0.00016217677383280224
1438.2305957300873,1438.2305957300873,1.0003127268016345,0.00016219147118334327
1438.2375403361855,1438.2375403361855,1.0003969916198892,0.00016220120926687306
1438.244484942005,1438.244484942005,1.000296343278802,0.00016215196914185986
1438.251429547731,1438.251429547731,0.9999983593891149,0.00016213194724003376
1438.2583741534568,1438.2583741534568,1.0000336143680673,0.00016213777659991702
1438.2653187588103,1438.2653187588103,0.9999667938841679,0.00016207985629121266
1438.2722633644432,1438.2722633644432,1.0002391393099914,0.00016210906589858164
1438.2792079700762,1438.2792079700762,1.0000210933323692,0.0001620484127007935
1438.2861525754297,1438.2861525754297,0.9997012214271466,0.00016204121861644277
1438.2930971808764,1438.2930971808764,0.9997564350001851,0.0001620463978624499
1438.3000417862302,1438.3000417862302,0.9999100545769697,0.0001620458275324597
1438.3069863914902,1438.3069863914902,1.0002350728319611,0.00016207024816305776
1438.3139309967505,1438.3139309967505,0.9998229501442667,0.00016205025112141705
1438.320875601918,1438.320875601918,1.000061131175908,0.00016205811791531854
1438.3278202068987,1438.3278202068987,0.9999930463341171,0.0001620677468296263
1438.334764811973,1438.334764811973,1.0003146270092262,0.00016210282331927524
1438.3417094168606,1438.3417094168606,0.999967825565627,0.00016207408476098142
1438.3486540217486,1438.3486540217486,1.0002008425387239,0.00016207564181592156
1438.3555986265435,1438.3555986265435,1.0001138375148306,0.0001620364392465075
1438.362543231245,1438.362543231245,0.9997950791374131,0.0001619653263434094
1438.3694878358533,1438.3694878358533,0.9998356907884454,0.00016207293620269938
1438.3764324403685,1438.3764324403685,0.999440483758053,0.00016196896251873945
1438.3833770447907,1438.3833770447907,0.9996611073050378,0.00016198965466553036
1438.3903216491196,1438.3903216491196,0.999944205823185,0.00016200360220915995
1438.3972662533558,1438.3972662533558,1.000308907822393,0.00016201220534509038
1438.4042108575916,1438.4042108575916,0.9999384553825189,0.00016200416813475386
1438.4111554617346,1438.4111554617346,1.000328615348056,0.00016195555156944596
1438.418100065784,1438.418100065784,1.0000608078526978,0.0001619651782529394
1438.4250446696474,1438.4250446696474,0.9998846165173028,0.00016197960107542956
1438.4319892734177,1438.4319892734177,1.000336812953658,0.00016196705211097396
1438.4389338771878,1438.4389338771878,0.9998462533875587,0.00016197767672223505
1438.4458784808648,1438.4458784808648,0.9997092665547846,0.00016193284337444113
1438.4528230844492,1438.4528230844492,1.0000336131319327,0.00016198098020150155
1438.4597676878468,1438.4597676878468,1.000182879326348,0.00016193588136596154
1438.4667122912447,1438.4667122912447,0.9999140435251958,0.00016198576890968702
1438.4736568942692,1438.4736568942692,1.0006155201110623,0.00016203833580728425
1438.4806014975743,1438.4806014975743,1.0000484155219624,0.0001620264444277296
1438.4875461005063,1438.4875461005063,0.9997700673524829,0.00016211247593762507
1438.4944907034383,1438.4944907034383,1.0001607564700463,0.00016195868829044663
1438.5014353061838,1438.5014353061838,1.000107291055985,0.00016199267102997612
1438.5083799090232,1438.5083799090232,0.9992836102669385,0.00016199635924014623
1438.5153245115823,1438.5153245115823,1.0001707003635523,0.00016203724871824914
1438.5222691140489,1438.5222691140489,1.0001964906628404,0.00016205848668680013
1438.5292137164222,1438.5292137164222,0.9996999144825743,0.00016206164646319587
1438.5361583187955,1438.5361583187955,1.0009393165695906,0.00016207713897975674
1438.5431029208892,1438.5431029208892,0.9996444006761859,0.00016201834766395084
1438.5500475229833,1438.5500475229833,1.0000384015084733,0.00016203831495665487
1438.556992124891,1438.556992124891,0.9996827089466802,0.00016204105518783794
1438.5639367267052,1438.5639367267052,0.9999419963829235,0.00016206816552823467
1438.5708813284264,1438.5708813284264,0.9997328314573324,0.00016200419866692247
1438.577825930055,1438.577825930055,1.0000617839218868,0.00016210350631230803
1438.5847705315896,1438.5847705315896,1.000618497316117,0.0001620882342761979
1438.5917151328456,1438.5917151328456,0.9998881525251992,0.0001620966410237979
1438.5986597342876,1438.5986597342876,1.0002784719013005,0.00016207274079645549
1438.6056043354502,1438.6056043354502,1.0000826227863389,0.0001620965319664516
1438.6125489365197,1438.6125489365197,0.9999923243613577,0.00016205131324496916
1438.6194935371232,1438.6194935371232,1.000442257840615,0.00016213181646767812
1438.6264381380997,1438.6264381380997,0.999610455538584,0.00016212179250222545
1438.6333827387032,1438.6333827387032,1.0001636877582036,0.00016213536531921652
1438.6403273392136,1438.6403273392136,0.9997286258906714,0.00016214663563154122
1438.6472719397243,1438.6472719397243,0.9999160814227805,0.0001621101804237609
1438.6542165399558,1438.6542165399558,0.9999351488366562,0.0001621629934800396
1438.6611611401872,1438.6611611401872,0.9998391730614461,0.00016216904285012944
1438.668105740232,1438.668105740232,1.0000524583237957,0.0001621893401150465
1438.675050340184,1438.675050340184,0.9999914094826561,0.00016220349746381207
1438.6819949399494,1438.6819949399494,1.0000967095654683,0.00016218321737787898
1438.6889395396215,1438.6889395396215,0.9997272347780897,0.00016213612188543573
1438.6958841392939,1438.6958841392939,1.0002372759595495,0.00016224280485529113
1438.702828738594,1438.702828738594,1.0002122915006544,0.00016221517293764376
1438.7097733379871,1438.7097733379871,1.0003680979099863,0.00016221287373353478
1438.7167179371938,1438.7167179371938,0.9997745594570174,0.0001621585485917031
1438.7236625363075,1438.7236625363075,1.000154155135802,0.00016219730754985572
1438.7306071351418,1438.7306071351418,0.9996805937795263,0.00016215446123712168
1438.7375517338828,1438.7375517338828,0.9999665664954905,0.0001621958782093382
1438.744496332624,1438.744496332624,0.9998009702467281,0.00016218956714896234
1438.7514409313649,1438.7514409313649,0.9995713074124252,0.00016217441114058545
1438.7583855296405,1438.7583855296405,1.0001589008070373,0.0001621809098939843
1438.765330128009,1438.765330128009,1.0006712648607525,0.00016227193286872508
1438.7722747260984,1438.7722747260984,0.9999871362316488,0.00016220189357214694
1438.7792193241876,1438.7792193241876,1.0001957498578897,0.0001622255452535821
1438.7861639220903,1438.7861639220903,0.9996413695519198,0.00016218084401485518
1438.7931085199934,1438.7931085199934,1.0000189155664914,0.00016221546955985514
1438.8000531175237,1438.8000531175237,1.0004483821154442,0.0001622440669292162
1438.8069977151472,1438.8069977151472,0.9999590336948259,0.00016222559358233514
1438.8139423124915,1438.8139423124915,0.999632029206498,0.00016218393304420122
1438.8208869097423,1438.8208869097423,1.0000799826159552,0.00016221891256739898
1438.8278315069933,1438.8278315069933,0.9998051199348778,0.00016220873950824381
1438.8347761039654,1438.8347761039654,1.0001066636740388,0.00016222717437254622
1438.8417207008433,1438.8417207008433,1.0004573272404915,0.0001621848785077757
1438.8486652975357,1438.8486652975357,1.0000543672639375,0.00016220911027237393
1438.855609894321,1438.855609894321,0.9999958782344025,0.00016221700699251834
1438.862554490734,1438.862554490734,0.9998149591702001,0.0001622394226525055
1438.8694990871468,1438.8694990871468,0.9998279336753406,0.00016221401636896393
1438.87644368328,1438.87644368328,0.9998917815246371,0.000162255591535473
1438.8833882794138,1438.8833882794138,0.9998729940318583,0.00016222649883753504
1438.8903328753609,1438.8903328753609,1.000422728632088,0.0001622712925506462
1438.8972774712147,1438.8972774712147,1.0001409829471777,0.0001621879999248601
1438.9042220668823,1438.9042220668823,0.9997667476011467,0.00016222755951587754
1438.9111666624572,1438.9111666624572,0.9997253987603525,0.0001622330631458963
1438.9181112579386,1438.9181112579386,1.0003932559941107,0.0001622918789520823
1438.925055853234,1438.925055853234,0.9999419884044645,0.0001622630486844191
1438.9320004484362,1438.9320004484362,0.99997479987909,0.00016225905386939632
1438.9389450434517,1438.9389450434517,0.9999759781883721,0.0001622933881327676
1438.9458896383746,1438.9458896383746,1.0001292627361362,0.00016230623312038584
1438.9528342331107,1438.9528342331107,0.9997651426542653,0.0001622629520565279
1438.9597788277542,1438.9597788277542,0.9999711506365452,0.00016231736570341916
1438.966723422304,1438.966723422304,0.9997807803629108,0.000162285445604185
1438.9736680165752,1438.9736680165752,1.000304206876567,0.00016236352319346772
1438.9806126109393,1438.9806126109393,1.0002860239941032,0.00016236424881407708
1438.98755720521,1438.98755720521,1.0000549500861848,0.0001623462711786182
1438.9945017988289,1438.9945017988289,0.9998025456686784,0.00016232647567938728
1439.001446392913,1439.001446392913,0.9998386224846667,0.00016237886253708876
1439.008390986532,1439.008390986532,1.0001497533293666,0.00016234020348664075
1439.0153355800578,1439.0153355800578,0.9996457177183,0.00016239153887037309
1439.0222801735833,1439.0222801735833,1.0001886336375017,0.00016234900914443594
1439.0292247669227,1439.0292247669227,0.9998300692736037,0.00016234082767082673
1439.0361693600762,1439.0361693600762,1.0003174622036763,0.00016245588477500043
1439.043113953136,1439.043113953136,1.0005882486586497,0.000162359914336243
1439.05005854601,1439.05005854601,1.0002550528242646,0.00016240808166013016
1439.0570031387908,1439.0570031387908,0.9996744226018315,0.00016233372442284625
1439.0639477314778,1439.0639477314778,0.999814040718265,0.00016239799091055817
1439.0708923239795,1439.0708923239795,0.9997736435792268,0.0001623831386696425
1439.0778369163872,1439.0778369163872,1.0000395241798408,0.00016239463270143771
1439.0847815086095,1439.0847815086095,1.0001754643917042,0.0001623982095162235
1439.0917261006448,1439.0917261006448,0.9999734573589578,0.00016242188400615362
1439.0986706927738,1439.0986706927738,0.9999658910318173,0.00016239528442826102
1439.1056152846231,1439.1056152846231,1.0000924887508984,0.00016235308909991547
1439.1125598763795,1439.1125598763795,0.99982573629999,0.00016236487825894817
1439.1195044676697,1439.1195044676697,0.9999287165042337,0.00016236995195834127
1439.12644905924,1439.12644905924,1.0001819854318057,0.00016237522813198574
1439.1333936505303,1439.1333936505303,1.0000384206405823,0.00016231723142548222
1439.140338241728,1439.140338241728,1.0002526152386066,0.00016237240784876798
1439.147282832832,1439.147282832832,1.0000722694524482,0.00016238914602321794
1439.154227423657,1439.154227423657,1.0007563282898484,0.0001623807014865962
1439.1611720143887,1439.1611720143887,0.9998960606561227,0.0001623607457454387
1439.1681166052135,1439.1681166052135,0.9996026267438332,0.00016244107485366202
1439.1750611955727,1439.1750611955727,1.0002095153004098,0.00016243957193369686
1439.1820057860252,1439.1820057860252,0.9994952908887056,0.00016238057365886762
1439.1889503761981,1439.1889503761981,1.0004420726342271,0.00016247431180164133
1439.1958949663708,1439.1958949663708,1.0000651659557558,0.0001623984551720269
1439.202839556358,1439.202839556358,0.9999099954089973,0.00016240591430377835
1439.209784146065,1439.209784146065,1.0000148211821267,0.00016244207550563137
1439.2167287359584,1439.2167287359584,1.0004932579355335,0.00016244890495940357
1439.2236733253865,1439.2236733253865,0.9997494070032579,0.00016242512114657859
1439.2306179148145,1439.2306179148145,1.0000082486287187,0.00016252357977054817
1439.2375625042423,1439.2375625042423,0.9997467507788317,0.00016240269051399727
1439.2445070932977,1439.2445070932977,0.9999181190929001,0.00016245859923571713
1439.2514516824463,1439.2514516824463,0.9996228528764435,0.00016242628387271127
1439.2583962713156,1439.2583962713156,1.000232255570003,0.00016247823253827718
1439.2653408600913,1439.2653408600913,0.9999965807615082,0.0001624290421847433
1439.2722854487743,1439.2722854487743,1.0003849803518716,0.0001625373420425532
1439.2792300372707,1439.2792300372707,0.9999517959464166,0.00016243971566682448
1439.286174625674,1439.286174625674,0.9998869095583736,0.00016245335210410305
1439.2931192139845,1439.2931192139845,0.9998771922385625,0.0001624474813634213
1439.3000638020153,1439.3000638020153,1.0001772571461656,0.00016244503378600938
1439.307008389953,1439.307008389953,1.0000383346608201,0.00016247376172208062
1439.3139529778912,1439.3139529778912,0.9999790792008504,0.00016243563260390136
1439.3208975655493,1439.3208975655493,0.9999911189152311,0.00016240982747315794
1439.3278421531147,1439.3278421531147,0.9998584864566901,0.00016241980813837487
1439.3347867405869,1439.3347867405869,1.000055960955574,0.00016246448220622191
1439.3417313279656,1439.3417313279656,1.0001234951482574,0.00016245851612879883
1439.3486759150655,1439.3486759150655,0.9997352409779886,0.00016244923449607707
1439.3556205021648,1439.3556205021648,0.999930608626323,0.00016245372238849002
1439.3625650891713,1439.3625650891713,1.0001272412746105,0.00016243613666652132
1439.3695096758988,1439.3695096758988,1.0002488627280743,0.00016243596914612332
1439.3764542625327,1439.3764542625327,1.0000277048634099,0.00016247092361917022
1439.383398849073,1439.383398849073,0.9997770905891068,0.00016246249456581497
1439.390343435521,1439.390343435521,1.000072866921985,0.00016248343068145084
1439.397288021782,1439.397288021782,1.0002847449086185,0.00016245215947674092
1439.4042326078577,1439.4042326078577,0.9999823826771594,0.00016245357602587832
1439.4111771939326,1439.4111771939326,0.9994971280605901,0.00016242286499541905
1439.4181217798214,1439.4181217798214,0.9999922782488909,0.00016251183314415068
1439.4250663655243,1439.4250663655243,1.0004001592727991,0.00016254971033476419
1439.4320109511339,1439.4320109511339,1.0005103953554588,0.00016244659081288934
1439.4389555365567,1439.4389555365567,0.9996032552961489,0.00016249277516015007
1439.44590012198,1439.44590012198,0.9997493593232415,0.0001624461117915907
1439.4528447071239,1439.4528447071239,0.9998316437309326,0.0001624964777529201
1439.4597892923612,1439.4597892923612,0.9997935492109532,0.00016250103934190477
1439.4667338771321,1439.4667338771321,1.0002611946158413,0.00016254104844155363
1439.4736784619033,1439.4736784619033,0.9998820779177994,0.00016252589993958572
1439.480623046675,1439.480623046675,0.9998259926047213,0.00016253253569371867
1439.4875676314464,1439.4875676314464,1.000401956631812,0.0001625520391636422
1439.4945122157517,1439.4945122157517,0.9999949990494523,0.00016254314305387318
1439.5014568000574,1439.5014568000574,1.0001914175425488,0.00016244298468206202
1439.5084013841765,1439.5084013841765,1.0001594996394148,0.00016254098276785258
1439.5153459683893,1439.5153459683893,0.9997432508156251,0.00016251701211216114
1439.5222905522292,1439.5222905522292,0.9998323007809992,0.00016255181927488923
1439.529235135976,1439.529235135976,0.9996139925092734,0.00016248752162553018
1439.5361797196297,1439.5361797196297,1.0001225339963025,0.00016248937268229687
1439.5431243031906,1439.5431243031906,1.000391717295932,0.00016258684970660696
1439.5500688866578,1439.5500688866578,1.0001118190029366,0.00016253182280657834
1439.557013469846,1439.557013469846,1.0000043643290246,0.00016253547474709342
1439.5639580530337,1439.5639580530337,1.0000752092672156,0.000162560106799163
1439.570902636036,1439.570902636036,1.000016488330517,0.00016259313094748996
1439.5778472189445,1439.5778472189445,1.000064869955525,0.00016254813568617921
1439.5847918016666,1439.5847918016666,0.999612055441107,0.00016248616783903866
1439.5917363843892,1439.5917363843892,0.999860474475059,0.0001625184051618862
1439.5986809668325,1439.5986809668325,0.9999601273214962,0.0001625566863570208
1439.6056255492751,1439.6056255492751,1.0001118383976544,0.00016254554855100494
1439.6125701313456,1439.6125701313456,0.9995699826176094,0.0001624984907284594
1439.619514713509,1439.619514713509,1.0002012567322425,0.00016255319285118924
1439.626459295487,1439.626459295487,1.00001548925845,0.00016255271774515224
1439.6334038773707,1439.6334038773707,1.0005127327394032,0.0001625517445316027
1439.6403484590687,1439.6403484590687,1.0000019775950784,0.00016251394666609418
1439.6472930406733,1439.6472930406733,1.0003670940829592,0.0001625489905091448
1439.654237622092,1439.654237622092,0.9998641416782466,0.0001625004873575104
1439.6611822036036,1439.6611822036036,0.9997559125238651,0.00016250450332644818
1439.668126784743,1439.668126784743,0.9996761303514452,0.00016248052707350436
1439.6750713657889,1439.6750713657889,0.9999088434065573,0.00016253824789481592
1439.6820159468352,1439.6820159468352,0.9999163422574144,0.00016248397125933066
1439.6889605276015,1439.6889605276015,1.0001683999074127,0.0001625462185401829
1439.695905108275,1439.695905108275,0.9998947522108239,0.00016254161879543648
1439.7028496889484,1439.7028496889484,1.0001826960257727,0.00016253534456088175
1439.7097942693426,1439.7097942693426,1.0002923409963693,0.00016262348424203162
1439.7167388497369,1439.7167388497369,0.9999444303607621,0.0001625426064267951
1439.7236834298515,1439.7236834298515,0.9999384365144135,0.0001625386152963785
1439.730628009966,1439.730628009966,0.9999943581771342,0.00016255717672096379
1439.7375725898949,1439.7375725898949,1.0003612658437082,0.000162541253756324
1439.7445171697298,1439.7445171697298,0.9995996510884781,0.00016252070050608013
