time,time,flux,flux_err
1570.859433968729,1570.859433968729,0.9999807086594634,0.000169483511678053
1570.8677675979982,1570.8677675979982,0.9998534443554957,0.00016936480314135933
1570.875406758145,1570.875406758145,0.9999724899062545,0.00015449595683664205
1570.8834625999002,1570.8834625999002,1.0000117776320618,0.00015439900963680594
1570.8906850786882,1570.8906850786882,1.0001490277520184,0.00015430190217861217
1570.8976297699446,1570.8976297699446,1.000293605512865,0.00015416004644610223
1570.9045744611085,1570.9045744611085,1.0002493150051195,0.00015406695406121812
1570.9115191522724,1570.9115191522724,0.9999806570218329,0.0001539465286534346
1570.9184638436236,1570.9184638436236,0.9998704773224045,0.00015383160206559128
1570.9254085348807,1570.9254085348807,0.9999389094217112,0.00015369906661490416
1570.9323532263236,1570.9323532263236,0.9998042994072549,0.00015353772577926625
1570.9392979176737,1570.9392979176737,0.9997518597781851,0.00015352486506586347
1570.9462426090238,1570.9462426090238,1.0000114546062215,0.00015340144923435428
1570.9531873004682,1570.9531873004682,1.0000274589019233,0.00015330778118282504
1570.9601319918183,1570.9601319918183,0.999904548156246,0.00015325792486575027
1570.9670766833542,1570.9670766833542,1.0004231758681714,0.000153153940911163
1570.9740213747978,1570.9740213747978,0.9999800736077583,0.00015302932788487106
1570.980966066334,1570.980966066334,1.0001351421307663,0.0001529706223945136
1570.9879107578713,1570.9879107578713,0.9998100343016402,0.00015286552600341497
1570.994855449408,1570.994855449408,0.9998790842268297,0.0001527811677102674
1571.001800141037,1571.001800141037,1.0000191383908787,0.00015267707474115593
1571.0087448326667,1571.0087448326667,0.9999768437365614,0.0001525777309680584
1571.015689524203,1571.015689524203,1.000276547504786,0.00015247048483955794
1571.0226342159262,1571.0226342159262,1.0001116708977513,0.00015234433849861765
1571.0295789075562,1571.0295789075562,0.9997478767014805,0.00015227396414969365
1571.0365235992788,1571.0365235992788,0.9997602963608795,0.0001522179755264376
1571.043468291094,1571.043468291094,0.9999820016394165,0.00015210813072444863
1571.0504129826306,1571.0504129826306,1.0000087492011813,0.0001520663260044836
1571.057357674354,1571.057357674354,1.000318158888829,0.000152044231575329
1571.06430236617,1571.06430236617,1.0000456440680119,0.00015193282544477183
1571.0712470578928,1571.0712470578928,1.0001581482793742,0.00015185199877384856
1571.0781917498948,1571.0781917498948,1.000172206997139,0.00015174495522845836
1571.08513644171,1571.08513644171,1.0001366367548743,0.00015168169465342522
1571.0920811334333,1571.0920811334333,0.9995582385542914,0.0001515488866106667
1571.09902582525,1571.09902582525,1.00001064695441,0.00015150823915294464
1571.1059705172515,1571.1059705172515,0.9998662970928931,0.00015141280326284515
1571.1129152089748,1571.1129152089748,1.0000226492262143,0.00015134225990679704
1571.1198599009763,1571.1198599009763,0.9999438641964467,0.0001512519095415384
1571.1268045928853,1571.1268045928853,0.9999362689147396,0.00015118508196456634
1571.133749284795,1571.133749284795,1.0000580913572477,0.00015111405826742896
1571.1406939767044,1571.1406939767044,1.0003292329108269,0.00015107672393400615
1571.147638668706,1571.147638668706,1.0001659832633716,0.00015101690535478885
1571.1545833606147,1571.1545833606147,0.9999228318813262,0.0001509510759046092
1571.1615280526166,1571.1615280526166,1.0000624811899934,0.0001508870834222941
1571.1684727445263,1571.1684727445263,0.9998370767709529,0.00015082374947575074
1571.1754174365287,1571.1754174365287,0.9998475260604742,0.00015077438879924893
1571.1823621285307,1571.1823621285307,0.999884940573574,0.00015072750672065848
1571.189306820626,1571.189306820626,0.9998825174829269,0.0001506997391906295
1571.1962515126274,1571.1962515126274,1.0001356296769626,0.00015066300840511413
1571.2031962046306,1571.2031962046306,1.000001776632399,0.00015061875183924035
1571.2101408966328,1571.2101408966328,1.000160451987928,0.00015059630354625572
1571.217085588728,1571.217085588728,1.000087320368905,0.00015055631841683745
1571.2240302807302,1571.2240302807302,1.0000644870852893,0.00015049474027474974
1571.2309749728252,1571.2309749728252,0.9999311994101892,0.00015045395506184243
1571.2379196649208,1571.2379196649208,0.9999016344159202,0.00015040576746108198
1571.2448643569232,1571.2448643569232,1.0000909956528283,0.00015038286117291766
1571.2518090491117,1571.2518090491117,0.9998873947734517,0.00015032796936550539
1571.2587537411134,1571.2587537411134,0.9998960601789413,0.0001503126761157714
1571.2656984332084,1571.2656984332084,0.9999609234810045,0.00015024111976615548
1571.2726431253036,1571.2726431253036,1.0000101706619176,0.00015023926800722867
1571.2795878173997,1571.2795878173997,0.9999733472976983,0.00015019618438618702
1571.2865325095881,1571.2865325095881,1.0001413981991607,0.00015014121859230825
1571.2934772015901,1571.2934772015901,1.0001229339998534,0.0001501194357019942
1571.300421893685,1571.300421893685,0.9998328035844374,0.00015006204514307885
1571.3073665858733,1571.3073665858733,1.0000670559201599,0.00015003885759035763
1571.3143112779694,1571.3143112779694,1.0000765193935763,0.00014999102292293152
1571.3212559700648,1571.3212559700648,0.9999070228512634,0.00014992527000217868
1571.32820066216,1571.32820066216,1.0001785251985988,0.0001498957659891699
1571.3351453543482,1571.3351453543482,1.0001554801493278,0.00014986556777665664
1571.3420900464432,1571.3420900464432,0.9998440782796749,0.00014980692241131372
1571.3490347385384,1571.3490347385384,0.9998959629464966,0.00014977371258217677
1571.3559794306348,1571.3559794306348,0.9998108353909627,0.00014973947026410557
1571.362924122823,1571.362924122823,1.0002541680651362,0.0001497349769928427
1571.369868814918,1571.369868814918,0.9998955640391388,0.00014967180544625568
1571.3768135070131,1571.3768135070131,0.9999380255507188,0.0001496202686283543
1571.3837581991081,1571.3837581991081,0.9998080467407938,0.00014958195766488427
1571.390702891297,1571.390702891297,1.0002780103297728,0.00014956373489236226
1571.3976475833929,1571.3976475833929,0.9999575282227132,0.00014950859228778917
1571.4045922754879,1571.4045922754879,1.0000866829497619,0.00014948649133756858
1571.4115369675826,1571.4115369675826,0.9998752925804173,0.0001494271329212604
1571.418481659771,1571.418481659771,0.9998505103721435,0.00014938788564511715
1571.425426351773,1571.425426351773,1.0002854821408746,0.00014940385429056954
1571.4323710439626,1571.4323710439626,0.9999630597347995,0.00014935873655801764
1571.4393157360578,1571.4393157360578,0.9999760986895513,0.00014934089489479637
1571.4462604280593,1571.4462604280593,0.999945335456486,0.00014929599999084499
1571.4532051202477,1571.4532051202477,1.00001624905645,0.00014930587758071182
1571.4601498122497,1571.4601498122497,0.9999126149581359,0.00014927653450654395
1571.4670945043454,1571.4670945043454,1.000080376954908,0.0001492847232987949
1571.4740391964413,1571.4740391964413,1.0000069482750287,0.00014923454275011513
1571.4809838885362,1571.4809838885362,0.9999987012927395,0.00014924606151360445
1571.487928580538,1571.487928580538,1.0000166861415933,0.0001492517853230771
1571.4948732726332,1571.4948732726332,1.0000005006782369,0.00014924167913940586
1571.5018179646354,1571.5018179646354,0.999891180404183,0.00014924966062652064
1571.5087626567315,1571.5087626567315,1.0000652993766468,0.00014922853549921745
1571.5157073487337,1571.5157073487337,1.00023074983817,0.00014924419566382622
1571.5226520407352,1571.5226520407352,1.0000193954728576,0.00014922297464703367
1571.5295967327372,1571.5295967327372,0.9999731225987011,0.00014919620782683206
1571.5365414247394,1571.5365414247394,0.9998050689358117,0.0001491978615054025
1571.5434861167419,1571.5434861167419,0.9999273931886009,0.00014916850406402954
1571.5504308087445,1571.5504308087445,0.9999323435351591,0.000149171202318627
1571.557375500746,1571.557375500746,1.0000372357681495,0.00014918789811631437
1571.5643201927483,1571.5643201927483,1.000017735789355,0.00014917524922617435
1571.5712648846572,1571.5712648846572,1.0001857841198847,0.0001491788633148612
1571.578209576659,1571.578209576659,1.00006894510935,0.0001491737140190977
1571.585154268569,1571.585154268569,0.9997760725313363,0.00014912712203928632
1571.5920989604779,1571.5920989604779,1.000005722255821,0.0001491314025720072
1571.5990436523869,1571.5990436523869,1.0004755133174335,0.00014917452777441731
1571.6059883442954,1571.6059883442954,0.9997649812313751,0.0001491266694548987
1571.6129330362041,1571.6129330362041,0.9997501397896246,0.0001490993147434022
1571.6198777281138,1571.6198777281138,1.000010490865187,0.0001491122797751967
1571.6268224199302,1571.6268224199302,1.0002666078423492,0.00014912291575365754
1571.6337671118388,1571.6337671118388,0.9999147992118701,0.0001491029746605082
1571.6407118037482,1571.6407118037482,1.0000954551013757,0.000149123772823049
1571.6476564954703,1571.6476564954703,0.9999798511757716,0.00014910386043649214
1571.6546011872863,1571.6546011872863,0.9999137333046821,0.0001490917984102224
1571.6615458790093,1571.6615458790093,1.0001030551926737,0.0001491028873138894
1571.668490571012,1571.668490571012,0.9999763687046309,0.00014909125983464036
1571.6754352628275,1571.6754352628275,1.0001843630453258,0.00014910503289721527
1571.6823799545502,1571.6823799545502,1.0000447072322007,0.00014907549508469628
1571.6893246460863,1571.6893246460863,0.9999266419817221,0.00014905107620307695
1571.696269337902,1571.696269337902,0.9997307125011439,0.00014902651701571157
1571.7032140296258,1571.7032140296258,1.0000987399397894,0.0001490492243523464
1571.7101587214415,1571.7101587214415,1.000049727051331,0.00014904180850493838
1571.717103413071,1571.717103413071,0.9997471043732329,0.00014900519407759548
1571.7240481047004,1571.7240481047004,1.0001398760621776,0.00014900127766458754
1571.7309927964227,1571.7309927964227,1.000138195155382,0.00014900166630783058
1571.7379374880525,1571.7379374880525,1.0000388744324191,0.00014896716944974253
1571.744882179683,1571.744882179683,0.9999004004351434,0.00014894395903793152
1571.7518268713125,1571.7518268713125,0.9998794812423986,0.00014894230802690452
1571.7587715628488,1571.7587715628488,1.0001106843274254,0.00014892224808832946
1571.765716254385,1571.765716254385,1.0001230941713497,0.0001488965222661353
1571.7726609460146,1571.7726609460146,1.0000507466268573,0.00014889043253582087
1571.7796056375512,1571.7796056375512,0.9999570135623619,0.0001488729804451615
1571.7865503290882,1571.7865503290882,1.0001066834612076,0.00014884397567552367
1571.7934950205315,1571.7934950205315,0.9998928984585174,0.00014884714473127294
1571.8004397119744,1571.8004397119744,0.999898862999156,0.00014882655036889126
1571.807384403511,1571.807384403511,0.9998823371619121,0.00014881331297106334
1571.8143290948608,1571.8143290948608,1.0000211952464642,0.0001488146115553764
1571.8212737863978,1571.8212737863978,1.0001052577818368,0.00014880693520780185
1571.8282184778418,1571.8282184778418,0.99996541575908,0.00014878038690333277
1571.8351631691914,1571.8351631691914,1.0000213630628505,0.0001487601560389559
1571.8421078605415,1571.8421078605415,1.0001909180041324,0.00014879448536765254
1571.8490525518919,1571.8490525518919,0.9998651399477065,0.0001487636561013214
1571.8559972431485,1571.8559972431485,0.9999645199614807,0.00014873128454108458
1571.8629419344995,1571.8629419344995,1.0001515343604968,0.0001487102387954075
1571.8698866257569,1571.8698866257569,0.9996767453453576,0.00014871818283291536
1571.8768313171067,1571.8768313171067,1.0000302920600563,0.0001487118208215527
1571.8837760082706,1571.8837760082706,1.0000160712866737,0.00014871562090060025
1571.8907206994343,1571.8907206994343,0.9999872810120201,0.0001486966114103133
1571.8976653907841,1571.8976653907841,0.9999423985503876,0.00014873554688681515
1571.9046100819492,1571.9046100819492,1.0002539027851487,0.00014872807775362034
1571.9115547730198,1571.9115547730198,1.0000663642685177,0.00014872212029115432
1571.9184994641837,1571.9184994641837,1.0001128086246578,0.00014870191751210508
1571.9254441552544,1571.9254441552544,0.9999242160602542,0.00014869894854130586
1571.9323888463248,1571.9323888463248,0.9998993589397509,0.00014869397463524684
1571.9393335373957,1571.9393335373957,1.0001404714958895,0.0001487071442831691
1571.9462782284668,1571.9462782284668,0.9999342641565369,0.00014868950806717218
1571.9532229195381,1571.9532229195381,0.9999900707148989,0.00014870469820834026
1571.9601676105156,1571.9601676105156,0.9997358026470564,0.00014867826180175965
1571.9671123014,1571.9671123014,0.9999131659719142,0.00014868968042047975
1571.9740569924704,1571.9740569924704,1.0000142091235353,0.00014866338893453654
1571.9810016833549,1571.9810016833549,0.9998448503343189,0.00014863738981398783
1571.987946374147,1571.987946374147,1.0002253941845671,0.00014867855469632922
1571.994891065218,1571.994891065218,1.0000781040199382,0.00014867013477136675
1572.001835755823,1572.001835755823,1.0005067946353585,0.00014868606207395023
1572.0087804468935,1572.0087804468935,1.000124631227427,0.00014864475868231637
1572.0157251374985,1572.0157251374985,1.0001142013823263,0.00014863560042856097
1572.022669828383,1572.022669828383,0.9998685949366912,0.0001486200643301194
1572.029614519175,1572.029614519175,0.9998490327767013,0.0001486179702661734
1572.03655920978,1572.03655920978,0.9998111392304064,0.0001485969756968443
1572.0435039003853,1572.0435039003853,0.9999276098937246,0.00014858880443517224
1572.0504485909903,1572.0504485909903,1.0010438562474004,0.00014864496758640154
1572.0573932818747,1572.0573932818747,0.9998551315298702,0.00014858694051070225
1572.0643379726657,1572.0643379726657,0.9999527505560073,0.00014858747350977305
1572.0712826629922,1572.0712826629922,1.000096894640234,0.0001486067702353091
1572.0782273534114,1572.0782273534114,1.000082299396322,0.00014860063983497602
1572.0851720440164,1572.0851720440164,1.0000126503212532,0.00014857298290300261
1572.0921167346212,1572.0921167346212,1.0001092172806962,0.00014858252220873857
1572.0990614252262,1572.0990614252262,0.9996932778855733,0.00014852603040178486
1572.1060061155517,1572.1060061155517,1.00019473196915,0.00014856218076110815
1572.1129508059712,1572.1129508059712,1.0000107296147964,0.00014853299221764953
1572.1198954964837,1572.1198954964837,0.999843598255211,0.00014851632242817396
1572.126840186716,1572.126840186716,1.0002419846119268,0.00014855920482587359
1572.133784877135,1572.133784877135,0.9999595746582555,0.00014851679218264214
1572.1407295674605,1572.1407295674605,0.9999206857416263,0.00014849352693824212
1572.1476742576929,1572.1476742576929,1.0000385780455554,0.0001484986293811124
1572.1546189480187,1572.1546189480187,0.999985278338326,0.00014850470111489058
1572.1615636382523,1572.1615636382523,0.9998106797490627,0.0001484892571343216
1572.1685083283912,1572.1685083283912,1.000015798027677,0.00014851580236920357
1572.1754530185306,1572.1754530185306,1.0002075187682018,0.00014850186432713956
1572.1823977086701,1572.1823977086701,1.000302624557777,0.0001485110744910435
1572.1893423988092,1572.1893423988092,1.0001779251535663,0.00014848448221536215
1572.1962870888553,1572.1962870888553,0.9998330555152574,0.000148462584505987
1572.2032317789958,1572.2032317789958,0.9998923524397967,0.00014846370117520998
1572.2101764690422,1572.2101764690422,1.0002663267099137,0.0001485048008789069
1572.2171211589023,1572.2171211589023,0.9999014060348067,0.0001484695000751727
1572.2240658489484,1572.2240658489484,1.0002691778968988,0.00014846926752786814
1572.2310105388083,1572.2310105388083,0.9999477252488088,0.00014844279273090096
1572.237955228761,1572.237955228761,0.999723301646724,0.00014844913052115973
1572.2448999186222,1572.2448999186222,1.0004470228796751,0.00014850800844146099
1572.2518446084825,1572.2518446084825,0.9999339394860229,0.00014844014455382056
1572.258789298249,1572.258789298249,0.9998808488512436,0.0001484710268857703
1572.2657339880159,1572.2657339880159,0.9997510609497707,0.00014845764438823332
1572.2726786777828,1572.2726786777828,0.9999598790310559,0.00014846563261563796
1572.2796233674562,1572.2796233674562,1.0002241838921404,0.00014848667211478324
1572.2865680571308,1572.2865680571308,1.0000889038067515,0.00014845654636560458
1572.2935127468045,1572.2935127468045,0.9999184637467184,0.00014843500703426196
1572.3004574363852,1572.3004574363852,1.0001255518326606,0.00014842805690144662
1572.3074021260588,1572.3074021260588,0.9999183830266004,0.00014844575174156646
1572.3143468154533,1572.3143468154533,1.0000167130376105,0.0001484207698800863
1572.3212915050337,1572.3212915050337,0.9998519049883361,0.0001483986422770821
1572.3282361946144,1572.3282361946144,0.9998872087283164,0.00014841193366348652
1572.3351808840096,1572.3351808840096,1.0002032293801584,0.00014839872037520225
1572.342125573497,1572.342125573497,1.0001091773617343,0.00014842196463785764
1572.3490702627053,1572.3490702627053,1.0000019803380418,0.00014839533577481442
1572.3560149520993,1572.3560149520993,1.0000694295097774,0.000148400541553129
1572.3629596414007,1572.3629596414007,0.9998315520766161,0.00014836238686598957
1572.3699043307013,1572.3699043307013,0.999858161285492,0.00014837539070556706
1572.3768490200032,1572.3768490200032,1.0000684884752875,0.00014836256692560133
1572.383793709119,1572.383793709119,1.000097981303151,0.00014834422469634558
1572.3907383983267,1572.3907383983267,1.000092867148219,0.00014835060210741924
1572.397683087535,1572.397683087535,0.9999075610326582,0.00014833752707172412
1572.4046277766497,1572.4046277766497,1.0000371616083945,0.00014833740140388803
1572.4115724656708,1572.4115724656708,0.9999256693397104,0.000148311322571691
1572.418517154693,1572.418517154693,1.00003352387723,0.00014832138276557315
1572.425461843809,1572.425461843809,0.9999270194366823,0.00014830547273018982
1572.4324065326443,1572.4324065326443,0.9999802824563307,0.00014831625035307451
1572.4393512216661,1572.4393512216661,1.0000870857379662,0.00014831793293139758
1572.4462959105017,1572.4462959105017,1.0000289084959841,0.0001483077882830556
1572.4532405993373,1572.4532405993373,0.9999373180566279,0.00014830201855590557
1572.4601852881726,1572.4601852881726,1.000055527690177,0.0001482928298701886
1572.4671299770089,1572.4671299770089,1.000055658605839,0.00014829716403918394
1572.4740746657517,1572.4740746657517,0.9998223475276999,0.00014828469658236941
1572.4810193544938,1572.4810193544938,1.0001050925501929,0.00014831720549353882
1572.4879640432364,1572.4879640432364,0.9999367961576446,0.0001482849767895338
1572.494908731885,1572.494908731885,0.9999755982078135,0.00014828955464428755
1572.5018534204414,1572.5018534204414,0.999925184647363,0.0001482722567496155
1572.5087981089978,1572.5087981089978,1.0001069034924062,0.00014828089990932757
1572.5157427975548,1572.5157427975548,1.000041234289507,0.00014828464862408838
1572.5226874860177,1572.5226874860177,1.0000266179866732,0.00014827891708073902
1572.5296321744809,1572.5296321744809,1.0001092584053148,0.00014828572179494847
1572.5365768630363,1572.5365768630363,0.9999616863684132,0.000148265976029542
1572.5435215513135,1572.5435215513135,0.9998064604941593,0.00014826959008587404
1572.5504662395902,1572.5504662395902,0.9999754305945837,0.00014826928558523845
1572.557410927867,1572.557410927867,1.0001449725094762,0.00014828410921508705
1572.564355616145,1572.564355616145,0.9998912798408174,0.00014828226308937943
1572.5713003044214,1572.5713003044214,1.0000733501770784,0.00014827127196646167
1572.5782449926978,1572.5782449926978,0.9998887526027623,0.00014824953645814075
1572.5851896809747,1572.5851896809747,0.9999323247223686,0.00014827781038825782
1572.5921343689715,1572.5921343689715,1.0002238151659197,0.00014828291725696343
1572.599079057062,1572.599079057062,0.9998327149980675,0.00014825268646619704
1572.6060237451536,1572.6060237451536,1.0000095960199296,0.00014827981127477836
