time,time,flux,flux_err
1354.1181540830914,1354.1181540830914,0.9993533953493108,0.0006866102159765109
1354.126256136311,1354.126256136311,1.0007743872423283,0.0006271385353077876
1354.1332007530232,1354.1332007530232,1.0010747193307197,0.0006271666941709398
1354.1401453697358,1354.1401453697358,0.997939713204776,0.0006267504943378232
1354.147089986262,1354.147089986262,0.9997428015842207,0.0006271391132431912
1354.1540346026954,1354.1540346026954,0.9996327420541867,0.0006270482495234497
1354.1609792189422,1354.1609792189422,1.0002648206487643,0.0006272209602099373
1354.1679238349102,1354.1679238349102,1.001193603222675,0.0006274247661433982
1354.1748684509707,1354.1748684509707,1.0000667170636,0.0006272872191346726
1354.181813066659,1354.181813066659,1.0004633443302349,0.000627368564640646
1354.188757682347,1354.188757682347,1.0009189924605892,0.0006274559720839444
1354.195702297849,1354.195702297849,0.9994262148079563,0.0006271677682617625
1354.2026469132575,1354.2026469132575,0.999884640759688,0.000627232587015814
1354.209591528294,1354.209591528294,1.0002184389340745,0.0006272618286366403
1354.2165361437023,1354.2165361437023,0.9985609162429455,0.0006270484001356079
1354.2234807583661,1354.2234807583661,1.0006567487901519,0.0006273790495892769
1354.2304253734023,1354.2304253734023,0.9997717282291836,0.000627320042545184
1354.2373699879731,1354.2373699879731,1.000257038408801,0.0006274642824363116
1354.2443146024507,1354.2443146024507,1.0003966899517696,0.0006275833036439094
1354.251259216928,1354.251259216928,1.0001298375933811,0.0006274689820062958
1354.258203831126,1354.258203831126,1.0005507538684988,0.0006274160270378729
1354.2651484452308,1354.2651484452308,0.9990262084894764,0.0006273277081203768
1354.2720930593357,1354.2720930593357,1.0005724189810512,0.0006275285887052796
1354.2790376730682,1354.2790376730682,0.9992937661733908,0.000627314041652911
1354.2859822868,1354.2859822868,1.0005542406958705,0.0006274614343038633
1354.2929269003464,1354.2929269003464,0.9989515063315112,0.000627185021311224
1354.299871513706,1354.299871513706,1.0003846573459203,0.0006274332084189339
1354.3068161270662,1354.3068161270662,0.9995670354495216,0.0006271604302771243
1354.31376074024,1354.31376074024,0.9999308429375183,0.0006272245270087776
1354.320705353134,1354.320705353134,1.0004797557814096,0.0006273557393407691
1354.3276499662145,1354.3276499662145,0.9996870452373787,0.0006271295811361732
1354.3345945789222,1354.3345945789222,1.001448216739739,0.0006273716764819169
1354.3415391915369,1354.3415391915369,1.0001166294590964,0.0006272191410000882
1354.3484838038726,1354.3484838038726,1.00029682295517,0.000627240640546376
1354.3554284163006,1354.3554284163006,0.9997456899318692,0.0006271734701732712
1354.362373028543,1354.362373028543,0.9993830538458998,0.000627093480044904
1354.369317640599,1354.369317640599,0.9992474403903244,0.0006269511295192
1354.3762622525621,1354.3762622525621,0.999908282168275,0.0006271556499126196
1354.3832068643392,1354.3832068643392,0.9989187845839815,0.0006268368033928337
1354.3901514760223,1354.3901514760223,0.9997395712276023,0.0006270292687177054
1354.3970960876122,1354.3970960876122,0.9997890572567046,0.000627012858832304
1354.4040406991094,1354.4040406991094,1.0008130963504538,0.0006273118305340903
1354.4109853103273,1354.4109853103273,1.0013025707372951,0.0006273991650241884
1354.4179299215452,1354.4179299215452,0.999914753015743,0.0006271094419298309
1354.42487453267,1354.42487453267,0.9992765730617494,0.0006269131290701525
1354.4318191435148,1354.4318191435148,1.0001598460810857,0.000627161749427597
1354.4387637542673,1354.4387637542673,1.0003328886060847,0.0006270773567543962
1354.445708365019,1354.445708365019,0.9998766694562574,0.0006270372235616629
1354.452652975399,1354.452652975399,0.9989871505359289,0.0006269514360001563
1354.4595975857787,1354.4595975857787,1.0001870513042543,0.0006271232665127182
1354.4665421961583,1354.4665421961583,0.999807613783906,0.0006271870736230154
1354.4734868065377,1354.4734868065377,0.9998307888909782,0.0006271296957612445
1354.480431416452,1354.480431416452,1.0011086476374575,0.0006273133222168721
1354.4873760264586,1354.4873760264586,0.9997962048458859,0.0006270354559469402
1354.4943206361866,1354.4943206361866,0.9999980035544966,0.0006271615689584435
1354.5012652459143,1354.5012652459143,1.0003182131083856,0.0006273115137233963
1354.5082098554553,1354.5082098554553,1.0001832555875918,0.000627124465688469
1354.515154464904,1354.515154464904,0.9985673238560457,0.0006267435631186176
1354.522099074166,1354.522099074166,1.0000438318768063,0.0006271802515906147
1354.5290436834282,1354.5290436834282,1.0000736372344794,0.0006270854216651969
1354.5359882924108,1354.5359882924108,1.000233608213001,0.0006270279186346712
1354.5429329013,1354.5429329013,1.000307385870625,0.0006270740859526475
1354.5498775101896,1354.5498775101896,0.9996492232171514,0.0006269748238119262
1354.5568221188928,1354.5568221188928,0.9993247201436984,0.0006269298296749556
1354.5637667275028,1354.5637667275028,1.0012788785596545,0.0006271764125734077
1354.57071133602,1354.57071133602,1.0005217010661833,0.0006272125997445107
1354.5776559444434,1354.5776559444434,0.9998967546277377,0.000626964077317468
1354.5846005525882,1354.5846005525882,0.9989084857650745,0.0006267470120345758
1354.5915451606397,1354.5915451606397,1.0010298568022375,0.0006271864045117618
1354.5984897686908,1354.5984897686908,0.9997708354273558,0.0006267915473732999
1354.6054343767423,1354.6054343767423,0.9992651346912197,0.0006267818697950099
1354.6123789843277,1354.6123789843277,0.9990673263275867,0.0006267799296157207
1354.6193235920061,1354.6193235920061,1.0005374673197092,0.0006269930504876525
1354.6262681995922,1354.6262681995922,1.0006397936715348,0.0006270251750037259
1354.6332128069914,1354.6332128069914,0.9998903638650823,0.0006270113472996127
1354.6401574143906,1354.6401574143906,1.000666971492839,0.0006270981029868716
1354.6471020215108,1354.6471020215108,0.9996434160583373,0.0006268865829475013
1354.6540466285373,1354.6540466285373,0.9998360508428782,0.000626867312858662
1354.6609912356578,1354.6609912356578,1.0006688214075805,0.0006270600085959392
1354.6679358424985,1354.6679358424985,0.9995581789391801,0.0006267724707927843
1354.6748804492458,1354.6748804492458,1.0001309238859868,0.0006270929496107666
1354.6818250558072,1354.6818250558072,0.9998621604671115,0.0006269343541368138
1354.688769662368,1354.688769662368,0.9997568414135113,0.0006269403381350899
1354.695714268743,1354.695714268743,0.9989206115376404,0.0006266464816656136
1354.702658875118,1354.702658875118,1.0004690171028852,0.0006270454539483695
1354.7096034813069,1354.7096034813069,1.0009126333255804,0.0006271508248676268
1354.7165480874023,1354.7165480874023,0.999843029006046,0.0006268489846302757
1354.7234926934048,1354.7234926934048,1.0004468066328007,0.0006270123041660463
1354.7304372993137,1354.7304372993137,0.9996605241077916,0.0006268387982107184
1354.7373819050372,1354.7373819050372,1.0004244757844045,0.0006269680542616442
1354.74432651076,1354.74432651076,0.9999349784504392,0.000626855077735388
1354.7512711161103,1354.7512711161103,0.9991423810946843,0.0006266374714136528
1354.7582157216473,1354.7582157216473,0.9992049146331938,0.0006266257885044438
1354.7651603269974,1354.7651603269974,1.0002234163035384,0.0006269235513923837
1354.772104932162,1354.772104932162,1.0007182800571945,0.0006269704435002409
1354.779049537326,1354.779049537326,1.0004766410718304,0.000627002079926619
1354.785994142304,1354.785994142304,1.0003378643231637,0.0006269050035464143
1354.7929387472818,1354.7929387472818,0.9995661719687685,0.0006268396203831052
1354.7998833519803,1354.7998833519803,0.9997103738787543,0.0006268293263139791
1354.8068279567722,1354.8068279567722,1.0004852131491213,0.0006270196231890803
1354.8137725613776,1354.8137725613776,0.9993201220941794,0.0006267788190952892
1354.8207171657969,1354.8207171657969,0.9995898903361127,0.0006268296989449075
1354.8276617702159,1354.8276617702159,1.000296954952835,0.0006269600155001876
1354.8346063744489,1354.8346063744489,1.0004913229361956,0.0006271257297445629
1354.8415509785887,1354.8415509785887,1.0003987281804885,0.0006269863033626593
1354.8484955827284,1354.8484955827284,1.0001657963322934,0.0006269352281745911
1354.8554401866818,1354.8554401866818,0.9993206707273675,0.0006268438648588356
1354.8623847905424,1354.8623847905424,0.9999247970496199,0.0006268907440953372
1354.8693293942165,1354.8693293942165,1.0003005967183125,0.0006269939097395333
1354.8762739980766,1354.8762739980766,1.000049454497395,0.0006268648125634586
1354.8832186014715,1354.8832186014715,0.9987825970415136,0.0006265764163528894
1354.890163204866,1354.890163204866,1.0000167256663264,0.000626727768009911
1354.8971078082607,1354.8971078082607,1.0007608284074359,0.0006269761438181139
1354.9040524116556,1354.9040524116556,1.000798531698814,0.0006269443737873879
1354.9109970147706,1354.9109970147706,1.0001930299966406,0.0006268509883230127
1354.917941617886,1354.917941617886,0.9991363237059755,0.0006265202507423687
1354.9248862208149,1354.9248862208149,0.9996333867867214,0.0006266797857398951
1354.9318308236511,1354.9318308236511,1.0007782288187308,0.00062679290469963
1354.9398865628439,1354.9398865628439,0.9997305320181986,0.0006266214388353395
1354.9471089496292,1354.9471089496292,0.9994568025202618,0.0006266296222008679
1354.954053552186,1354.954053552186,1.0002540225166534,0.0006268770434216004
1354.9609981546494,1354.9609981546494,1.0006989332545504,0.0006269876105879623
1354.9679427569263,1354.9679427569263,0.9998557907294549,0.0006267466212342061
1354.974887359203,1354.974887359203,0.9998714437288735,0.0006267775219351092
1354.9818319613873,1354.9818319613873,1.0003421350046149,0.000626836041038257
1354.9887765633853,1354.9887765633853,0.9995789915193184,0.0006267870980633848
1354.9957211653827,1354.9957211653827,1.0003012068468744,0.0006268606506399726
1355.0026657672875,1355.0026657672875,0.9994956709015816,0.0006267697951058218
1355.0096103690055,1355.0096103690055,0.9990241950305757,0.0006264724617190754
1355.0165549707242,1355.0165549707242,1.0004158832211891,0.0006268366867232345
1355.023499572256,1355.023499572256,1.0008156326524005,0.0006269274658393923
1355.030444173788,1355.030444173788,0.9993878468663281,0.0006265041860502435
1355.0373887751343,1355.0373887751343,1.0004303469386358,0.0006266977053225231
1355.0443333764797,1355.0443333764797,0.9998380861751024,0.0006267127300392924
1355.0512779775463,1355.0512779775463,0.999984040829052,0.0006266906260868994
1355.0582225786125,1355.0582225786125,1.001126717196836,0.0006268475520255168
1355.065167179679,1355.065167179679,0.9996114924560763,0.0006265714288915317
1355.0721117807457,1355.0721117807457,0.9993358764269182,0.0006265838796116566
1355.0790563815324,1355.0790563815324,1.0009272010289696,0.0006269586446309821
1355.086000982319,1355.086000982319,0.999320188349669,0.0006266691934190924
1355.09294558292,1355.09294558292,0.999418790561263,0.0006266410173777763
1355.0998901834278,1355.0998901834278,1.0001519964116088,0.0006269651597009284
1355.106834783935,1355.106834783935,0.9998516026598839,0.0006268700481163925
1355.1137793843498,1355.1137793843498,1.0002114252649492,0.0006269553136424082
1355.1207239845778,1355.1207239845778,1.0007814741595595,0.0006270161505983796
1355.1276685847129,1355.1276685847129,0.9996129751422164,0.000626959600391004
1355.1346131848484,1355.1346131848484,1.0000711558933078,0.0006269628937277122
1355.1415577847968,1355.1415577847968,0.9999791197205692,0.0006269980136891084
1355.1485023846528,1355.1485023846528,1.0004696839463856,0.0006270575131679656
1355.1554469846017,1355.1554469846017,0.9998194649969439,0.0006269189300777176
1355.1623915842706,1355.1623915842706,1.0002742962788818,0.0006271000815607794
1355.1693361838472,1355.1693361838472,1.0001901143541483,0.0006269245559348005
1355.1762807835166,1355.1762807835166,0.9998879041487218,0.000626950462705082
1355.1832253829068,1355.1832253829068,0.9998472559189333,0.0006270426223896721
1355.190169982297,1355.190169982297,0.9995950853005219,0.0006269249350983721
1355.1971145815935,1355.1971145815935,1.000004310424367,0.0006268251815328312
1355.2040591807975,1355.2040591807975,0.9994780607544238,0.0006267178125620573
1355.2110037798147,1355.2110037798147,1.0005444800388887,0.0006268928531508114
1355.2179483789255,1355.2179483789255,0.9988878591837314,0.0006266442709869661
1355.2248929776638,1355.2248929776638,1.0007592128955778,0.000626938359547552
1355.2318375766808,1355.2318375766808,1.0006730455473254,0.0006269640187982784
1355.2387821756054,1355.2387821756054,0.9994438543585897,0.0006267359675066379
1355.2457267738778,1355.2457267738778,1.0001476514339143,0.0006268826557534584
1355.2526713726159,1355.2526713726159,1.000028893513585,0.0006267409103942068
1355.259615971075,1355.259615971075,1.0002858849609102,0.0006269054060685818
1355.2665605695333,1355.2665605695333,0.9993504167871953,0.0006267099880419637
1355.2735051678058,1355.2735051678058,0.9990281028276335,0.0006267121918642442
1355.280449765985,1355.280449765985,1.0011918237407813,0.0006270123044098063
1355.2873943641644,1355.2873943641644,0.9991093167284003,0.0006265752965701754
1355.2943389622508,1355.2943389622508,1.0009574250947129,0.0006268333997581125
1355.3012835602435,1355.3012835602435,0.9998023368889877,0.0006267268121036833
1355.30822815805,1355.30822815805,0.9999520988773805,0.0006268884260740004
1355.3151727558572,1355.3151727558572,1.0008504551239334,0.0006268541578945636
1355.3221173535708,1355.3221173535708,0.999942387715272,0.0006266544871731357
1355.3290619511913,1355.3290619511913,1.0005632775507012,0.0006268078227671236
1355.3365621165246,1355.3365621165246,0.9996861796940942,0.000626577683165428
1355.344340065621,1355.344340065621,1.0002042558931532,0.00062675221198894
1355.3512846630556,1355.3512846630556,0.9992473680075253,0.0006265863789875336
1355.3582292602102,1355.3582292602102,0.9995573450700919,0.0006265907078597468
1355.3651738574583,1355.3651738574583,1.0002714679787377,0.0006266943658672435
1355.3721184545198,1355.3721184545198,1.0002364026556538,0.0006266015893598671
1355.3790630515816,1355.3790630515816,1.001054937381697,0.0006268302920354753
1355.3860076485503,1355.3860076485503,0.9994086145033891,0.0006265469272092618
1355.3929522453327,1355.3929522453327,1.0001965738496121,0.0006267338741625351
1355.4007301936845,1355.4007301936845,0.9998273277223884,0.0006265485810302007
1355.408230358179,1355.408230358179,0.9999342037647049,0.0006266531953762378
1355.4151749546822,1355.4151749546822,1.0003258794173209,0.0006267139382340938
1355.422119551092,1355.422119551092,0.9995200607887442,0.0006264867505982231
1355.4290641475015,1355.4290641475015,0.9997764350573387,0.0006265253067343376
1355.4360087439115,1355.4360087439115,0.9994363113345417,0.0006264320570889251
1355.4429533403213,1355.4429533403213,0.999975694830173,0.0006266368183391074
1355.4498979362654,1355.4498979362654,1.0005493886775425,0.0006267711885189759
1355.4568425323962,1355.4568425323962,0.9998891350662518,0.0006266003871045156
1355.4637871284333,1355.4637871284333,1.001294396666738,0.00062698719138838
1355.4707317243774,1355.4707317243774,1.0002525185351008,0.0006268148735461836
1355.4776763202285,1355.4776763202285,0.9998905213421567,0.0006266689197586227
1355.4846209159864,1355.4846209159864,0.9991423907282702,0.0006265085706988443
1355.491565511651,1355.491565511651,0.9993118254186586,0.0006265832446877532
1355.4985101072227,1355.4985101072227,1.0002125862340556,0.0006267561061619855
1355.505454702701,1355.505454702701,1.0000214613068268,0.0006266091239478285
1355.5123992981794,1355.5123992981794,0.9992925287620565,0.0006264816288633403
1355.5193438934716,1355.5193438934716,1.000031629158042,0.0006267422173277604
1355.5262884887638,1355.5262884887638,1.0007489469958997,0.0006266814707613584
1355.5332330839628,1355.5332330839628,1.0005920985613268,0.0006267639578176186
1355.540177679069,1355.540177679069,1.0000188181503367,0.0006266239501299531
1355.5471222740814,1355.5471222740814,0.9995477263606668,0.000626510996465304
1355.5540668690944,1355.5540668690944,0.9995943729081451,0.0006263905212649464
1355.561011463921,1355.561011463921,1.0005312150484367,0.0006268001727659501
1355.5679560587475,1355.5679560587475,1.0005893626145088,0.0006267730014280976
1355.574900653388,1355.574900653388,1.0001877462075637,0.0006266695685886268
1355.5818452480285,1355.5818452480285,0.9992798382303937,0.0006265639479018546
1355.5887898425754,1355.5887898425754,0.9999040817119822,0.0006268137633427845
1355.5957344371225,1355.5957344371225,0.9996962188897497,0.0006266810123517765
1355.6026790314834,1355.6026790314834,0.9998573492487491,0.0006266317375494621
1355.6096236257513,1355.6096236257513,1.000008784928253,0.0006266219924326845
1355.6165682199257,1355.6165682199257,0.9996541113812849,0.0006265206995920915
1355.6235128143794,1355.6235128143794,1.0009628185896713,0.0006267967131660987
1355.630457408461,1355.630457408461,1.0008985261054835,0.0006269075504563049
1355.6374020020771,1355.6374020020771,0.9998091619338348,0.0006265438029496585
1355.6443465961586,1355.6443465961586,1.000651488319208,0.0006267139306089206
1355.651291190054,1355.651291190054,0.9996251557848629,0.000626615218274671
1355.658235783856,1355.658235783856,0.9999469285331648,0.0006266936363302464
1355.6651803774716,1355.6651803774716,1.000682176826577,0.0006266715248418886
1355.6721249710877,1355.6721249710877,0.9988896825674523,0.0006264754560859054
1355.67906956461,1355.67906956461,0.9997002767554211,0.0006265514014566975
1355.6860141580398,1355.6860141580398,1.0000358591001723,0.0006266934802219736
1355.6929587514694,1355.6929587514694,0.9997770749182514,0.000626518629410575
1355.699903344806,1355.699903344806,0.9995084978126012,0.0006265912286346694
1355.7068479379561,1355.7068479379561,1.0008929354685723,0.0006267636266239742
1355.7137925311063,1355.7137925311063,0.9999643440910775,0.000626558545640327
1355.7207371241634,1355.7207371241634,1.0008233975937468,0.000626776292205522
1355.7276817171273,1355.7276817171273,0.9998223933248424,0.000626530851362853
1355.734626309998,1355.734626309998,0.9998467651450713,0.0006264453225135328
1355.7415709029617,1355.7415709029617,1.000236195512238,0.0006264456919317378
1355.749626630513,1355.749626630513,1.0004276322166266,0.0006265584189644125
1355.7568490069611,1355.7568490069611,0.9990440710973847,0.0006264341987695895
1355.7637935994594,1355.7637935994594,0.9993238632040571,0.0006262871172458543
1355.7707381919577,1355.7707381919577,0.9998200573469637,0.0006264677475571705
1355.7776827845487,1355.7776827845487,1.0007265737232875,0.0006266249438974718
1355.7846273768607,1355.7846273768607,1.0001630842127023,0.0006264993150435333
1355.7915719691728,1355.7915719691728,1.0004426614252775,0.0006265970838142817
1355.7985165613918,1355.7985165613918,0.9995010970059843,0.0006264858413243486
1355.8054611535174,1355.8054611535174,1.0007208596265904,0.0006268930214699397
1355.8124057454565,1355.8124057454565,0.9998602111260686,0.0006267311384923628
1355.8193503376758,1355.8193503376758,0.998925409802942,0.0006264754093414358
1355.826294929429,1355.826294929429,1.0003890525056316,0.0006267430843814982
1355.8332395211823,1355.8332395211823,1.0005248282006882,0.0006268739917923859
1355.8401841129355,1355.8401841129355,0.9999920633108811,0.000626881153894033
1355.8471287046882,1355.8471287046882,0.9998258752813177,0.0006267185917596292
1355.8540732964418,1355.8540732964418,0.9992396056369879,0.0006267681016996766
1355.8610178879155,1355.8610178879155,1.0007105362794166,0.0006269944449556623
1355.8679624794822,1355.8679624794822,0.9999884900595433,0.0006267896134426322
1355.8749070707702,1355.8749070707702,0.9996573484561952,0.0006267761234583133
1355.881851662058,1355.881851662058,0.9993333883696478,0.0006265506617500847
1355.8887962533452,1355.8887962533452,1.0008392939671507,0.0006268324544415618
