time,time,flux,flux_err
1683.3555175999263,1683.3555175999263,1.0004446734973007,0.0009237547691536658
1683.3638507648623,1683.3638507648623,1.0001112752754864,0.0009230463383030601
1683.3721839297993,1683.3721839297993,0.9996283083944397,0.000922281112559721
1683.3805170948333,1683.3805170948333,0.9994720198129997,0.0009243053345919598
1683.3881558294938,1683.3881558294938,0.9997421296003125,0.0008437908631313245
1683.3951001337707,1683.3951001337707,1.0000122107794382,0.0008433404325582153
1683.4020444380244,1683.4020444380244,1.0005974788183838,0.0008425052760992485
1683.4089887423713,1683.4089887423713,1.0001687041141145,0.0008421332598426366
1683.4159330467178,1683.4159330467178,0.9997852965297765,0.0008446050485988573
1683.4228773510877,1683.4228773510877,1.0000393335738127,0.0008427353912365407
1683.4298216555276,1683.4298216555276,1.000270324597854,0.0008427131625044487
1683.4367659599673,1683.4367659599673,1.0000227201398781,0.0008435051540654903
1683.4437102644538,1683.4437102644538,0.9996865556160224,0.0008451386704552265
1683.4506545689633,1683.4506545689633,1.0001604549124727,0.0008435578407314775
1683.4575988734964,1683.4575988734964,0.9994468575901685,0.000843364892880406
1683.4645431780755,1683.4645431780755,1.0001868732626564,0.000843821353886175
1683.4714874827018,1683.4714874827018,1.0004362372122937,0.0008420438183144979
1683.4784317872814,1683.4784317872814,1.0000194926519934,0.0008435895769521832
1683.4853760919766,1683.4853760919766,0.9993460376221794,0.0008433843789131399
1683.492320396673,1683.492320396673,0.9998964387896049,0.0008439750743979371
1683.4992647014155,1683.4992647014155,1.000348474729753,0.0008427252396552623
1683.5062090061815,1683.5062090061815,0.9999108363444724,0.0008438135901977787
1683.5131533109936,1683.5131533109936,1.0005072477556847,0.0008424904874466656
1683.520097615829,1683.520097615829,1.0000531875212872,0.0008439302481798068
1683.5270419206881,1683.5270419206881,0.9999618966751154,0.0008433701776626142
1683.5339862255937,1683.5339862255937,0.9992152310595998,0.0008423360221297222
1683.540930530522,1683.540930530522,1.0000695936904207,0.0008424372082479154
1683.548152607685,1683.548152607685,1.0001653127266823,0.0008432275402669024
1683.5562080014818,1683.5562080014818,0.999580054483423,0.0008444380689169023
1683.5656522563575,1683.5656522563575,1.0005511791436663,0.000842636111759681
1683.5742631946691,1683.5742631946691,1.0003076807164095,0.0008431636929949129
1683.581763044183,1683.581763044183,1.000386983148776,0.0008440958915301837
1683.5895406659783,1683.5895406659783,1.0001208027049415,0.0008429247406328083
1683.596484971186,1683.596484971186,0.999518710807951,0.0008415220938910572
1683.6034292763943,1683.6034292763943,0.9999186060450033,0.0008438344832044312
1683.613151303737,1683.613151303737,0.9997139416197853,0.0008431165847854882
1683.6200956091313,1683.6200956091313,0.9998493494197833,0.0008431203666192241
1683.6270399144328,1683.6270399144328,0.9996635473219768,0.0008443389407969685
1683.6345397642726,1683.6345397642726,1.0007044924626625,0.0008440063060192375
1683.6423173863234,1683.6423173863234,1.0000677763421635,0.0008441512465179929
1683.6492616917647,1683.6492616917647,0.9993341394033551,0.0008434688228237171
1683.6562059972523,1683.6562059972523,1.0011201373022913,0.000844773454264831
1683.6631503027631,1683.6631503027631,0.9998365090384815,0.0008438227967763938
1683.6700946083201,1683.6700946083201,0.9998133051300346,0.0008431650110097888
1683.6770389139242,1683.6770389139242,0.9994821617242791,0.0008428747747081541
1683.6839832195517,1683.6839832195517,0.9996277585814317,0.0008429186805689138
1683.690927525202,1683.690927525202,0.9995077759024891,0.0008451767438482673
1683.6978718308758,1683.6978718308758,1.0012063614132987,0.0008430655738611275
1683.7048161366197,1683.7048161366197,1.0001786732898903,0.0008434393568855482
1683.7117604423863,1683.7117604423863,1.0002248038551955,0.0008428596450117534
1683.7187047481536,1683.7187047481536,1.000261259541834,0.0008432323826963409
1683.725649054013,1683.725649054013,0.9995576968200117,0.0008436445865229051
1683.7325933598731,1683.7325933598731,1.0005079937657182,0.0008426015163302561
1683.7395376657332,1683.7395376657332,0.9987883792053074,0.0008433568885444869
1683.7464819716872,1683.7464819716872,0.9991217035626649,0.0008429326776438978
1683.75342627764,1683.75342627764,1.000114077155562,0.0008439079364458508
1683.7603705836398,1683.7603705836398,1.000223974517672,0.0008438217424606978
1683.7673148896858,1683.7673148896858,1.0011066987824992,0.00084441546998534
1683.7742591957326,1683.7742591957326,1.0001607927696656,0.0008421905719335864
1683.7812035018483,1683.7812035018483,1.0002734720525304,0.0008428397695125241
1683.7881478079412,1683.7881478079412,1.0004239018506893,0.0008435841185307623
1683.7950921141505,1683.7950921141505,0.9993181448788058,0.0008433160944019509
1683.8020364203367,1683.8020364203367,0.9999900939104436,0.0008427329523757393
1683.8089807265928,1683.8089807265928,0.9996095432316953,0.0008419602276618837
1683.8159250328486,1683.8159250328486,0.9995108024476714,0.0008431732552423738
1683.8228693391743,1683.8228693391743,1.0000907287261782,0.0008438344720581158
1683.8298136455232,1683.8298136455232,1.000079840704138,0.0008444788447757387
1683.836757951849,1683.836757951849,0.9999171302495784,0.0008426306759385287
1683.8437022582912,1683.8437022582912,1.0006668700182577,0.0008433282704313298
1683.8506465647333,1683.8506465647333,0.9998900540339211,0.0008450471549063879
1683.8575908711987,1683.8575908711987,1.0001226870653237,0.0008425946055391698
1683.8645351777345,1683.8645351777345,1.000094145844396,0.0008446152037054119
1683.8714794842695,1683.8714794842695,1.0007232470010965,0.0008438872413990068
1683.8784237908742,1683.8784237908742,0.9994312409731766,0.0008440977614384264
1683.8853680974796,1683.8853680974796,0.9998866939690141,0.0008441294460637733
1683.897034532675,1683.897034532675,1.0000075826455161,0.0008422409617928703
1683.9048121561696,1683.9048121561696,0.9998624780999311,0.0008431644147327173
1683.9117564629141,1683.9117564629141,1.0001343284923374,0.0008437251436246484
1683.9187007697055,1683.9187007697055,1.0006129406203172,0.0008441613705849197
1683.9256450765206,1683.9256450765206,0.9997709401933432,0.0008429609720317742
1683.9325893833816,1683.9325893833816,1.000413660193899,0.0008424990788496562
1683.939533690266,1683.939533690266,1.0001334070734589,0.0008447041116169523
1683.9464779971972,1683.9464779971972,0.9998978357713394,0.0008449700952350208
1683.953422304152,1683.953422304152,0.9992459944785539,0.0008435020779627761
1683.9603666111761,1683.9603666111761,1.0002400747353055,0.000845261237920163
1683.9673109182,1683.9673109182,1.000282665337004,0.0008423249468806754
1683.9742552252242,1683.9742552252242,1.0001406461470814,0.0008430605355480795
1683.9811995322955,1683.9811995322955,0.9999644245714439,0.0008425586413846689
1683.9881438394357,1683.9881438394357,1.0000757004623764,0.0008438073222584652
1683.9950881465993,1683.9950881465993,0.9996454148449786,0.0008429997993646352
1684.0020324537868,1684.0020324537868,0.9990812251567492,0.0008453649404284497
1684.0089767610207,1684.0089767610207,1.0008621163238232,0.0008435543205735816
1684.0159210682782,1684.0159210682782,0.999733332489656,0.0008435938364430827
1684.0228653755814,1684.0228653755814,1.000994430140659,0.0008435026013194168
1684.0298096829083,1684.0298096829083,0.9992019337005702,0.0008426202491133064
1684.0367539902818,1684.0367539902818,1.0005840901138021,0.0008445323219728989
1684.0436982976785,1684.0436982976785,1.0001587076251484,0.0008446212112567115
1684.0520314666198,1684.0520314666198,0.9996492303986214,0.0008433496512783535
1684.058975774086,1684.058975774086,0.9999795875581432,0.0008442634330216075
1684.0659200815994,1684.0659200815994,0.9987419273499667,0.0008430264271966252
1684.0728643891593,1684.0728643891593,0.9998835060440834,0.0008438023347933307
1684.0798086967654,1684.0798086967654,1.000594908854222,0.000842906365707078
1684.0867530043718,1684.0867530043718,1.0002189108652961,0.000843763965290013
1684.0936973119776,1684.0936973119776,0.9998501381385798,0.0008436316817641709
1684.100641619701,1684.100641619701,1.0017062902896863,0.0008429530860669347
1684.1075859274001,1684.1075859274001,0.9997301360933866,0.0008426219658429766
1684.1145302351695,1684.1145302351695,0.9996944664389424,0.000842260336820276
1684.1214745429388,1684.1214745429388,0.9999163586305693,0.0008442593937393291
1684.1284188507548,1684.1284188507548,0.9996429648771377,0.0008431579035557447
1684.1353631586403,1684.1353631586403,0.9992224031994394,0.00084366072494628
1684.142307466526,1684.142307466526,0.9998795846494563,0.0008431062028615235
1684.149251774435,1684.149251774435,1.0004166280167923,0.0008445084527062103
1684.1561960823906,1684.1561960823906,1.000085903463984,0.0008435899798189073
1684.1631403903932,1684.1631403903932,0.9997939216722284,0.0008437595775336361
1684.1700846984181,1684.1700846984181,1.0003412388127875,0.0008432084372955115
1684.1770290064899,1684.1770290064899,1.000355585381951,0.0008446657494409439
1684.1839733145855,1684.1839733145855,1.0005457497129737,0.0008441912778448229
1684.190917622704,1684.190917622704,0.999574017415657,0.0008452310178600029
1684.1978619308459,1684.1978619308459,0.9994915867401719,0.0008435422082242285
1684.2048062390343,1684.2048062390343,0.9996471455194891,0.0008429936309558281
1684.2117505473386,1684.2117505473386,1.0002031459364482,0.0008431055967197464
1684.218694855574,1684.218694855574,0.9998319937273376,0.000843757044734863
1684.225639163879,1684.225639163879,0.9995764467643136,0.000844578600022144
1684.2325834722064,1684.2325834722064,0.9996956884714917,0.0008448891314911799
1684.2395277806045,1684.2395277806045,1.0006846053129475,0.0008447300994731136
1684.2464720889795,1684.2464720889795,1.0005860886290874,0.0008434121977143186
1684.253416397424,1684.253416397424,1.00008628551224,0.0008454280498101582
1684.2603607059148,1684.2603607059148,0.9995269714575045,0.0008440500078843356
1684.2673050144053,1684.2673050144053,1.000420919655411,0.000843821624419905
1684.274249322944,1684.274249322944,0.999648882722273,0.0008459589730729347
1684.2811936315043,1684.2811936315043,0.9992358386506354,0.0008434067309259785
1684.2881379401351,1684.2881379401351,0.9999258605611961,0.0008442532747199886
1684.295082248766,1684.295082248766,1.000047012580117,0.0008442122652117199
1684.3020265574428,1684.3020265574428,0.9994890220343926,0.000844268730712577
1684.3089708661676,1684.3089708661676,1.0001078729475148,0.0008457901059943952
1684.3159151749376,1684.3159151749376,1.0000622242869768,0.0008444465993352357
1684.322859483708,1684.322859483708,1.000197057217291,0.0008451912278285841
1684.3298037924778,1684.3298037924778,1.000010470155458,0.0008454392938821371
1684.3367481013659,1684.3367481013659,0.9997939911291874,0.0008440447832804574
1684.343692410229,1684.343692410229,0.9990916868104222,0.0008440209482657581
1684.3506367191621,1684.3506367191621,1.0005750627297147,0.0008464343628708422
1684.3575810280956,1684.3575810280956,0.9997391691030447,0.000845073535663402
1684.364525337076,1684.364525337076,1.0004687669993872,0.0008445909512825327
1684.3714696461261,1684.3714696461261,1.0005145172518224,0.0008451880803170353
1684.3784139551753,1684.3784139551753,0.9998627781068723,0.0008455022772318324
1684.3853582642485,1684.3853582642485,1.0005616115576508,0.0008449415933135777
1684.3923025733682,1684.3923025733682,1.0003383374886792,0.0008456673053555309
1684.3992468825115,1684.3992468825115,0.9998484523044485,0.000844878550758117
1684.4061911917008,1684.4061911917008,0.9996097338796395,0.0008458121127708039
1684.413135500937,1684.413135500937,0.9988350284143367,0.0008442741313898489
1684.4200798101963,1684.4200798101963,0.9997191717474552,0.0008446883564266396
1684.4270241194558,1684.4270241194558,1.0001955136842409,0.0008446440583418884
1684.433968428808,1684.433968428808,0.9998492737976395,0.0008456824686515074
1684.440912738161,1684.440912738161,1.0003075924942118,0.0008448863006054559
1684.4478570475135,1684.4478570475135,0.9997380513879511,0.0008455175718052254
1684.4548013569824,1684.4548013569824,1.0011692915878594,0.0008453329040868284
1684.461745666428,1684.461745666428,1.0001150001252619,0.0008445929566994536
1684.4686899759204,1684.4686899759204,1.0001232939811848,0.000846730998770406
1684.4756342854591,1684.4756342854591,1.0002333925058873,0.0008452283396839731
1684.4825785950209,1684.4825785950209,0.9993354814789737,0.0008453661700375094
1684.4895229046065,1684.4895229046065,0.9999986111929529,0.0008480248681339344
1684.4964672142382,1684.4964672142382,0.9991045395847615,0.0008477100919728583
1684.5034115238936,1684.5034115238936,1.0003881289786403,0.0008473048811584118
1684.5103558335954,1684.5103558335954,0.9999454248230719,0.0008491528697995053
1684.5173001433207,1684.5173001433207,1.0001735489308485,0.000845870419950393
1684.5242444530918,1684.5242444530918,1.0002935166388045,0.0008459275275732108
1684.5311887628873,1684.5311887628873,0.9996708429380302,0.0008464650882530793
1684.538133072705,1684.538133072705,1.0002372657527274,0.000845395473443885
1684.54507738257,1684.54507738257,0.9990110950839632,0.0008462192804148247
1684.5520216924579,1684.5520216924579,1.0012539204760664,0.0008479901184166874
1684.5589660023925,1684.5589660023925,0.9995520590958513,0.0008472850834886469
1684.5659103123508,1684.5659103123508,1.0004304952764769,0.0008467679749813684
1684.5728546223781,1684.5728546223781,1.0006098124075298,0.0008468238912598165
1684.579798932406,1684.579798932406,1.0000035016214441,0.0008472646676695218
1684.586743242457,1684.586743242457,0.999156144976503,0.0008484395342532701
1684.593687552578,1684.593687552578,1.000096198268715,0.0008474898570668222
1684.6006318626987,1684.6006318626987,0.9997280477194306,0.0008469540250751895
1684.6075761728662,1684.6075761728662,1.0000031167908965,0.0008462983334348235
1684.6145204830568,1684.6145204830568,0.9994407564375752,0.000845850600016698
1684.6214647932945,1684.6214647932945,1.000234014512958,0.0008494932163830932
1684.6284091035782,1684.6284091035782,1.0002721997702166,0.0008480387661706564
1684.6353534138616,1684.6353534138616,1.0003590507468414,0.0008473617886462691
1684.6422977242157,1684.6422977242157,1.0001492392403746,0.0008466798271156975
1684.6492420345694,1684.6492420345694,1.0002834686248763,0.0008485098145794182
1684.6561863449697,1684.6561863449697,0.999320847541681,0.0008485875192652901
1684.663130655393,1684.663130655393,1.0003979779732193,0.0008481392103080523
1684.6700749658867,1684.6700749658867,0.9989207120061726,0.0008479391701563255
1684.6770192764038,1684.6770192764038,1.0007854911409453,0.0008475466467448501
1684.68396358692,1684.68396358692,1.0000442107463663,0.0008471166142334832
1684.6909078974597,1684.6909078974597,1.0004270399587358,0.0008491911091100318
1684.6978522080694,1684.6978522080694,0.9997596888280107,0.0008494366430084674
1684.7047965187262,1684.7047965187262,0.999301096089863,0.0008475380281675599
1684.7117408293823,1684.7117408293823,1.0003744989706242,0.0008483844915933668
1684.7186851400852,1684.7186851400852,1.000646212543494,0.0008475771187340823
1684.725629450812,1684.725629450812,0.999223444488708,0.0008491176409654735
1684.732573761608,1684.732573761608,1.0007838922590366,0.0008491774018571429
1684.7395180724275,1684.7395180724275,0.9997885012823027,0.0008480765662347426
1684.7464623832232,1684.7464623832232,0.9993334478178483,0.0008476003611652538
1684.7534066941123,1684.7534066941123,0.9995708331499309,0.000849252485090363
1684.760351005002,1684.760351005002,1.0004022782183641,0.0008475921283278181
1684.7672953159374,1684.7672953159374,0.9999606883656631,0.0008472737568382878
1684.7742396269198,1684.7742396269198,1.0005963716724682,0.0008475169593058027
1684.7811839379017,1684.7811839379017,1.000486650729995,0.0008487072875120862
1684.788128248978,1684.788128248978,0.9995607405507687,0.0008483620199158928
1684.7950725599835,1684.7950725599835,1.0001224729493254,0.0008472229252123195
1684.8020168711053,1684.8020168711053,1.0000871432453495,0.000847899558629529
1684.8089611822736,1684.8089611822736,1.000145894367661,0.0008481190888642925
1684.8159054934192,1684.8159054934192,0.9992194041399374,0.0008478610614452216
1684.8228498046115,1684.8228498046115,0.9994040221007697,0.0008474891336808443
1684.8297941158496,1684.8297941158496,0.9998664173071994,0.0008498433915172437
1684.8367384271346,1684.8367384271346,1.0008026468766296,0.000848012233231035
1684.8436827384198,1684.8436827384198,0.999853023831432,0.0008486160719966332
1684.850627049775,1684.850627049775,1.0002886321596482,0.0008477092329754488
1684.8575713611294,1684.8575713611294,1.0000284111606856,0.0008501271222359381
1684.8645156725543,1684.8645156725543,1.0001780176563544,0.0008496301103921029
1684.8714599839557,1684.8714599839557,0.9999796439142351,0.0008480949156470472
1684.8784042954271,1684.8784042954271,0.9999243575785594,0.0008483185058588914
1684.8853486069445,1684.8853486069445,0.9991970653987696,0.0008469153623706285
1684.8922929184628,1684.8922929184628,0.9997477225443443,0.0008468609723216085
1684.8992372300504,1684.8992372300504,1.0010262497626905,0.0008488219403706273
1684.9061815416148,1684.9061815416148,1.0005760645042712,0.0008498251883987476
1684.9131258532957,1684.9131258532957,0.9998642122774669,0.0008476989118060638
1684.9200701649766,1684.9200701649766,0.9996731910386407,0.0008490715330149907
1684.9270144766574,1684.9270144766574,0.9996771516461708,0.0008489214953790163
1684.9339587883383,1684.9339587883383,1.000192935323161,0.0008483982146807014
1684.9409031001355,1684.9409031001355,0.999558709608988,0.0008478986309957686
1684.9478474119096,1684.9478474119096,0.9994907661127655,0.0008476845244320917
1684.9547917237535,1684.9547917237535,1.0004810352566973,0.0008480043723401878
1684.9617360355974,1684.9617360355974,1.0000235612463975,0.0008474057794567268
1684.9686803475106,1684.9686803475106,1.0007071188573764,0.0008488869318061407
1684.9756246594475,1684.9756246594475,1.0004473166264638,0.0008480708065484142
1684.9825689714082,1684.9825689714082,0.9992954212466654,0.0008503609907726247
1684.9895132833913,1684.9895132833913,0.9996803181291687,0.0008478182550111589
1684.9964575954214,1684.9964575954214,1.0008211350777212,0.0008472554629027796
1685.0034019074985,1685.0034019074985,0.9996585043651314,0.0008481173178859696
1685.0103462195752,1685.0103462195752,0.9999282280353015,0.0008490658385261968
1685.0172905317213,1685.0172905317213,0.9998403359629308,0.0008497256831430279
1685.0242348438678,1685.0242348438678,0.9997280588082246,0.0008492842468911784
1685.0311791560612,1685.0311791560612,0.9995841921820631,0.0008473372204944273
1685.0381234683239,1685.0381234683239,1.0000358263186215,0.0008471539028509299
1685.045067780587,1685.045067780587,1.00009818014532,0.0008483610564935769
1685.0520120928497,1685.0520120928497,0.9999877522094585,0.000846926188601709
1685.05895640516,1685.05895640516,1.0003069929598791,0.0008483041900684115
1685.0659007175157,1685.0659007175157,1.0006168974528393,0.0008467558789166232
1685.072845029918,1685.072845029918,0.9999191367175573,0.0008476995775135709
1685.07978934232,1685.07978934232,1.0001926606289318,0.0008478325782075262
1685.0867336547933,1685.0867336547933,0.9998046726284769,0.0008479645681052576
1685.0936779672888,1685.0936779672888,0.999716966260111,0.0008480351319901368
1685.100622279831,1685.100622279831,1.0004316082826958,0.0008471651720662837
1685.1075665923734,1685.1075665923734,0.9996710979284715,0.0008480148714280752
1685.1145109049387,1685.1145109049387,0.9994645947854968,0.0008473944781706554
1685.1214552175747,1685.1214552175747,1.0004327131653898,0.0008477112303258673
1685.1283995302333,1685.1283995302333,1.0001484216322676,0.000848942603746177
1685.1353438428916,1685.1353438428916,0.9994256390989251,0.0008472365349228338
1685.1422881556205,1685.1422881556205,0.999841169861772,0.0008487094213237625
