time,time,flux,flux_err
1517.36385327778,1517.36385327778,1.0045204090164597,0.0007610105550137356
1517.3724646183873,1517.3724646183873,1.0019207450624,0.0007485900904560374
1517.3796870336214,1517.3796870336214,1.0010663458209357,0.0007387271033716219
1517.386631663977,1517.386631663977,1.0016528027199576,0.0007297700602231182
1517.393576294705,1517.393576294705,1.001953626483153,0.0007215320496869263
1517.4019098521094,1517.4019098521094,1.0024027053228448,0.000712193037224085
1517.4088544835358,1517.4088544835358,1.00060413518271,0.0007050116414264142
1517.4157991154284,1517.4157991154284,1.001257126370195,0.0006983673736201321
1517.4227437475993,1517.4227437475993,1.0008785755834384,0.00069252463011998
1517.4296883801435,1517.4296883801435,1.0008818104503565,0.0006867974173952088
1517.4366330130135,1517.4366330130135,0.9999805907984924,0.0006814556879444182
1517.4435776461628,1517.4435776461628,0.9998155412283193,0.0006770842572913244
1517.4505222797313,1517.4505222797313,0.999798677105931,0.0006721484910332719
1517.4574669134395,1517.4574669134395,0.9989462658872699,0.000668224178009965
1517.4644115475203,1517.4644115475203,0.999919734864599,0.0006647094359874611
1517.4713561818803,1517.4713561818803,1.000469907807115,0.0006605614109701161
1517.47830081652,1517.47830081652,1.0007506597925309,0.000657392001460472
1517.4852454515787,1517.4852454515787,1.0006760017493235,0.0006542000837246759
1517.4921900868237,1517.4921900868237,1.0009486896177926,0.0006508961865220773
1517.499134722301,1517.499134722301,1.0013430397281098,0.0006478682378024596
1517.5060793581051,1517.5060793581051,1.0003313286159692,0.0006449630224116874
1517.5130239941413,1517.5130239941413,1.0016674226861286,0.0006426186345184535
1517.5199686304109,1517.5199686304109,1.0001075872043343,0.0006395678272257518
1517.5269132669596,1517.5269132669596,1.0007339313812484,0.0006374145944222894
1517.533857903834,1517.533857903834,0.9997261854989873,0.0006347426084018742
1517.5408025409415,1517.5408025409415,1.000062857521792,0.0006326375929616207
1517.5477471781421,1517.5477471781421,0.9995729332000982,0.0006304551911913795
1517.5546918156692,1517.5546918156692,1.000316673728008,0.0006283353436652192
1517.5616364534285,1517.5616364534285,0.9993050516318813,0.0006262839764769033
1517.5685810913742,1517.5685810913742,1.0006310760347121,0.0006249617451236263
1517.575525729506,1517.575525729506,0.9996255725501866,0.0006223726540581823
1517.582470368011,1517.582470368011,1.0004597992758704,0.0006208312181837992
1517.5894150066083,1517.5894150066083,0.9988159668610009,0.0006189675763505723
1517.5963596454387,1517.5963596454387,1.0010023408348803,0.0006175704194101526
1517.6033042845024,1517.6033042845024,0.9998309147770355,0.0006161536631673672
1517.6102489237048,1517.6102489237048,0.9995505382476816,0.0006147406791807352
1517.6171935630946,1517.6171935630946,1.0003140695360937,0.0006135926862935153
1517.62413820281,1517.62413820281,1.0002756245420212,0.0006121781851845742
1517.631082842618,1517.631082842618,1.0004276611977612,0.0006113383714196955
1517.6380274826126,1517.6380274826126,1.0006623982026595,0.0006102950046605537
1517.6449721227934,1517.6449721227934,0.9999202874870381,0.0006090292895294144
1517.6519167631143,1517.6519167631143,0.9986293035098044,0.000607329402006762
1517.6588614036677,1517.6588614036677,0.9998569091457152,0.0006064768084947118
1517.665806044314,1517.665806044314,1.0005103639040054,0.0006051984179757798
1517.6727506851935,1517.6727506851935,0.9995583910302992,0.0006040042528376742
1517.6796953262126,1517.6796953262126,0.9997243849787392,0.00060268644652654
1517.6866399674177,1517.6866399674177,1.000007314731961,0.0006015772036613441
1517.693584608763,1517.693584608763,1.000868246504441,0.0006007139591878223
1517.700529250294,1517.700529250294,0.9997912267514831,0.0005989849566323171
1517.7074738918254,1517.7074738918254,0.9999189002794978,0.0005980774864606322
1517.7144185336826,1517.7144185336826,0.9998687091633505,0.0005965998302876794
1517.721363175633,1517.721363175633,1.0002164076893096,0.0005955749587167158
1517.7283078177234,1517.7283078177234,1.0001061907136104,0.0005944185750126948
1517.7352524599532,1517.7352524599532,0.9999597351376497,0.0005933655186209778
1517.7421971023225,1517.7421971023225,1.0009991790234039,0.0005922880247829327
1517.7491417448316,1517.7491417448316,0.9998891866701666,0.000591216714412998
1517.7560863873875,1517.7560863873875,0.9994258358265518,0.0005903123537126536
1517.7630310301295,1517.7630310301295,0.9993637426201685,0.0005890186097726975
1517.769975673058,1517.769975673058,0.9992473540766469,0.0005878853409983138
1517.7769203159862,1517.7769203159862,1.0000573917653357,0.00058710715269215
1517.7838649591008,1517.7838649591008,1.0005209264242336,0.0005860048907125211
1517.790809602355,1517.790809602355,1.000449999350367,0.0005853577043369357
1517.7977542457024,1517.7977542457024,1.0002053526946386,0.0005843429432616375
1517.8046988891426,1517.8046988891426,1.000328869997634,0.000583280389803948
1517.8116435327233,1517.8116435327233,0.9996128520811544,0.0005829358748677642
1517.8185881763966,1517.8185881763966,1.0005130373812814,0.0005816237344996828
1517.825532820163,1517.825532820163,0.9998554394602326,0.0005808262461878576
1517.8324774640691,1517.8324774640691,0.9996584505152324,0.0005802388189713504
1517.839422108022,1517.839422108022,0.9996917619131942,0.0005796389304654477
1517.8463667520678,1517.8463667520678,1.000313086315804,0.0005790430303634019
1517.8533113963463,1517.8533113963463,0.9997276575233782,0.0005782906465781107
1517.8602560405786,1517.8602560405786,1.000164230149347,0.0005774562893977946
1517.8672006849504,1517.8672006849504,0.9997815220734474,0.0005770621184731357
1517.8741453294156,1517.8741453294156,0.9994711757570883,0.0005764007627211481
1517.8810899739267,1517.8810899739267,1.000525364209167,0.0005757308389954254
1517.8880346186245,1517.8880346186245,0.9998521313592679,0.0005751017951655102
1517.8949792633225,1517.8949792633225,1.0003885866338842,0.000574725824077115
1517.9019239081135,1517.9019239081135,1.0000129089529293,0.000574336471417214
1517.9088685529975,1517.9088685529975,1.0005097736639608,0.0005740057389602803
1517.9158131979748,1517.9158131979748,0.9999291802210808,0.0005731959872020324
1517.9227578429986,1517.9227578429986,0.9993441320226844,0.0005729545744164057
1517.929702488115,1517.929702488115,1.0000507380040802,0.0005725998819803786
1517.936647133372,1517.936647133372,0.9999424613860833,0.0005723968765243435
1517.9447029218695,1517.9447029218695,0.9993271986559996,0.0005724320142549936
1517.9519253529365,1517.9519253529365,1.000117867986607,0.0005714368388566582
1517.9588699984258,1517.9588699984258,1.000552273984877,0.000571052910452687
1517.9658146438687,1517.9658146438687,1.000472966986734,0.0005710002900700652
1517.9727592894512,1517.9727592894512,0.9998914640144779,0.0005707513577108591
1517.9797039350337,1517.9797039350337,1.0005339856424704,0.0005700474613105997
1517.986648580756,1517.986648580756,0.999972834327415,0.0005697478166645954
1517.9935932265253,1517.9935932265253,0.9996435371755397,0.0005696223398875841
1518.0005378723401,1518.0005378723401,1.0002156665105622,0.0005691374348569075
1518.0074825182023,1518.0074825182023,0.998966480535473,0.000568692204544277
1518.0144271640643,1518.0144271640643,1.0000592554741972,0.0005688436593641155
1518.0213718100656,1518.0213718100656,0.9996269444771156,0.000568762967792047
1518.0283164560676,1518.0283164560676,1.0005048700619825,0.0005684743583142248
1518.0352611021622,1518.0352611021622,1.0004472488454819,0.0005678432297018732
1518.0422057483036,1518.0422057483036,1.0000690441611453,0.0005677653862533662
1518.0491503944916,1518.0491503944916,0.9996109011765485,0.00056724979477938
1518.0560950406798,1518.0560950406798,1.0002050379171696,0.0005670167841877627
1518.0630396870533,1518.0630396870533,1.000628729841705,0.0005664810844707266
1518.0699843332418,1518.0699843332418,0.9995077662860437,0.000566515199360064
1518.0769289796622,1518.0769289796622,0.9993844701389836,0.0005665399262933822
1518.083873626083,1518.083873626083,0.9999114837420111,0.000566261676082582
1518.0908182725038,1518.0908182725038,1.0001868660790536,0.0005661391448557253
1518.0977629191573,1518.0977629191573,1.000290694785902,0.0005654833774547876
1518.104707565578,1518.104707565578,1.0005449741855117,0.0005650664811292927
1518.1116522122315,1518.1116522122315,1.0000035603831812,0.0005651057095874243
1518.1185968588386,1518.1185968588386,0.9994096846602547,0.0005646377054804605
1518.1255415054923,1518.1255415054923,0.9993060628391298,0.0005639220713983924
1518.132486152239,1518.132486152239,1.0007511674011498,0.0005642150991768342
1518.139430798939,1518.139430798939,1.0001591869205917,0.0005637379506893396
1518.1463754457322,1518.1463754457322,0.999695544809604,0.0005637150271113839
1518.1533200925255,1518.1533200925255,0.9998872426016714,0.0005629196546033191
1518.1602647393652,1518.1602647393652,0.9996589180103224,0.0005628110781675648
1518.1672093862053,1518.1672093862053,1.0013705260712158,0.000562800767661947
1518.174154033092,1518.174154033092,0.9991923090177977,0.0005621970316105579
1518.1810986800247,1518.1810986800247,1.0000958524204102,0.0005620570471017835
1518.1880433270042,1518.1880433270042,1.0001922281684774,0.0005620418179049655
1518.1949879739839,1518.1949879739839,0.9991206671772849,0.0005615799422062554
1518.2019326210095,1518.2019326210095,0.9996954768360512,0.000561486117807369
1518.2088772679895,1518.2088772679895,1.0001008261068103,0.0005614920949011059
1518.2158219151086,1518.2158219151086,0.9994637561509835,0.0005609025869831238
1518.2227665621813,1518.2227665621813,1.0011037562281202,0.0005611780219535757
1518.2297112093006,1518.2297112093006,1.0005044526812488,0.0005611484439586813
1518.2366558564197,1518.2366558564197,0.999482045348137,0.000560633195438723
1518.243600503632,1518.243600503632,0.9989560389252329,0.0005602011922066497
1518.2505451507513,1518.2505451507513,0.9994927014319559,0.0005606924461201144
1518.2574897979173,1518.2574897979173,1.0009069065085827,0.0005604805632181188
1518.264712231079,1518.264712231079,1.0002786345553654,0.0005604052388830407
1518.272768021859,1518.272768021859,1.000784450644844,0.0005602942955894215
1518.2797126691644,1518.2797126691644,1.0002132030082276,0.0005601807499062081
1518.2866573163767,1518.2866573163767,0.9995422138205619,0.000559675106795488
1518.2936019636822,1518.2936019636822,0.9998178318941882,0.0005598417398464704
1518.3005466110342,1518.3005466110342,0.9994690631850014,0.0005597989976787278
1518.3074912583397,1518.3074912583397,0.9998644583889537,0.000559301868883002
1518.3158248351158,1518.3158248351158,0.9996817894052651,0.0005596143948937655
1518.322769482514,1518.322769482514,1.000837180720991,0.0005594218764619617
1518.3297141298667,1518.3297141298667,0.9994000366659559,0.0005591064271922176
1518.3366587772184,1518.3366587772184,0.9997231035504812,0.0005588055177159637
1518.343603424617,1518.343603424617,1.000074088520067,0.0005590559900896608
1518.3505480720157,1518.3505480720157,1.000652416009921,0.0005590435730652402
1518.3574927194609,1518.3574927194609,1.0001141278324996,0.0005584495357082189
1518.3644373668594,1518.3644373668594,1.0004666530902306,0.0005586422124169467
1518.371382014258,1518.371382014258,0.9997097060007987,0.0005586216699645496
1518.3783266617495,1518.3783266617495,1.0003694773935952,0.0005582385316012169
1518.3852713091485,1518.3852713091485,0.9988327564502691,0.0005579426999640184
1518.3922159566403,1518.3922159566403,1.0007618012798465,0.0005580037424517453
1518.3991606040854,1518.3991606040854,1.0009779703867756,0.0005582646916903304
1518.4061052515772,1518.4061052515772,0.9995878859973903,0.0005576746851633311
1518.4138832567326,1518.4138832567326,0.9998968048689705,0.000557634007866475
1518.4213834759844,1518.4213834759844,0.9999581906628361,0.0005576167751456358
1518.4283281234766,1518.4283281234766,0.9998196880607946,0.0005576641970641962
1518.435272770968,1518.435272770968,0.9998256849819407,0.0005576705989463774
1518.442217418413,1518.442217418413,1.0008457928696906,0.0005572682031290322
1518.449162065998,1518.449162065998,1.0001815728929313,0.0005573980719149417
1518.4561067133968,1518.4561067133968,0.9988519984775264,0.0005566777352085984
1518.4644402904523,1518.4644402904523,0.9994173077071672,0.000556760220085781
1518.4713849379436,1518.4713849379436,1.0011533521510738,0.000556781662853688
1518.4783295853892,1518.4783295853892,1.0001117365712588,0.0005565202504230529
1518.485274232974,1518.485274232974,0.9996408236513904,0.0005566078828282246
1518.4922188803262,1518.4922188803262,0.9998641215569635,0.0005567868400898226
1518.4991635279107,1518.4991635279107,1.0000945782208157,0.0005568597114057254
1518.5061081754025,1518.5061081754025,0.9994651214619704,0.0005567741207484734
1518.5130528228478,1518.5130528228478,1.0008045882100072,0.0005567913050683454
1518.5199974704324,1518.5199974704324,0.9991900631912995,0.0005565252012484336
1518.5269421177848,1518.5269421177848,0.9997212134368058,0.0005568710282799613
1518.5338867653695,1518.5338867653695,1.000409946994676,0.0005567583853546328
1518.540831412768,1518.540831412768,1.000586810880672,0.0005568383300734795
1518.5477760603067,1518.5477760603067,0.9994382831630417,0.0005566842013759149
1518.554720707752,1518.554720707752,0.9999644129768563,0.0005564096973921659
1518.5616653552438,1518.5616653552438,0.9997650886431533,0.0005565250426506898
1518.5686100026421,1518.5686100026421,1.0003511909050495,0.0005570374113423204
1518.5755546501805,1518.5755546501805,1.0003265626200946,0.0005565191293643117
1518.5824992975326,1518.5824992975326,0.9995231760999552,0.0005561175231073825
1518.5894439450246,1518.5894439450246,1.0000441286578996,0.0005565370502307653
1518.5963885924693,1518.5963885924693,0.9997356938826639,0.0005563239864274842
1518.6033332398215,1518.6033332398215,1.0010582281633797,0.0005566659065691562
1518.6102778872669,1518.6102778872669,0.9996519314571346,0.0005564384931145481
1518.6172225347116,1518.6172225347116,1.0004480415410517,0.0005565573176825535
1518.6241671821103,1518.6241671821103,1.0011172079017105,0.0005571356201706116
1518.6311118294627,1518.6311118294627,0.9998604616368247,0.0005563859389687536
1518.6380564768613,1518.6380564768613,0.9998038123977352,0.0005565164856126115
1518.6450011242134,1518.6450011242134,1.0003316560955031,0.0005564312036279904
1518.6519457715654,1518.6519457715654,0.9993142932433827,0.0005565330978062106
1518.6588904189173,1518.6588904189173,0.9998172223284371,0.0005565215778529803
1518.6658350662697,1518.6658350662697,0.9999289755342675,0.0005565013410651476
1518.6727797136216,1518.6727797136216,1.0001806911202318,0.0005568861594008854
1518.6797243608803,1518.6797243608803,1.0001139436468514,0.0005565810871018406
1518.6866690081856,1518.6866690081856,0.9995062168997888,0.0005562890621024589
1518.6936136554912,1518.6936136554912,1.0008675172451518,0.0005564857380910825
1518.7005583027972,1518.7005583027972,1.000321423563504,0.0005565031959521981
1518.7075029500554,1518.7075029500554,1.000275967816664,0.0005566571429811911
1518.7144475973146,1518.7144475973146,0.9999374594254279,0.0005562040700632829
1518.721392244527,1518.721392244527,0.9988946300496387,0.0005560096380561321
1518.7283368917858,1518.7283368917858,1.0003614373293814,0.0005569249596493497
1518.7352815389518,1518.7352815389518,1.0006498795777385,0.0005564531108585767
1518.742226186164,1518.742226186164,0.9992931391108041,0.000556356182763253
1518.7491708333764,1518.7491708333764,0.9997005260170384,0.0005563328395275628
1518.7561154805421,1518.7561154805421,0.9997842334181147,0.0005564848017150279
1518.763060127662,1518.763060127662,0.9997460273188296,0.000556204328938071
1518.7700047748272,1518.7700047748272,1.001157365847722,0.0005570188431605043
1518.776949421947,1518.776949421947,1.0006594012613763,0.0005562082683085901
1518.7838940690658,1518.7838940690658,1.0001374135238363,0.000556660537241296
1518.790838716138,1518.790838716138,1.0001260599625976,0.0005562410163513866
1518.7977833631644,1518.7977833631644,0.999664036067353,0.000556220442447291
1518.8047280102369,1518.8047280102369,0.9992321992709552,0.0005561787913824737
1518.8116726573094,1518.8116726573094,0.999900074484119,0.0005561850442734027
1518.818617304289,1518.818617304289,1.000632175366046,0.0005563478246659746
1518.8255619513154,1518.8255619513154,1.0000356259524728,0.0005562337472602035
1518.8325065982947,1518.8325065982947,1.0008615783668433,0.0005566065648464501
1518.8394512452282,1518.8394512452282,0.9991809499033859,0.0005559213275668131
1518.8463958922075,1518.8463958922075,0.999616514998291,0.0005564323341698218
1518.853340539094,1518.853340539094,0.9994560809633788,0.0005561209508047576
1518.8602851860269,1518.8602851860269,0.9998252528030523,0.0005559850987986799
1518.867229832913,1518.867229832913,1.0006815252276868,0.000556843363115076
1518.874174479753,1518.874174479753,1.000755292495579,0.0005565340668248596
1518.8811191265927,1518.8811191265927,1.0006339747633655,0.0005569496277132539
1518.8880637734323,1518.8880637734323,0.9996610586441061,0.0005561944170755013
1518.8950084202256,1518.8950084202256,0.9999629470643487,0.0005565875126892451
1518.901953067019,1518.901953067019,1.0003996356445528,0.0005565009843078304
1518.908897713812,1518.908897713812,0.999604515229405,0.0005559606455977878
1518.9158423605588,1518.9158423605588,0.9996095989853181,0.0005562802351678688
1518.922787007259,1518.922787007259,0.9990219772569471,0.0005563270146842615
1518.9297316539592,1518.9297316539592,0.9992792599588556,0.0005563087850502834
1518.9366763006592,1518.9366763006592,1.0003265809098911,0.000556641419188372
1518.9436209473129,1518.9436209473129,1.0000353354196467,0.0005565422999420288
1518.9505655939197,1518.9505655939197,1.0013186119777593,0.0005567509498807988
1518.9575102405738,1518.9575102405738,0.9997366985289362,0.0005562119479307388
1518.964454887134,1518.964454887134,1.000163873988935,0.000556317544043581
1518.9713995336479,1518.9713995336479,1.0004408382828816,0.000556195710256938
1518.9783441803015,1518.9783441803015,0.9996390144894459,0.0005562340536486045
1518.9852888267221,1518.9852888267221,1.0004579436703571,0.0005561983708459392
1518.992233473282,1518.992233473282,0.9996463740443018,0.0005559605111304663
1518.9991781197964,1518.9991781197964,0.9992496476882995,0.000556135236346291
1519.0061227662172,1519.0061227662172,1.0004370855269398,0.0005565401896332002
1519.0130674126376,1519.0130674126376,1.0001863177195933,0.0005565539046046982
1519.0200120590584,1519.0200120590584,1.000257820649575,0.0005563141150231302
1519.026956705479,1519.026956705479,0.9996676044860955,0.0005560606877645393
1519.0339013516673,1519.0339013516673,0.9989478716050686,0.0005559352011317655
1519.0408459980877,1519.0408459980877,1.000461054676003,0.0005568714293549468
1519.047790644369,1519.047790644369,1.0007946210335106,0.0005564834545391257
1519.0547352906965,1519.0547352906965,1.0005384329785638,0.0005566391551626094
1519.0616799368843,1519.0616799368843,0.9996981173000027,0.0005560745125284081
1519.0686245831187,1519.0686245831187,0.9999804519868091,0.0005563587294458726
1519.0755692293067,1519.0755692293067,1.000575551234038,0.000556591718193722
1519.0825138754942,1519.0825138754942,1.0000985001714962,0.0005565247651236707
1519.0894585216822,1519.0894585216822,0.9998128841525963,0.0005562027229102589
1519.096403167777,1519.096403167777,0.9995712216609419,0.0005563516989323057
1519.103347813872,1519.103347813872,1.0001384698054108,0.0005563772941753033
1519.1102924599197,1519.1102924599197,1.0005103435626055,0.0005564894591704799
1519.1172371060152,1519.1172371060152,0.999844666430849,0.0005566539950547913
1519.1241817520163,1519.1241817520163,0.9997353174235568,0.0005565774587613765
1519.1311263979715,1519.1311263979715,0.9998970543530895,0.0005566152238827775
1519.1380710439262,1519.1380710439262,0.9997820928538301,0.0005566292715934816
