time,time,flux,flux_err
1468.276825051249,1468.276825051249,1.0000701322295922,4.986162680545006e-05
1468.2837696761842,1468.2837696761842,1.0000371702008954,4.986111268937621e-05
1468.290714301073,1468.290714301073,0.9999025325328667,4.985952540860081e-05
1468.2976589258683,1468.2976589258683,0.9999054293766182,4.9860921347036886e-05
1468.3046035506409,1468.3046035506409,0.9999375688447435,4.986353370249745e-05
1468.3115481753198,1468.3115481753198,1.0000334984812433,4.986292969050172e-05
1468.318492799952,1468.318492799952,1.0000643027785858,4.9862065452194735e-05
1468.3254374245848,1468.3254374245848,0.9999214752683454,4.9862386963174216e-05
1468.332382049101,1468.332382049101,0.9999558678371663,4.986079252016428e-05
1468.3393266736407,1468.3393266736407,1.0000267153368207,4.9863216120451864e-05
1468.34627129804,1468.34627129804,1.0001052758319784,4.986459381587558e-05
1468.3532159223932,1468.3532159223932,0.9999728555011419,4.986055233961003e-05
1468.3601605467466,1468.3601605467466,1.0000146749574415,4.986323687825833e-05
1468.3671051710996,1468.3671051710996,1.0001016756393322,4.986427098770486e-05
1468.3740497952665,1468.3740497952665,1.000144794502911,4.9861875442350234e-05
1468.3887723984756,1468.3887723984756,1.0000045652511989,4.985671415934951e-05
1468.3976615172755,1468.3976615172755,0.9999977949677727,4.985856081729149e-05
1468.4046061413032,1468.4046061413032,0.999794343347385,4.9839901006059335e-05
1468.4115507652368,1468.4115507652368,1.0000360001739281,4.9857614927562985e-05
1468.418495389124,1468.418495389124,1.0000152345223856,4.985455573649777e-05
1468.4254400129187,1468.4254400129187,1.0000608181438235,4.9857483308907896e-05
1468.432384636713,1468.432384636713,1.0000371916969648,4.985451263375547e-05
1468.4393292604607,1468.4393292604607,1.0000866372419561,4.9857395446072786e-05
1468.4462738841619,1468.4462738841619,1.000079985463993,4.9859623496664784e-05
1468.4532185078165,1468.4532185078165,1.0000282272565904,4.985843590096455e-05
1468.460163131378,1468.460163131378,1.0001760863875202,4.985646125979706e-05
1468.4671077548933,1468.4671077548933,0.9999359049845232,4.9849521294291415e-05
1468.4740523783619,1468.4740523783619,0.9998971636301445,4.98506222348542e-05
1468.480997001783,1468.480997001783,0.9997636505078018,4.984516100026608e-05
1468.4879416251586,1468.4879416251586,0.9999792935972961,4.9857693950582755e-05
1468.4948862484878,1468.4948862484878,1.0000253317627816,4.9858724577353943e-05
1468.5018308716767,1468.5018308716767,0.9999857543912499,4.985735216961486e-05
1468.5087754948656,1468.5087754948656,1.0001559872634793,4.985979641980577e-05
1468.515720118054,1468.515720118054,1.0000153179232174,4.985195843970019e-05
1468.5226647412433,1468.5226647412433,1.0001637443101796,4.985745403398622e-05
1468.5296093642462,1468.5296093642462,0.9998157073346505,4.9852448343980495e-05
1468.5365539872955,1468.5365539872955,1.0000639893382723,4.985485446470261e-05
1468.543498610205,1468.543498610205,0.9998800092074713,4.984839182850128e-05
1468.5504432331145,1468.5504432331145,0.9999668367737551,4.985252111365072e-05
1468.5573878559314,1468.5573878559314,1.0000394096164122,4.986040674916671e-05
1468.5643324787482,1468.5643324787482,0.999989843669644,4.985965456546638e-05
1468.571277101471,1468.571277101471,1.0000591494075644,4.98563581764342e-05
1468.5782217241476,1468.5782217241476,1.0001292544029468,4.985909068409255e-05
1468.5851663468711,1468.5851663468711,0.9998406386005589,4.9857039367533566e-05
1468.5921109693613,1468.5921109693613,0.9999363941364902,4.9854784431152156e-05
1468.5990555918988,1468.5990555918988,0.9999914180772083,4.9854663019158185e-05
1468.6060002143893,1468.6060002143893,1.0000406119800078,4.985805793648571e-05
1468.6129448367865,1468.6129448367865,1.0000372620340747,4.9843071126436274e-05
1468.619889459184,1468.619889459184,1.0001470238247085,4.985292256135536e-05
1468.6268340814884,1468.6268340814884,0.999939862863107,4.98582963725007e-05
1468.6337787037462,1468.6337787037462,1.0000149956425108,4.985905762162614e-05
1468.6407233259567,1468.6407233259567,1.0000603975426618,4.985054444801983e-05
1468.6476679481682,1468.6476679481682,0.9997944327356786,4.9855390952242405e-05
1468.654612570193,1468.654612570193,0.9998344471498273,4.984947025702313e-05
1468.661557192218,1468.661557192218,1.0001069325377374,4.98566191402282e-05
1468.668501814243,1468.668501814243,1.0000409208796444,4.985550274180671e-05
1468.6754464362675,1468.6754464362675,1.0000310267774002,4.985903757985731e-05
1468.682391058106,1468.682391058106,1.000130164007379,4.985020742157381e-05
1468.6893356799915,1468.6893356799915,1.000081674111256,4.985419703213213e-05
1468.696280301737,1468.696280301737,0.9999535019943349,4.9850577954653325e-05
1468.7032249235285,1468.7032249235285,0.9999082095767576,4.9846860838011493e-05
1468.7101695451345,1468.7101695451345,0.9998943836497309,4.985239086159586e-05
1468.7171141667866,1468.7171141667866,1.0000278914611986,4.9850576059782604e-05
1468.7240587883925,1468.7240587883925,0.9999917163008444,4.985468978258146e-05
1468.7310034099053,1468.7310034099053,0.9999541107422051,4.984914548473531e-05
1468.7379480314178,1468.7379480314178,1.000103817600571,4.9853475988114326e-05
1468.7448926528373,1468.7448926528373,1.0001155703379792,4.985800718930576e-05
1468.7518372741638,1468.7518372741638,0.9999289720555332,4.984998150352482e-05
1468.75878189549,1468.75878189549,0.9999874500104857,4.985562084292881e-05
1468.7657265167702,1468.7657265167702,0.9999138218910402,4.9850672555875926e-05
1468.7726711379569,1468.7726711379569,1.000113689481072,4.985929483722702e-05
1468.7796157590965,1468.7796157590965,0.9999121633088176,4.985112442828523e-05
1468.7865603802368,1468.7865603802368,1.0000731998031127,4.9856708183397116e-05
1468.7935050012836,1468.7935050012836,1.0000197398942003,4.98599102303956e-05
1468.800449622238,1468.800449622238,1.0000167958870567,4.985780204332333e-05
1468.807394243191,1468.807394243191,0.9998584601944331,4.985873156283887e-05
1468.8143388641915,1468.8143388641915,1.0000024320338288,4.9860609272440375e-05
1468.821283484913,1468.821283484913,1.000086824011719,4.985975104539665e-05
1468.8282281056804,1468.8282281056804,0.999861408435506,4.984878887727217e-05
1468.835172726448,1468.835172726448,0.999955801002168,4.984888465084563e-05
1468.842117347122,1468.842117347122,1.0001219404107717,4.985949801339778e-05
1468.84906196775,1468.84906196775,0.9999175496234759,4.985097629338237e-05
1468.8560065883316,1468.8560065883316,1.0001752714259031,4.985959454703293e-05
1468.8629512088664,1468.8629512088664,1.0000176772021725,4.985780754071902e-05
1468.869895829308,1468.869895829308,1.0000957654996814,4.985517115423987e-05
1468.8768404497494,1468.8768404497494,0.9999834902049596,4.9860677735553266e-05
1468.8837850700515,1468.8837850700515,0.9998395523223381,4.985822524980778e-05
1468.8907296904467,1468.8907296904467,0.9999938609194242,4.985968481625748e-05
1468.8976743106555,1468.8976743106555,0.9999982357327243,4.985418377211464e-05
1468.904618930864,1468.904618930864,1.0000109193468423,4.986183238945634e-05
1468.911563551026,1468.911563551026,0.9999520422482471,4.986341224688647e-05
1468.9185081711416,1468.9185081711416,1.0000338317566544,4.986318476196403e-05
1468.9254527911644,1468.9254527911644,1.0001129882523419,4.985999341446958e-05
1468.9323974111871,1468.9323974111871,0.9998777970982549,4.985228409130017e-05
1468.93934203107,1468.93934203107,0.9999489780350771,4.986074235041001e-05
1468.946286650999,1468.946286650999,1.0001166698719934,4.9859851891692915e-05
1468.9532312708354,1468.9532312708354,0.9999771472609641,4.9854767377037274e-05
1468.9612870297763,1468.9612870297763,0.9999932890174499,4.9862248876477245e-05
1468.9685094342608,1468.9685094342608,0.9999709855318818,4.9862302849259435e-05
1468.9754540539573,1468.9754540539573,0.9999599829029979,4.986380459146064e-05
1468.9823986735141,1468.9823986735141,1.0000194183677489,4.986279089969303e-05
1468.9893432931178,1468.9893432931178,0.999973108183106,4.986085118501142e-05
1468.9962879125817,1468.9962879125817,0.9999617597447298,4.985489872627401e-05
1469.0032325320453,1469.0032325320453,1.0000836446227745,4.9853164804452656e-05
1469.0101771514157,1469.0101771514157,1.0000524030264408,4.986430468913335e-05
1469.0171217708328,1469.0171217708328,1.0001588551260165,4.986084652867746e-05
1469.0240663900638,1469.0240663900638,1.0000080460162546,4.985827752698841e-05
1469.0310110093412,1469.0310110093412,0.9999265313905218,4.9856683478956284e-05
1469.037955628479,1469.037955628479,0.9999172223850404,4.985482728123997e-05
1469.0449002476166,1469.0449002476166,0.9999696726505247,4.985847612824905e-05
1469.0518448667078,1469.0518448667078,0.9999040815558731,4.9859715053701185e-05
1469.0587894857522,1469.0587894857522,0.9997501884672069,4.985071931421732e-05
1469.0657341047508,1469.0657341047508,1.0002264602372315,4.9870826060441155e-05
1469.0726787236558,1469.0726787236558,1.0001562912303645,4.986531759801069e-05
1469.079623342514,1469.079623342514,0.9999377690950964,4.986577699895448e-05
1469.0865679613257,1469.0865679613257,1.0001108221344945,4.9864412646021156e-05
1469.0935125800909,1469.0935125800909,0.999959873072655,4.9862664890009855e-05
1469.100457198763,1469.100457198763,1.0001532000837634,4.986352578218486e-05
1469.1074018174818,1469.1074018174818,0.9998834593829962,4.98542338594425e-05
1469.114346436014,1469.114346436014,0.9997820149735794,4.9856676065941e-05
1469.1212910545466,1469.1212910545466,1.000060806968778,4.986248715393149e-05
1469.128235673079,1469.128235673079,0.9999809993468913,4.986217151079313e-05
1469.135180291565,1469.135180291565,0.9999298837093535,4.9854259901638284e-05
1469.1421249099112,1469.1421249099112,1.0000562052086157,4.985520439886854e-05
1469.149069528257,1469.149069528257,1.0000404689523956,4.9863484185560264e-05
1469.1560141465566,1469.1560141465566,1.0000289295608595,4.9866421856162965e-05
1469.162958764763,1469.162958764763,1.000049397141849,4.9867405229520514e-05
1469.1699033829693,1469.1699033829693,1.0000429126098007,4.985644778330105e-05
1469.176848001083,1469.176848001083,1.0000242793464615,4.9859991088278115e-05
1469.1837926191495,1469.1837926191495,1.0000231250432337,4.986181188208907e-05
1469.190737237123,1469.190737237123,1.000052108117114,4.9860124212690684e-05
1469.1976818550968,1469.1976818550968,0.9998920669813265,4.985429161629649e-05
1469.2046264730238,1469.2046264730238,1.0000063306599034,4.986724136259738e-05
1469.2115710909045,1469.2115710909045,0.9998802746073959,4.986328009076579e-05
1469.218515708692,1469.218515708692,1.0000174885244466,4.986798886059637e-05
1469.2254603264323,1469.2254603264323,0.9999140702669473,4.98676125760236e-05
1469.2324049441265,1469.2324049441265,1.0000283496528097,4.986245303712464e-05
1469.2393495617741,1469.2393495617741,1.000011420689885,4.986773561359276e-05
1469.2462941793756,1469.2462941793756,1.0001840723410056,4.987213680709429e-05
1469.2532387968834,1469.2532387968834,0.9998841571209705,4.986495029939471e-05
1469.2601834144375,1469.2601834144375,1.0001993777779838,4.987101059501595e-05
1469.2671280318525,1469.2671280318525,1.000006223699764,4.986298790842803e-05
1469.274072649221,1469.274072649221,0.9998678987703424,4.985808261104319e-05
1469.2810172665893,1469.2810172665893,0.9999104348121037,4.985827367702611e-05
1469.2879618837712,1469.2879618837712,1.0000498551818033,4.986604483818782e-05
1469.2949065010462,1469.2949065010462,0.9998255814555362,4.985593954441209e-05
1469.3018511181813,1469.3018511181813,1.0000853076353686,4.986128675835721e-05
1469.3087957352705,1469.3087957352705,0.9999925251147701,4.9859774922156525e-05
1469.3157403523594,1469.3157403523594,1.0001909512454206,4.986963274751928e-05
1469.3226849693087,1469.3226849693087,0.9999570251671683,4.986249955625572e-05
1469.3296295863042,1469.3296295863042,1.000055871680822,4.986365250562626e-05
1469.3365742032067,1469.3365742032067,0.9998614496328422,4.9859563703114336e-05
1469.343518820063,1469.343518820063,1.0001110365150363,4.986842092184579e-05
1469.350463436826,1469.350463436826,0.9999048542009806,4.986133025663651e-05
1469.3574080535886,1469.3574080535886,0.9999047241654718,4.9862357398928863e-05
1469.3643526702585,1469.3643526702585,0.999991786340573,4.986686783241354e-05
1469.3712972868811,1469.3712972868811,1.0000193944981794,4.986449107139718e-05
1469.3782419034583,1469.3782419034583,1.0000662058142211,4.986308960025507e-05
1469.3851865199883,1469.3851865199883,1.0000814993340996,4.9862739254842405e-05
1469.3921311364718,1469.3921311364718,1.0000594360168173,4.986715019328924e-05
1469.3990757528625,1469.3990757528625,1.000066993663232,4.986160930725177e-05
1469.4060203692056,1469.4060203692056,0.999974800293451,4.985904711617938e-05
1469.4129649855963,1469.4129649855963,0.9998399163559029,4.986242838014402e-05
1469.419909601847,1469.419909601847,0.9999392874351185,4.986532100340604e-05
1469.426854218051,1469.426854218051,0.999813557404905,4.9858283906525706e-05
1469.4337988341624,1469.4337988341624,1.0001765739606843,4.986708859418518e-05
1469.4407434502261,1469.4407434502261,1.0000699052092186,4.986579296141025e-05
1469.4476880662905,1469.4476880662905,1.000000262228197,4.986826514981924e-05
1469.4546326822622,1469.4546326822622,1.0000032659008293,4.986382238858168e-05
1469.4615772982334,1469.4615772982334,1.000013542173742,4.986724020811106e-05
1469.4685219141115,1469.4685219141115,1.0000239375927102,4.986677371872047e-05
1469.4754665299433,1469.4754665299433,0.9999050605310892,4.986345698674545e-05
1469.4824111456812,1469.4824111456812,1.0000338917051235,4.986633317995233e-05
1469.48935576142,1469.48935576142,1.0000139118849822,4.987033196307649e-05
1469.4963003771118,1469.4963003771118,0.9999572617346848,4.986904340526983e-05
1469.5032449927571,1469.5032449927571,1.000071134350967,4.9870638772332767e-05
1469.510189608263,1469.510189608263,0.9999392244992282,4.9869953184420696e-05
1469.5171342237682,1469.5171342237682,1.0001129922904972,4.987112189008732e-05
1469.5240788392273,1469.5240788392273,1.0000040769469265,4.986967734620434e-05
1469.53102345464,1469.53102345464,0.9998836205135838,4.986406350624326e-05
1469.5379680699593,1469.5379680699593,1.00014257065021,4.9871767976579754e-05
1469.5449126852786,1469.5449126852786,1.000008237805647,4.9863958383345734e-05
1469.5518573005043,1469.5518573005043,0.9999601579139616,4.986525204321991e-05
1469.5588019156842,1469.5588019156842,0.999888342609174,4.986420187798133e-05
1469.5657465307709,1469.5657465307709,0.9998774347214013,4.986557068525835e-05
1469.5726911459972,1469.5726911459972,1.000020003443685,4.986400421032541e-05
1469.579635760944,1469.579635760944,1.0001144309270922,4.987008006940864e-05
1469.5865803758443,1469.5865803758443,0.9999990344232821,4.986894107645685e-05
1469.5935249908375,1469.5935249908375,1.0000235318450577,4.986933219103812e-05
1469.6004696056912,1469.6004696056912,0.9999082484720583,4.986508713683228e-05
1469.6074142204518,1469.6074142204518,1.0000141493554053,4.986784258077802e-05
1469.6143588352122,1469.6143588352122,1.0000286681972361,4.986443528772056e-05
1469.6213034499729,1469.6213034499729,1.0000368093082164,4.986711396037961e-05
1469.6282480645937,1469.6282480645937,1.0000053761804097,4.986302976968247e-05
1469.635192679168,1469.635192679168,1.0000804828592749,4.986605378675262e-05
1469.6421372937425,1469.6421372937425,1.0000870281571228,4.98628318977545e-05
1469.6490819082235,1469.6490819082235,0.9999433669309999,4.986054618176067e-05
1469.6560265226585,1469.6560265226585,0.9999535470329782,4.9863253312257414e-05
1469.6629711370463,1469.6629711370463,0.999891502854968,4.9860662138626806e-05
1469.6699157513406,1469.6699157513406,0.9999698785384148,4.986708341556494e-05
1469.6768603656358,1469.6768603656358,1.0000583279199928,4.986846606015902e-05
1469.6838049798375,1469.6838049798375,1.0000613210925515,4.986816363826118e-05
1469.6907495940393,1469.6907495940393,1.0000957739958005,4.9869700403308214e-05
1469.6976942081017,1469.6976942081017,0.9998590326594371,4.986266513178166e-05
1469.7046388222097,1469.7046388222097,1.000018656414879,4.986733747710441e-05
1469.711583436179,1469.711583436179,1.0000887269626895,4.986722265574028e-05
1469.7185280501944,1469.7185280501944,0.9999280816098384,4.9869907870301506e-05
1469.7254726640701,1469.7254726640701,0.9998961084987474,4.986832550565141e-05
1469.732417277946,1469.732417277946,0.9999040601355992,4.9869004022194077e-05
1469.7393618916356,1469.7393618916356,1.0000475184332778,4.987152872753573e-05
1469.746306505418,1469.746306505418,1.000094403769328,4.987103574743977e-05
1469.7532511190614,1469.7532511190614,1.000099243201598,4.987052516182228e-05
1469.760195732704,1469.760195732704,1.0000769495270276,4.987227821979586e-05
1469.7671403463007,1469.7671403463007,1.0000225658653443,4.9869025936080764e-05
1469.774084959804,1469.774084959804,0.9999468572894201,4.986550293912626e-05
1469.7810295732602,1469.7810295732602,0.9998474038144473,4.9866342836978506e-05
1469.787974186671,1469.787974186671,0.9999122182638214,4.9868972623752064e-05
1469.794918800034,1469.794918800034,0.9999681600850732,4.986659034071858e-05
1469.8018634133514,1469.8018634133514,0.9999714980731043,4.987036137931778e-05
1469.8088080265754,1469.8088080265754,1.0001177054589934,4.98699263452066e-05
1469.8157526397988,1469.8157526397988,1.0000731698561744,4.986625338808895e-05
1469.8226972528832,1469.8226972528832,1.0001324036491666,4.98696712869661e-05
1469.8296418660138,1469.8296418660138,1.0000046728371417,4.9869852885113973e-05
1469.8365864790514,1469.8365864790514,0.9999431849651004,4.98682292893092e-05
1469.8435310919963,1469.8435310919963,1.0000199321260574,4.986970774503059e-05
1469.8504757049873,1469.8504757049873,0.999982654088351,4.986963189934105e-05
1469.8574203178384,1469.8574203178384,0.9998615338219187,4.987167640288626e-05
1469.8643649306428,1469.8643649306428,1.000012004917393,4.987329103725462e-05
1469.8713095433545,1469.8713095433545,0.9999587750039328,4.9872709886371094e-05
1469.8782541560665,1469.8782541560665,1.0000958643526014,4.9877020098707546e-05
1469.885198768778,1469.885198768778,0.9999368133589908,4.9874104666070926e-05
1469.89214338135,1469.89214338135,1.0000543169117146,4.987423892316024e-05
1469.899087993922,1469.899087993922,0.9999484494137049,4.987318095440035e-05
1469.9060326064007,1469.9060326064007,1.000106426451842,4.987685666102346e-05
1469.9129772188332,1469.9129772188332,0.9999721503963681,4.987522775512557e-05
1469.9199218312651,1469.9199218312651,0.9999941821975756,4.987443722673635e-05
1469.9268664435579,1469.9268664435579,0.9999726991171469,4.987645686980068e-05
1469.9338110558506,1469.9338110558506,0.9999524081328858,4.987442530539867e-05
1469.9407556680962,1469.9407556680962,1.0000023247068568,4.98732140923298e-05
1469.9477002802025,1469.9477002802025,1.0000280632853786,4.987400705413351e-05
1469.9546448923556,1469.9546448923556,1.0000621344629326,4.9874904015273613e-05
1469.9615895044155,1469.9615895044155,0.9999574406353897,4.987086024824737e-05
1469.9685341164288,1469.9685341164288,0.999983822731393,4.987153467370432e-05
1469.9754787283484,1469.9754787283484,0.9999461871254198,4.987210642100695e-05
1469.9824233402683,1469.9824233402683,0.999943672032947,4.9872631672538386e-05
1469.989367952095,1469.989367952095,1.0001082093158615,4.9875430696124516e-05
1469.9963125639222,1469.9963125639222,1.0000051380988269,4.9874208565380214e-05
1470.0032571756094,1470.0032571756094,1.00008142391624,4.9873788152720756e-05
1470.0102017873435,1470.0102017873435,1.0000441336441224,4.987480189314852e-05
1470.0171463988906,1470.0171463988906,0.9999773486906637,4.987592700312454e-05
1470.024091010438,1470.024091010438,0.9999928349874931,4.987490295900452e-05
1470.0310356219857,1470.0310356219857,0.9999419523051992,4.9874978508135e-05
1470.0379802335333,1470.0379802335333,0.9999869692731608,4.987473237755227e-05
1470.0449248448945,1470.0449248448945,0.9999620881161293,4.98741909808511e-05
