time,time,flux,flux_err
1468.2771933533745,1468.2771933533745,0.9998896529330243,0.00033313730943692157
1468.2841379527215,1468.2841379527215,0.9994091777003801,0.0003332365494750118
1468.2910825519753,1468.2910825519753,0.9999597209960773,0.00033316465218963595
1468.2980271510899,1468.2980271510899,0.9993992718547867,0.0003332114792582328
1468.3049717502508,1468.3049717502508,0.9995936219228401,0.0003330533089410178
1468.311916349272,1468.311916349272,1.0003779837038707,0.00033321886680066687
1468.3188609482931,1468.3188609482931,0.9996377750541008,0.0003330737521697924
1468.325805547221,1468.325805547221,1.00011531787036,0.0003330498688815255
1468.332750146056,1468.332750146056,0.9997772913198331,0.00033324058032701274
1468.339694744798,1468.339694744798,1.0005272746908864,0.00033325047857429965
1468.3466393435394,1468.3466393435394,1.000453904679302,0.0003331343213073678
1468.3535839422814,1468.3535839422814,0.9998088922785184,0.0003331560849059054
1468.3605285409767,1468.3605285409767,1.0001108596438235,0.0003332039505284357
1468.3674731395322,1468.3674731395322,1.0002267139318148,0.00033313742166399447
1468.3744177379947,1468.3744177379947,0.9999634163175383,0.0003332999357049215
1468.389140286628,1468.389140286628,1.0003977585814696,0.0003332760190664965
1468.3980293724592,1468.3980293724592,0.9997178910918738,0.00033318777014008184
1468.404973970689,1468.404973970689,0.9997326432621811,0.0003330913581915518
1468.411918568872,1468.411918568872,1.0004028447472373,0.00033316580599982457
1468.418863167008,1468.418863167008,0.9995910289314702,0.0003332031116902496
1468.4258077650516,1468.4258077650516,1.000078637569997,0.00033317038519116535
1468.4327523630484,1468.4327523630484,1.00088825023264,0.0003332197934610024
1468.4396969609986,1468.4396969609986,1.0001840222574034,0.00033305616866809504
1468.4466415588554,1468.4466415588554,1.000043203241187,0.0003332314892946869
1468.453586156666,1468.453586156666,0.9998914426495492,0.0003330414099467102
1468.4605307544298,1468.4605307544298,1.000027931453441,0.00033313091981347734
1468.4674753521006,1468.4674753521006,1.0003571516475211,0.0003331463442516536
1468.4744199496786,1468.4744199496786,0.9997753970094587,0.0003330269092991946
1468.4813645472555,1468.4813645472555,0.9998845623809931,0.00033308130739475054
1468.4883091448332,1468.4883091448332,0.9997372781984044,0.00033309363139293833
1468.4952537422253,1468.4952537422253,0.9997917724052667,0.00033310098751299257
1468.5021983396164,1468.5021983396164,1.000226560420813,0.00033321379906982453
1468.509142936961,1468.509142936961,0.9994126407125803,0.00033305583646206017
1468.5160875342128,1468.5160875342128,1.000348302645281,0.00033321598462076186
1468.523032131418,1468.523032131418,1.0007190541113435,0.00033313194315544737
1468.5299767285765,1468.5299767285765,0.999781232559628,0.0003332155309675672
1468.5369213255951,1468.5369213255951,1.000120699088872,0.0003332574129053419
1468.5438659226606,1468.5438659226606,0.9999655629532036,0.00033324310156878636
1468.550810519586,1468.550810519586,0.9999885017012676,0.00033313023123091723
1468.557755116512,1468.557755116512,0.9996516693552081,0.00033328838476867357
1468.5646997133915,1468.5646997133915,0.9996910660408764,0.0003333466424502476
1468.5716443101305,1468.5716443101305,1.000379543713203,0.0003331857902668404
1468.5785889068698,1468.5785889068698,1.0003815449678803,0.0003332836308285513
1468.5855335034696,1468.5855335034696,0.9996136556631778,0.00033307835690342196
1468.5924781001158,1468.5924781001158,1.0002906624317895,0.0003332945963538267
1468.5994226965763,1468.5994226965763,0.9997850668023489,0.00033324024617951736
1468.606367293176,1468.606367293176,1.0001120092298958,0.0003331988521115849
1468.613311889589,1468.613311889589,0.9999438189730945,0.0003329895756460148
1468.6202564858163,1468.6202564858163,0.9996944298135197,0.0003330115696587334
1468.6272010821835,1468.6272010821835,0.9996052846242497,0.0003331163225306245
1468.6341456783643,1468.6341456783643,1.000764459358097,0.0003332124293084642
1468.6410902745445,1468.6410902745445,1.0001016820670543,0.00033318962716572263
1468.6480348706323,1468.6480348706323,0.9998204193249066,0.0003331524207320391
1468.654979466673,1468.654979466673,0.9993436796061153,0.0003331198283328912
1468.6619240626678,1468.6619240626678,1.0002565963089904,0.00033319495967057227
1468.6688686586158,1468.6688686586158,1.0002495481961609,0.00033315173222499977
1468.6758132544699,1468.6758132544699,0.9996727516389697,0.00033311495899356373
1468.682757850278,1468.682757850278,1.0002285014714012,0.0003331003223531262
1468.6897024459934,1468.6897024459934,0.9999895090777677,0.0003331522704308141
1468.696647041662,1468.696647041662,0.9995598097075205,0.00033298492397438857
1468.7035916372834,1468.7035916372834,1.000263413639685,0.00033304876712795406
1468.7105362329055,1468.7105362329055,0.9997753417599899,0.00033305386585014954
1468.7174808283876,1468.7174808283876,0.9997621291501847,0.0003332552670119897
1468.724425423823,1468.724425423823,0.999786495103059,0.00033314188295131207
1468.7313700192124,1468.7313700192124,0.9999641734388142,0.0003332133052371017
1468.7383146145544,1468.7383146145544,1.0003715463293297,0.00033309824092247163
1468.7452592098039,1468.7452592098039,1.0003897283334564,0.00033310874373042873
1468.7522038050067,1468.7522038050067,1.000332035754446,0.0003330041945461799
1468.7591484000698,1468.7591484000698,0.9997649688139377,0.0003329764762735151
1468.7660929951796,1468.7660929951796,1.0003708057078324,0.0003329799459192899
1468.773037590196,1468.773037590196,0.9998405370724125,0.0003330041472407425
1468.779982185119,1468.779982185119,0.999608749706012,0.00033315975683641204
1468.786926779996,1468.786926779996,0.9997546078388024,0.0003329834372422122
1468.7938713748267,1468.7938713748267,0.9999324657816399,0.0003329929641897621
1468.80081596961,1468.80081596961,0.9998952407078345,0.00033311108331291877
1468.8077605643002,1468.8077605643002,1.0004339687850432,0.00033321597149982946
1468.8147051589908,1468.8147051589908,1.0000970810119862,0.0003332026933734619
1468.821649753542,1468.821649753542,0.9996414162035162,0.0003330752868768557
1468.8285943480464,1468.8285943480464,1.0002468762653411,0.0003331637758781802
1468.8355389425506,1468.8355389425506,0.9999441607583914,0.0003331347196768138
1468.8424835369149,1468.8424835369149,1.000190207402615,0.00033334677224030934
1468.8494281312796,1468.8494281312796,0.9999501250549592,0.0003329207951079076
1468.8563727255978,1468.8563727255978,0.9997162925582697,0.0003330935296574269
1468.8633173197293,1468.8633173197293,1.000160412763198,0.0003331134094128211
1468.8702619140474,1468.8702619140474,1.0002387480663062,0.00033309326835927915
1468.8772065081325,1468.8772065081325,0.9995301627980295,0.00033314373284225535
1468.884151102078,1468.884151102078,1.000167031459971,0.0003331398473860463
1468.8910956960704,1468.8910956960704,0.9996237723880788,0.00033330839366544154
1468.8980402899692,1468.8980402899692,1.0005957160443544,0.0003330844409356828
1468.904984883868,1468.904984883868,1.000156775548686,0.0003332308576230048
1468.9119294776272,1468.9119294776272,1.0003366342127522,0.000333212807598266
1468.9188740713864,1468.9188740713864,0.9999063034547744,0.00033331115292876767
1468.9258186650527,1468.9258186650527,0.9996809570397056,0.00033315524197253144
1468.9327632586724,1468.9327632586724,1.0001219709588973,0.0003330251104894107
1468.939707852152,1468.939707852152,1.0001676540856475,0.0003332135619896317
1468.946652445678,1468.946652445678,0.999620218430705,0.00033300217392478884
1468.9535970391114,1468.9535970391114,0.9998619066201364,0.0003329691853187526
1468.961652767412,1468.961652767412,1.0002807889873055,0.00033309325633123593
1468.9688751444694,1468.9688751444694,0.9997355971447014,0.00033331940885202076
1468.975819737716,1468.975819737716,1.0002167039829526,0.0003332035384431229
1468.9827643308697,1468.9827643308697,1.000613870202188,0.00033357277894775224
1468.9897089239305,1468.9897089239305,1.0000813935789945,0.00033330741745074
1468.9966535170845,1468.9966535170845,1.0001505710416803,0.00033311346688589047
1469.0035981100054,1469.0035981100054,0.9992659002732192,0.0003330932047217775
1469.0105427029262,1469.0105427029262,0.9998819842783572,0.0003332838961527117
1469.0174872958473,1469.0174872958473,1.0004437001516873,0.0003331893158326946
1469.024431888629,1469.024431888629,0.999213328081648,0.00033321000667112753
1469.0313764814105,1469.0313764814105,1.0003637232253664,0.00033307362485341773
1469.0383210740517,1469.0383210740517,1.000232386522314,0.00033309344194787897
1469.0452656666935,1469.0452656666935,1.0000667906040324,0.00033333099986251267
1469.0522102592884,1469.0522102592884,0.9996745683452009,0.00033324577688048597
1469.0591548517436,1469.0591548517436,0.9998363840735749,0.0003333372486707561
1469.0660994441992,1469.0660994441992,0.9998359693763114,0.00033314949715988355
1469.0730440366083,1469.0730440366083,0.9999647034365357,0.0003331897325517094
1469.0799886289237,1469.0799886289237,1.0007443847436197,0.00033317734847725295
1469.0869332211928,1469.0869332211928,0.9994856803869446,0.00033322106487090105
1469.0938778134155,1469.0938778134155,1.000212972779413,0.0003332078266041017
1469.1008224054985,1469.1008224054985,1.0000324639522613,0.00033308867453577055
1469.1077669976278,1469.1077669976278,0.999635757192474,0.00033315303053889925
1469.1147115896172,1469.1147115896172,1.0001522278443915,0.00033314004138478026
1469.1216561815604,1469.1216561815604,0.9998647278089443,0.00033314923310374576
1469.1286007735036,1469.1286007735036,0.9997272709186845,0.00033318301205992416
1469.1355453652607,1469.1355453652607,0.9998719310003954,0.00033327154867459935
1469.1424899570177,1469.1424899570177,1.0001905214948927,0.0003332085229757153
1469.1494345487743,1469.1494345487743,0.9999863296651725,0.00033321957688330913
1469.156379140438,1469.156379140438,0.9998544418904463,0.0003330445343473074
1469.1633237320552,1469.1633237320552,1.000166304870076,0.00033332929318342035
1469.1702683235326,1469.1702683235326,1.0001772401087563,0.0003332085591407386
1469.1772129150108,1469.1772129150108,1.0002155591145259,0.0003330844074678806
1469.1841575064877,1469.1841575064877,1.0002789648810573,0.0003331169876158813
1469.191102097779,1469.191102097779,0.9998930271883859,0.00033315438619300054
1469.19804668907,1469.19804668907,0.9997061039850322,0.0003329565410481582
1469.2049912803145,1469.2049912803145,0.9996851308375607,0.00033313617930375076
1469.211935871513,1469.211935871513,1.0000156205746895,0.0003332669801052679
1469.2188804625714,1469.2188804625714,1.000086839432324,0.0003332785389427842
1469.2258250535829,1469.2258250535829,1.0000328071629025,0.00033318348503142304
1469.2327696445948,1469.2327696445948,1.0004502774082762,0.0003332372588152152
1469.2397142355135,1469.2397142355135,1.0002533217300864,0.0003332146956304011
1469.2466588263858,1469.2466588263858,1.0000424417172284,0.0003331145659852139
1469.2536034172113,1469.2536034172113,0.9994360121591848,0.000333065237081013
1469.260548007897,1469.260548007897,1.0004537653948935,0.0003333359812473561
1469.2674925986294,1469.2674925986294,1.0001148196251597,0.0003333359102779212
1469.2744371892222,1469.2744371892222,0.9998968734936258,0.0003331126113706905
1469.281381779815,1469.281381779815,1.000149455364581,0.00033301973423995404
1469.2883263702217,1469.2883263702217,1.000222502099958,0.0003333238697248982
1469.295270960721,1469.295270960721,0.9997427561448557,0.0003330333917837895
1469.3022155510807,1469.3022155510807,0.9997207797910189,0.00033296056765916044
1469.309160141394,1469.309160141394,1.0000931311382495,0.0003331891892988199
1469.3161047316146,1469.3161047316146,0.9999957681540372,0.0003332938402360819
1469.3230493218348,1469.3230493218348,0.9998428238307785,0.0003331028835412555
1469.329993911915,1469.329993911915,1.0004380984162051,0.0003331933831228462
1469.336938502042,1469.336938502042,1.0000008229787216,0.0003331106648009025
1469.3438830920297,1469.3438830920297,1.0000152736594443,0.0003332941071793375
1469.3508276819707,1469.3508276819707,0.9999881618070685,0.0003330595081412779
1469.3577722718178,1469.3577722718178,0.9998118217595258,0.0003331351339761027
1469.3647168616658,1469.3647168616658,0.9997392735149464,0.0003331891351951837
1469.3716614514196,1469.3716614514196,0.999959703734762,0.0003332166916806851
1469.3786060411283,1469.3786060411283,1.0000941106503505,0.000333154890617735
1469.3855506307896,1469.3855506307896,0.9999903091336109,0.0003332544296829822
1469.3924952203577,1469.3924952203577,1.000506992061698,0.00033325211875533307
1469.3994398098798,1469.3994398098798,0.9996384466022297,0.00033306959463100645
1469.4063843993079,1469.4063843993079,1.0000280869142177,0.0003329831786881968
1469.4133289887363,1469.4133289887363,1.0002723893024732,0.0003332357310763674
1469.420273578072,1469.420273578072,0.9999487372512345,0.00033317230599912243
1469.4272181673612,1469.4272181673612,0.9998284375530059,0.00033319889013032946
1469.4341627565573,1469.4341627565573,1.0001145532966997,0.0003331498012577169
1469.4411073457059,1469.4411073457059,0.9997515647837126,0.0003332312479515972
1469.4480519348085,1469.4480519348085,1.000095728964079,0.0003333150263749181
1469.454996523818,1469.454996523818,0.999812125441926,0.00033317244016783855
1469.4619411128274,1469.4619411128274,1.0000890567422744,0.0003331197695549622
1469.468885701651,1469.468885701651,0.9999373172177932,0.00033320176567106635
1469.4758302905207,1469.4758302905207,1.0005489900042648,0.0003332008242963011
1469.4827748793437,1469.4827748793437,0.999847833428545,0.00033314470792409007
1469.4897194680739,1469.4897194680739,0.9999500206049158,0.00033321728141088837
1469.496664056757,1469.496664056757,0.9999960541852746,0.0003333605112805795
1469.5036086453479,1469.5036086453479,0.9996737301988798,0.0003333218219046089
1469.5105532338916,1469.5105532338916,0.9998574595569572,0.00033319376032714865
1469.517497822342,1469.517497822342,1.0002928895010659,0.0003333127803972335
1469.5244424107464,1469.5244424107464,0.9998912261925126,0.000333289518131743
1469.5313869991971,1469.5313869991971,0.9999406733919081,0.00033315103818792
1469.5383315875083,1469.5383315875083,1.000402502524088,0.0003332483500188366
1469.545276175726,1469.545276175726,0.9997003384408473,0.00033313695643043934
1469.5522207638037,1469.5522207638037,1.0003246177438467,0.00033316275562897803
1469.5591653519755,1469.5591653519755,0.9999227668739458,0.00033319323596709045
1469.566109940007,1469.566109940007,0.9997077269427944,0.0003331565801527773
1469.5730545280385,1469.5730545280385,0.9999748091095663,0.0003332813439920451
1469.5799991159306,1469.5799991159306,1.0000807149097966,0.0003332387606920952
1469.5869437038223,1469.5869437038223,0.9998558624041763,0.00033312545887858653
1469.593888291621,1469.593888291621,1.0002242124644345,0.0003332791324926117
1469.6008328793735,1469.6008328793735,1.0002612703498994,0.0003334431613451014
1469.607777467079,1469.607777467079,0.9997710197377264,0.0003332988031058973
1469.6147220546911,1469.6147220546911,1.0002176660834565,0.00033328943634782296
1469.6216666422577,1469.6216666422577,1.0000677262396456,0.00033316052361279054
1469.62861122973,1469.62861122973,1.0001361579594954,0.00033327291200756985
1469.6355558172029,1469.6355558172029,0.9995350417073745,0.0003331284400197466
1469.6425004045825,1469.6425004045825,0.999878135871471,0.0003337193156877284
1469.6494449919157,1469.6494449919157,1.000132326318058,0.00033318059583528577
1469.656389579156,1469.656389579156,0.9999855226765092,0.0003334155565734954
1469.6633341663492,1469.6633341663492,0.9995304199975232,0.00033333990641427116
1469.6702787535887,1469.6702787535887,1.0000489969189599,0.00033331507295682015
1469.6772233405961,1469.6772233405961,1.000145004208823,0.0003334753116559941
1469.684167927557,1469.684167927557,1.000319173368926,0.0003332150234292309
1469.691112514564,1469.691112514564,1.0006182043212388,0.00033360822086968733
1469.6980571014315,1469.6980571014315,1.0002164552009123,0.00033327048556154056
1469.7050016882517,1469.7050016882517,0.9995496446898345,0.000333242586651206
1469.7119462750265,1469.7119462750265,0.9999191853474677,0.0003334319439900603
1469.7188908617543,1469.7188908617543,0.9994694599227483,0.0003332154309176721
1469.7258354483888,1469.7258354483888,1.0001770419977072,0.0003332791303412825
1469.732780034977,1469.732780034977,1.000356519101977,0.0003331363707925731
1469.7397246215182,1469.7397246215182,1.000321032678474,0.0003334257264074064
1469.7466692079665,1469.7466692079665,1.000095382464987,0.0003332133307712705
1469.7536137943687,1469.7536137943687,0.9999113863996311,0.000333154399872885
1469.760558380677,1469.760558380677,1.0003321476734797,0.00033340943032805174
1469.7675029669858,1469.7675029669858,0.9998752599053429,0.00033315214141262117
1469.7744475532013,1469.7744475532013,0.9994572272740948,0.0003332184320664909
1469.78139213937,1469.78139213937,1.0000202303468277,0.0003333602372029853
1469.7883367254462,1469.7883367254462,0.99979766597927,0.00033330415254055796
1469.7952813115219,1469.7952813115219,0.999898410680316,0.0003332080005762449
1469.8022258975511,1469.8022258975511,1.000078486388303,0.0003332106834114309
1469.809170483441,1469.809170483441,1.0001454482553784,0.00033345344469599215
1469.8161150691908,1469.8161150691908,1.0000754383893182,0.0003332591429297334
1469.8230596550334,1469.8230596550334,1.0000535883954478,0.0003333648572524056
1469.8300042407368,1469.8300042407368,1.000078195797006,0.0003333475777342934
1469.83694882644,1469.83694882644,0.9998687931905923,0.00033313483329549664
1469.843893412004,1469.843893412004,1.0002684550420788,0.0003333870334247654
1469.8508379975676,1469.8508379975676,1.0001138130728777,0.00033322933343784167
1469.8577825830841,1469.8577825830841,0.9996429456998099,0.00033313012061174526
1469.8647271684615,1469.8647271684615,1.00021923768251,0.0003332702936968289
1469.8716717538387,1469.8716717538387,1.0001586376537113,0.0003332528498773091
1469.87861633917,1469.87861633917,0.9996699099013281,0.000333099011198884
1469.8855609243608,1469.8855609243608,1.000061013394418,0.00033333358852092834
1469.892505509552,1469.892505509552,0.999537278940753,0.00033328106964930043
1469.899450094696,1469.899450094696,1.0003647076132913,0.0003334508438134073
1469.9063946797476,1469.9063946797476,0.9995430531208782,0.0003332890257572545
1469.913339264706,1469.913339264706,1.0001145411616497,0.00033329045800311615
1469.9202838496178,1469.9202838496178,1.000006520334706,0.0003333470079494724
1469.927228434576,1469.927228434576,1.0004897564679918,0.00033326308302675104
1469.9341730193948,1469.9341730193948,1.0005833699355202,0.0003332225112472549
1469.9411176041663,1469.9411176041663,0.9998331495487113,0.00033316918663176285
1469.9480621887055,1469.9480621887055,0.9994594805530023,0.00033306899695133426
1469.9550067733842,1469.9550067733842,0.9997547296872422,0.0003333603679425259
1469.96195135797,1469.96195135797,0.999682416161239,0.00033313265011952644
1469.968895942463,1469.968895942463,1.0001240355148837,0.00033319275908481644
1469.9758405269088,1469.9758405269088,0.9998002444191215,0.0003332792001447992
1469.9827851112611,1469.9827851112611,1.000217827823903,0.0003332158081249797
1469.989729695614,1469.989729695614,1.0006408379971692,0.0003335012684178506
1469.9966742798274,1469.9966742798274,1.0004322506576941,0.00033323941506674637
1470.0036188640406,1470.0036188640406,0.9999341187988143,0.00033317454563335967
1470.0105634482077,1470.0105634482077,0.9998547068443442,0.0003331417686639449
1470.017508032234,1470.017508032234,0.9997536131048548,0.00033321897245839287
1470.024452616261,1470.024452616261,0.9999757324205099,0.0003332629678660674
1470.0313972002414,1470.0313972002414,0.9994040043058071,0.0003331291988368252
1470.0383417841288,1470.0383417841288,1.0002708304305616,0.0003331415720018313
1470.0452863679232,1470.0452863679232,1.0000452050682873,0.00033320170115173746
