time,time,flux,flux_err
1325.2991405916061,1325.2991405916061,1.000048833632359,9.524973003595738e-05
1325.3074738532964,1325.3074738532964,0.9999373693165846,9.524584013726233e-05
1325.3151126767639,1325.3151126767639,1.0000424719312684,8.695492104844928e-05
1325.32205706195,1325.32205706195,0.9999219235711576,8.695436678555044e-05
1325.329001447331,1325.329001447331,0.9998904198110437,8.695302157218785e-05
1325.3359458329128,1325.3359458329128,1.0000852987503464,8.696647427082057e-05
1325.3428902186881,1325.3428902186881,1.0000563808455678,8.696858377419225e-05
1325.3498346046586,1325.3498346046586,1.0000416716400757,8.69724421099298e-05
1325.3567789908182,1325.3567789908182,0.9999803085390809,8.697393713464595e-05
1325.3637233771697,1325.3637233771697,1.0000582163014173,8.698732366508982e-05
1325.3706677637106,1325.3706677637106,1.0000004174632393,8.698794339722937e-05
1325.377612150439,1325.377612150439,1.0000144705788196,8.699645604751967e-05
1325.3845565373513,1325.3845565373513,0.9999907981664882,8.700259765195885e-05
1325.3915009244479,1325.3915009244479,0.9999583278969073,8.700719589781953e-05
1325.3984453117262,1325.3984453117262,0.9999498519089569,8.701639260797609e-05
1325.405389699186,1325.405389699186,1.0000271541435803,8.701912843686527e-05
1325.4123340868232,1325.4123340868232,0.9999098584593739,8.701688355031713e-05
1325.4192784746378,1325.4192784746378,1.0000888667013,8.703375712137649e-05
1325.4262228626262,1325.4262228626262,0.9999870072781141,8.703624526557987e-05
1325.433167250791,1325.433167250791,1.0000522833747072,8.70470117408023e-05
1325.440111639128,1325.440111639128,1.0000039702246613,8.704677936102531e-05
1325.4470560276345,1325.4470560276345,1.0000639187422284,8.705532971308314e-05
1325.4540004163114,1325.4540004163114,1.000014400087326,8.705838465966437e-05
1325.4609448051528,1325.4609448051528,0.9999151624129216,8.705874154144714e-05
1325.4678891941617,1325.4678891941617,0.999976457491529,8.706286905508446e-05
1325.474833583335,1325.474833583335,0.9998967346237982,8.706697755510298e-05
1325.4817779726714,1325.4817779726714,0.9999793182090931,8.708173117249183e-05
1325.4887223621665,1325.4887223621665,0.9999577191994702,8.707994878254992e-05
1325.495666751824,1325.495666751824,1.0000292876744499,8.70942719988683e-05
1325.502611141636,1325.502611141636,1.0001720744029154,8.710117692065809e-05
1325.5095555316072,1325.5095555316072,1.0002179887357021,8.710730537185796e-05
1325.5164999217318,1325.5164999217318,1.0000212407342879,8.710710543137307e-05
1325.5234443120096,1325.5234443120096,1.0000022407688913,8.7113661855603e-05
1325.53038870244,1325.53038870244,0.9998830359900801,8.711311544407326e-05
1325.537333093022,1325.537333093022,0.9998977562203976,8.712148346734909e-05
1325.5442774837497,1325.5442774837497,1.0001327345356903,8.713913587743142e-05
1325.5512218746267,1325.5512218746267,0.9998605773871502,8.713393939437214e-05
1325.5581662656468,1325.5581662656468,1.0000758336539888,8.71542850648778e-05
1325.5651106568152,1325.5651106568152,1.0000514461695817,8.715293648791867e-05
1325.572055048123,1325.572055048123,1.0000287629858438,8.716107425320123e-05
1325.578999439574,1325.578999439574,0.999981536431984,8.716266266398086e-05
1325.5859438311657,1325.5859438311657,0.999972238565943,8.717097693866154e-05
1325.592888222894,1325.592888222894,1.0000407893613528,8.717326274663843e-05
1325.5998326147596,1325.5998326147596,0.9998085941663483,8.716521605778987e-05
1325.6067770067616,1325.6067770067616,0.9999441073967266,8.718102286371014e-05
1325.6137213988977,1325.6137213988977,1.0000314568546531,8.71842038050803e-05
1325.6206657911675,1325.6206657911675,1.0001628275680219,8.718858947659073e-05
1325.6276101835701,1325.6276101835701,0.9999557411711552,8.718636680141788e-05
1325.634554576099,1325.634554576099,1.000003886029336,8.719092263278293e-05
1325.641498968762,1325.641498968762,1.0001599805085397,8.72019015993362e-05
1325.6484433615467,1325.6484433615467,1.0000231965021975,8.719320835704047e-05
1325.655387754463,1325.655387754463,0.9999686134832739,8.719104166521468e-05
1325.6623321475022,1325.6623321475022,0.9998963530354811,8.718922678878249e-05
1325.6692765406676,1325.6692765406676,0.9998357602354826,8.718297840700287e-05
1325.6762209339531,1325.6762209339531,1.000050746822311,8.720164679622116e-05
1325.6831653273598,1325.6831653273598,1.0001262906791903,8.720481126457502e-05
1325.6901097208852,1325.6901097208852,0.9999084696828362,8.719566809614113e-05
1325.6970541145288,1325.6970541145288,1.0000212196378733,8.720326048021576e-05
1325.7039985082934,1325.7039985082934,1.0001878449680504,8.721865647576213e-05
1325.7109429021698,1325.7109429021698,0.9998518891705318,8.720140791429457e-05
1325.7178872961626,1325.7178872961626,1.000059403866124,8.721543130595818e-05
1325.724831690272,1325.724831690272,0.9999259328266378,8.721224475723922e-05
1325.7317760844903,1325.7317760844903,0.9999201872601778,8.721719534622802e-05
1325.7387204788208,1325.7387204788208,1.0000703239959297,8.72319895535934e-05
1325.7456648732646,1325.7456648732646,0.9999944203205947,8.722724550598899e-05
1325.7526092678133,1325.7526092678133,0.9999017429534536,8.722190837009736e-05
1325.7595536624729,1325.7595536624729,1.000118929803198,8.724112641128122e-05
1325.7664980572367,1325.7664980572367,1.0000422263881752,8.723961923736102e-05
1325.7734424521072,1325.7734424521072,1.0000122915712613,8.724096853874889e-05
1325.7803868470821,1325.7803868470821,0.999987458620728,8.724326887106271e-05
1325.7873312421625,1325.7873312421625,1.0000377071583406,8.72524328015495e-05
1325.7942756373454,1325.7942756373454,0.999931404235077,8.724487051842444e-05
1325.801220032629,1325.801220032629,0.9999528746811064,8.724856113268536e-05
1325.8081644280091,1325.8081644280091,0.9999337283950555,8.72519430057055e-05
1325.8151088234915,1325.8151088234915,0.9999889843539822,8.725907146983649e-05
1325.822053219074,1325.822053219074,1.0000966246356147,8.726758992314945e-05
1325.8289976147532,1325.8289976147532,1.0001404514699999,8.727382380766472e-05
1325.8359420105244,1325.8359420105244,1.0000313548382862,8.726951121859023e-05
1325.8428864063947,1325.8428864063947,0.9999608607657388,8.726905439053906e-05
1325.8498308023559,1325.8498308023559,0.9999544947732228,8.726843635653162e-05
1325.856775198414,1325.856775198414,0.9998787805213576,8.725661750461047e-05
1325.8637195945619,1325.8637195945619,1.0000409021347294,8.726904687290452e-05
1325.8706639908016,1325.8706639908016,0.9999992247617181,8.725941992983766e-05
1325.8776083871317,1325.8776083871317,0.9999355770072926,8.725351341852562e-05
1325.8845527835504,1325.8845527835504,0.9999261594395585,8.725251797637234e-05
1325.8914971800566,1325.8914971800566,1.0000283123835918,8.724937773605383e-05
1325.8984415766538,1325.8984415766538,1.0001879449687916,8.725667738796608e-05
1325.9053859733344,1325.9053859733344,1.000011586400268,8.724560216774566e-05
1325.912330370104,1325.912330370104,0.9999732505978883,8.724026099590529e-05
1325.9192747669545,1325.9192747669545,0.9999313145860796,8.723128491423362e-05
1325.9262191638916,1325.9262191638916,0.9999925973830436,8.723667788262463e-05
1325.933163560908,1325.933163560908,1.0000566221500575,8.72406323855934e-05
1325.9401079580093,1325.9401079580093,1.0000687330866846,8.724171575387857e-05
1325.9470523551904,1325.9470523551904,0.9999792933572259,8.723509374096013e-05
1325.9539967524531,1325.9539967524531,0.9998332763497473,8.722871141961185e-05
1325.9614967015898,1325.9614967015898,1.0000580788358013,8.723310639938659e-05
1325.96927442671,1325.96927442671,1.0001302146002629,8.72422606583319e-05
1325.976218824223,1325.976218824223,0.9999737491944181,8.723707059255831e-05
1325.9831632218143,1325.9831632218143,1.0000428691139933,8.72399691973968e-05
1325.9901076194803,1325.9901076194803,0.9998586851239392,8.723540252313195e-05
1325.9970520172246,1325.9970520172246,0.9999226542783237,8.723779356275043e-05
1326.0039964150403,1326.0039964150403,1.0001600551385579,8.725504867343555e-05
1326.010940812933,1326.010940812933,0.9998965719803967,8.724113202544719e-05
1326.0178852108943,1326.0178852108943,0.9999669539380797,8.724408990439233e-05
1326.0248296089298,1326.0248296089298,1.0000520473425782,8.72568813526618e-05
1326.031774007041,1326.031774007041,1.0001404286424402,8.726418665053693e-05
1326.0387184052172,1326.0387184052172,0.999931121400226,8.725417494948677e-05
1326.045662803464,1326.045662803464,0.999867680389187,8.724331536080895e-05
1326.052607201781,1326.052607201781,1.0000232807332645,8.725733415715882e-05
1326.0595516001674,1326.0595516001674,1.0000870072049164,8.725869851039381e-05
1326.0664959986204,1326.0664959986204,0.9999896165419007,8.725543730407666e-05
1326.0734403971414,1326.0734403971414,0.9998775858968256,8.72551348979637e-05
1326.080384795729,1326.080384795729,1.0001922363582265,8.726878445262821e-05
1326.0873291943813,1326.0873291943813,0.9998946300967126,8.726026850003209e-05
1326.0942735931008,1326.0942735931008,1.0001687186361008,8.727103271551445e-05
1326.1012179918825,1326.1012179918825,0.9998633959693016,8.7260534693432e-05
1326.1081623907285,1326.1081623907285,1.0000823035533721,8.726677684400391e-05
1326.1151067896385,1326.1151067896385,0.9999736420776706,8.726542714791753e-05
1326.1220511886079,1326.1220511886079,0.9998795090756541,8.72559438960511e-05
1326.1289955876432,1326.1289955876432,0.9999785413113702,8.726173508326931e-05
1326.1359399867392,1326.1359399867392,0.999936697130704,8.72632881142242e-05
1326.142884385891,1326.142884385891,1.0000995782217281,8.727095956614288e-05
1326.1498287851068,1326.1498287851068,1.0001149457887173,8.72684805429201e-05
1326.1567731843816,1326.1567731843816,0.9999117112849898,8.726032243368323e-05
1326.1637175837154,1326.1637175837154,0.999981438771842,8.726511011865452e-05
1326.1706619831036,1326.1706619831036,1.0000172381868748,8.72706632963302e-05
1326.1776063825537,1326.1776063825537,1.0000555891819745,8.726621978692281e-05
1326.1845507820574,1326.1845507820574,0.9999689925819579,8.726161960086274e-05
1326.1914951816188,1326.1914951816188,1.0000656031149169,8.727131426996307e-05
1326.1984395812365,1326.1984395812365,1.0000024077939405,8.726260432575793e-05
1326.2053839809073,1326.2053839809073,1.000011408634332,8.726921344939665e-05
1326.212328380634,1326.212328380634,0.9998754093242074,8.725660551945938e-05
1326.2192727804154,1326.2192727804154,0.9999262910432563,8.72574610882718e-05
1326.2262171802479,1326.2262171802479,0.9999564515939758,8.726272412644281e-05
1326.2331615801359,1326.2331615801359,1.0000941545793816,8.72644576302023e-05
1326.2401059800745,1326.2401059800745,1.0000495806317073,8.726601551554077e-05
1326.2470503800673,1326.2470503800673,1.0000248321934906,8.726702804211495e-05
1326.2539947801079,1326.2539947801079,1.0000556122746467,8.726647369654237e-05
1326.2609391802025,1326.2609391802025,1.000094070725941,8.726629825479521e-05
1326.2678835803433,1326.2678835803433,0.9999041929390801,8.725058309685091e-05
1326.274827980538,1326.274827980538,0.9998447363928189,8.725611328544596e-05
1326.2817723807786,1326.2817723807786,0.9999052082884073,8.725266911424872e-05
1326.288716781072,1326.288716781072,1.0001261904302734,8.726229610312334e-05
1326.2956611814095,1326.2956611814095,0.9999429123584648,8.725913605873691e-05
1326.3026055817977,1326.3026055817977,1.000058112435881,8.726137054529661e-05
1326.3095499822305,1326.3095499822305,0.9999745376663673,8.725900085688943e-05
1326.3164943827105,1326.3164943827105,1.000202623438133,8.727242239548559e-05
1326.3234387832367,1326.3234387832367,1.000131566720405,8.726848333822623e-05
1326.3303831838107,1326.3303831838107,0.9998719512247505,8.726061681052655e-05
1326.3373275844272,1326.3373275844272,0.9999212425496161,8.726250757010698e-05
1326.3442719850905,1326.3442719850905,0.9998953745708175,8.725903588705216e-05
1326.3539941460945,1326.3539941460945,1.0003385918606789,8.728079594951831e-05
1326.3609385468624,1326.3609385468624,0.9999480023427996,8.727150850480356e-05
1326.3678829476746,1326.3678829476746,1.0000728235729788,8.727542627272089e-05
1326.3748273485282,1326.3748273485282,1.0000526312976388,8.727724541386566e-05
1326.381771749425,1326.381771749425,0.9999493226286974,8.727079709704772e-05
1326.3887161503649,1326.3887161503649,1.0000184546536395,8.728093091670617e-05
1326.3956605513438,1326.3956605513438,1.000112396231426,8.728032273564775e-05
1326.402604952366,1326.402604952366,0.9998995843038534,8.727951304562806e-05
1326.409549353431,1326.409549353431,0.9999093599241895,8.728426411228205e-05
1326.4164937545338,1326.4164937545338,1.0000152713783343,8.728918114349975e-05
1326.4234381556744,1326.4234381556744,0.9999664504350461,8.728412668070235e-05
1326.4303825568572,1326.4303825568572,0.9999643646577427,8.729205912394605e-05
1326.437326958078,1326.437326958078,0.9998841649089792,8.728605398486636e-05
1326.44427135934,1326.44427135934,1.0000357538220415,8.729618924081825e-05
1326.4512157606378,1326.4512157606378,0.9999897704713103,8.729371267655002e-05
1326.4581601619734,1326.4581601619734,1.0000996893655478,8.73009451584865e-05
1326.4651045633484,1326.4651045633484,0.9999420604317164,8.729071402434051e-05
1326.4720489647584,1326.4720489647584,1.000010181936317,8.729619935329812e-05
1326.4789933662064,1326.4789933662064,1.0000216726387305,8.729682927133281e-05
1326.4859377676921,1326.4859377676921,1.000052416188884,8.729902693952489e-05
1326.4928821692097,1326.4928821692097,1.000041983410733,8.730073770721597e-05
1326.4998265707668,1326.4998265707668,0.9999093209542271,8.72931057782603e-05
1326.5067709723583,1326.5067709723583,1.0000941610840681,8.730565346169179e-05
1326.5137153739838,1326.5137153739838,0.9999169843653831,8.729910419801982e-05
1326.5206597756455,1326.5206597756455,0.9999512797340419,8.73047293250573e-05
1326.5276041773398,1326.5276041773398,1.0000105499140293,8.731062697687373e-05
1326.534548579068,1326.534548579068,1.0001630910951658,8.731954421852162e-05
1326.54149298083,1326.54149298083,0.9999734283999606,8.731344818489686e-05
1326.5484373826257,1326.5484373826257,0.9999961734308475,8.731545475553652e-05
1326.555381784455,1326.555381784455,1.0000724073957217,8.732530920845139e-05
1326.5623261863145,1326.5623261863145,0.9996968640637307,8.730326311091907e-05
1326.5692705882077,1326.5692705882077,1.0000404120447501,8.732147732107724e-05
1326.5762149901332,1326.5762149901332,0.9999755025428607,8.732227806755482e-05
1326.5831593920882,1326.5831593920882,1.0000514148132484,8.732915821882124e-05
1326.5901037940762,1326.5901037940762,0.9999849559622833,8.732552930705359e-05
1326.5970481960944,1326.5970481960944,1.000187304163719,8.733258299743696e-05
1326.6039925981436,1326.6039925981436,1.0000795016821846,8.732693502382873e-05
1326.6109370002227,1326.6109370002227,0.9999837050873459,8.733072356403613e-05
1326.6178814023326,1326.6178814023326,0.9998680135159173,8.732753030198295e-05
1326.6248258044716,1326.6248258044716,0.9999262113676263,8.732428436435367e-05
1326.6317702066397,1326.6317702066397,0.9999430191428541,8.732574101823253e-05
1326.6387146088368,1326.6387146088368,1.0000257727025232,8.732673985996212e-05
1326.6456590110633,1326.6456590110633,1.0000628944184626,8.733362429002436e-05
1326.6526034133162,1326.6526034133162,0.9999719142131329,8.733284017087949e-05
1326.659547815601,1326.659547815601,1.0000305774921563,8.733241704270847e-05
1326.6664922179095,1326.6664922179095,1.0000692612793376,8.732986350870199e-05
1326.6734366202497,1326.6734366202497,0.9999210485918724,8.732448255504886e-05
1326.6803810226143,1326.6803810226143,1.0000946049685717,8.732451266852892e-05
1326.6881587532955,1326.6881587532955,0.9998745197578348,8.731533294795919e-05
1326.695658707913,1326.695658707913,1.0000941888029158,8.731736345248056e-05
1326.7026031103646,1326.7026031103646,1.0000146869258904,8.731123077394523e-05
1326.7098252889398,1326.7098252889398,0.9999455212573576,8.730682215968723e-05
1326.717880795847,1326.717880795847,0.9999535917776864,8.731548209581233e-05
1326.7248251983806,1326.7248251983806,1.0000487923474193,8.731680740909529e-05
1326.7317696009386,1326.7317696009386,0.9999214294410409,8.730807138232518e-05
1326.738714003523,1326.738714003523,0.9999820593285615,8.730539716780318e-05
1326.7456584061324,1326.7456584061324,0.9999735480454532,8.730321442180663e-05
1326.7526028087666,1326.7526028087666,1.000110505346276,8.730544918161976e-05
1326.7595472114244,1326.7595472114244,1.0000240318507854,8.729825653866846e-05
1326.7664916141043,1326.7664916141043,1.0001840070541694,8.730959666699396e-05
1326.77343601681,1326.77343601681,0.9998753366864186,8.729455909242399e-05
1326.7803804195396,1326.7803804195396,0.9998715347919103,8.729883957421984e-05
1326.78732482229,1326.78732482229,1.0000082253639138,8.730026337581653e-05
1326.7942692250663,1326.7942692250663,0.9999579204588114,8.729640198759114e-05
1326.8012136278644,1326.8012136278644,0.9999640713633944,8.729749754113691e-05
1326.8081580306848,1326.8081580306848,1.000092802661738,8.730835510224259e-05
1326.815102433529,1326.815102433529,1.0000377054117517,8.730713440847478e-05
1326.8220468363918,1326.8220468363918,1.0000491863830105,8.731027790438042e-05
1326.8289912392786,1326.8289912392786,1.000149338385158,8.730986136655347e-05
1326.835935642186,1326.835935642186,0.9999259334595596,8.7300675370215e-05
1326.842880045117,1326.842880045117,0.9997929411855987,8.729995814531536e-05
1326.8498244480666,1326.8498244480666,1.0000544804779898,8.73025808652008e-05
1326.856768851039,1326.856768851039,0.9999500497095111,8.730326423150027e-05
1326.8637132540312,1326.8637132540312,1.0000658772556732,8.730413412533362e-05
1326.8706576570448,1326.8706576570448,0.999871691113175,8.729551921245798e-05
1326.8776020600785,1326.8776020600785,1.0000829845026238,8.730329374994036e-05
1326.8845464631315,1326.8845464631315,0.9999584061687173,8.729060171734999e-05
1326.8914908662048,1326.8914908662048,1.00008579643603,8.729155336599475e-05
1326.8984352692985,1326.8984352692985,1.000147617424553,8.728707516783596e-05
1326.9053796724108,1326.9053796724108,1.0000996335482848,8.72784821142398e-05
1326.912324075544,1326.912324075544,0.9999527943282557,8.726964715688573e-05
1326.9192684786929,1326.9192684786929,0.9999576109405381,8.727538784765766e-05
1326.926212881865,1326.926212881865,0.9999972702363822,8.726413059800139e-05
1326.9331572850508,1326.9331572850508,0.9998751456762337,8.725735053899797e-05
1326.9401016882591,1326.9401016882591,1.0000047209978136,8.725517429633731e-05
1326.9470460914838,1326.9470460914838,1.0000937306299051,8.724945488365696e-05
1326.9539904947258,1326.9539904947258,1.0000373705155232,8.725032408448336e-05
1326.9609348979868,1326.9609348979868,1.000046324299588,8.724642830051342e-05
1326.9678793012652,1326.9678793012652,0.9999509822372259,8.724019117236318e-05
1326.974823704561,1326.974823704561,1.0000830256004285,8.724159915511693e-05
1326.9817681078748,1326.9817681078748,0.9999746335915548,8.723382265622447e-05
1326.9887125112052,1326.9887125112052,0.9999657055752891,8.723020436562291e-05
1326.9956569145525,1326.9956569145525,1.0000117296996123,8.722705197881461e-05
1327.0026013179152,1327.0026013179152,0.9998880397927392,8.722646982296338e-05
1327.009545721297,1327.009545721297,1.0000623233615686,8.722884579806501e-05
1327.016490124693,1327.016490124693,1.0001320911514604,8.723881597827328e-05
1327.0234345281056,1327.0234345281056,0.9999777908961495,8.72286860553812e-05
1327.0303789315371,1327.0303789315371,1.0001234554281244,8.723924194462129e-05
1327.0373233349796,1327.0373233349796,0.9999798881807657,8.72329896501149e-05
1327.0442677384417,1327.0442677384417,0.9999529343559646,8.723446897679022e-05
1327.0512121419165,1327.0512121419165,0.9999156810892096,8.722605706568744e-05
1327.0587120976884,1327.0587120976884,1.0000687509908657,8.723442744773775e-05
1327.0664898296177,1327.0664898296177,0.9998829813209973,8.723077006014009e-05
1327.0734342331439,1327.0734342331439,1.000113441400814,8.72317523167478e-05
