time,time,flux,flux_err
1325.2999869020323,1325.2999869020323,0.9989593902170464,0.0007448374989668343
1325.3083201029292,1325.3083201029292,1.0007381764239411,0.0007455456505377322
1325.3159588706565,1325.3159588706565,1.0008420455374434,0.0006808562852221951
1325.322903205132,1325.322903205132,0.9996201799514444,0.0006808570513676743
1325.3298475397937,1325.3298475397937,0.9999214970678907,0.0006813659623722717
1325.3367918746185,1325.3367918746185,1.0000526231260438,0.0006818129013553163
1325.343736209618,1325.343736209618,1.0007465269280085,0.0006822665479947329
1325.3506805448037,1325.3506805448037,1.000025924173498,0.0006826493194399107
1325.357624880129,1325.357624880129,0.9997101554299419,0.000683002166558133
1325.364569215664,1325.364569215664,1.0005297095895411,0.0006839404612567599
1325.3715135513505,1325.3715135513505,0.9994626085854807,0.0006841611317524456
1325.3784578871762,1325.3784578871762,0.9999834969026077,0.000684850884814364
1325.3854022232003,1325.3854022232003,0.9993822461701309,0.0006853882196466768
1325.3923465593637,1325.3923465593637,1.0009679597834664,0.0006861519530096968
1325.3992908957132,1325.3992908957132,0.9991900900044085,0.000686433585938469
1325.4062352322146,1325.4062352322146,0.9999885163383979,0.0006871632478504324
1325.41317956889,1325.41317956889,1.0007880434199559,0.0006878818059210192
1325.420123905706,1325.420123905706,0.9989237953441947,0.0006879768570772193
1325.427068242696,1325.427068242696,1.001099747528006,0.0006890983606888751
1325.4340125798371,1325.4340125798371,0.9995045844267715,0.000689191554127405
1325.4409569171303,1325.4409569171303,1.0000193258672225,0.000689938874848448
1325.4479012545742,1325.4479012545742,1.000030308913746,0.0006904676128326795
1325.4548455921813,1325.4548455921813,0.9995535946293191,0.0006908555380810643
1325.461789929928,1325.461789929928,1.0010430732167117,0.0006917979259472704
1325.4687342678376,1325.4687342678376,1.0001388313404789,0.000692072375007462
1325.4756786058992,1325.4756786058992,0.999574820163784,0.000692565335733463
1325.4826229440996,1325.4826229440996,0.9993156244478701,0.0006932434318780928
1325.4895672824637,1325.4895672824637,0.999707404600126,0.000694127206779381
1325.4965116209673,1325.4965116209673,1.0009711632615648,0.0006949737385480313
1325.5034559595983,1325.5034559595983,0.9985165476139686,0.000695137164287325
1325.5104002983935,1325.5104002983935,1.0011307106247185,0.0006963483056971829
1325.5173446373274,1325.5173446373274,1.0001626685260254,0.0006967768041944867
1325.5242889764015,1325.5242889764015,1.0005681577649663,0.0006976605099773045
1325.5312333156032,1325.5312333156032,1.0001391770852568,0.0006981286464395225
1325.5381776549568,1325.5381776549568,0.9990977752635679,0.0006987545826992339
1325.5451219944496,1325.5451219944496,1.000027343670145,0.0006994724466855381
1325.5520663340826,1325.5520663340826,0.9995262029263617,0.0007001129711405587
1325.5590106738434,1325.5590106738434,1.0002440022810744,0.0007010113810667887
1325.565955013732,1325.565955013732,0.9994606918986824,0.00070154018872108
1325.5728993537607,1325.5728993537607,1.000522872420282,0.0007025159371713765
1325.5798436939176,1325.5798436939176,1.0005943210343315,0.0007030655699054345
1325.5867880342253,1325.5867880342253,1.001139785782895,0.0007038354003598933
1325.593732374638,1325.593732374638,0.9992876743329685,0.0007039634336355597
1325.6006767151785,1325.6006767151785,0.9994293053257512,0.0007046243206177109
1325.6076210558708,1325.6076210558708,1.000169228808543,0.0007049901577157061
1325.6145653966678,1325.6145653966678,0.999177950695406,0.0007051857677197606
1325.6215097375928,1325.6215097375928,0.9991443436909192,0.000705706383622385
1325.6284540786457,1325.6284540786457,0.9997600951063174,0.0007060071072248115
1325.6353984198267,1325.6353984198267,1.0013986185446546,0.0007065798103446521
1325.6423427611242,1325.6423427611242,1.0002443501591796,0.0007065761378616238
1325.649287102538,1325.649287102538,1.0006887632413468,0.0007068636706171015
1325.65623144408,1325.65623144408,1.000486031740672,0.0007070824924700469
1325.6631757857265,1325.6631757857265,0.9992928225867672,0.0007068578034349439
1325.6701201275014,1325.6701201275014,0.9994829066682174,0.000706978577795404
1325.6770644693925,1325.6770644693925,0.9991473301339859,0.0007072625478154194
1325.6840088114004,1325.6840088114004,0.9995093337454135,0.0007075473885054537
1325.6909531535246,1325.6909531535246,1.0008672353567585,0.0007081709323176652
1325.6978974957415,1325.6978974957415,1.0006780190068147,0.0007086473775326673
1325.7048418380637,1325.7048418380637,1.0010262050420384,0.0007090388726021614
1325.7117861805366,1325.7117861805366,0.9999346680651853,0.000709157497969472
1325.7187305230916,1325.7187305230916,0.9999332007995065,0.0007094350751806132
1325.7256748657624,1325.7256748657624,0.9994477036234096,0.000709738113042107
1325.73261920855,1325.73261920855,0.9986181640783451,0.0007100555882281645
1325.739563551431,1325.739563551431,1.0003752966333774,0.0007109526530903633
1325.7465078944165,1325.7465078944165,1.0000368080393711,0.0007114069667318178
1325.753452237518,1325.753452237518,1.000019235688347,0.000711922326288902
1325.7603965807018,1325.7603965807018,1.000510207909597,0.0007125165992288981
1325.7673409240247,1325.7673409240247,1.000192407640602,0.0007127858740852086
1325.7742852674178,1325.7742852674178,1.0004813297047874,0.0007136256780110597
1325.7812296109503,1325.7812296109503,0.9998921998627676,0.0007139902177970674
1325.78817395453,1325.78817395453,0.9992564514765494,0.0007142370320342875
1325.7951182982367,1325.7951182982367,0.9996746675020367,0.0007147694264886763
1325.8020626420255,1325.8020626420255,1.0005714940614225,0.000715416836254106
1325.809006985931,1325.809006985931,0.9997491407536826,0.0007157298239381004
1325.815951329929,1325.815951329929,1.0004260253736692,0.000716234973336263
1325.8228956740327,1325.8228956740327,0.9998805682030142,0.0007165896519472565
1325.8298400182052,1325.8298400182052,1.0006340971516847,0.0007169910435871746
1325.8367843624826,1325.8367843624826,0.9992498236642005,0.0007168601642809182
1325.843728706854,1325.843728706854,0.9996905853279493,0.0007171690011532302
1325.8506730513059,1325.8506730513059,0.9987983946401655,0.0007170976918058715
1325.8576173958747,1325.8576173958747,1.0000001141200676,0.0007173568288154934
1325.8645617405018,1325.8645617405018,0.9998651418318236,0.0007172910724369948
1325.8715060852337,1325.8715060852337,1.0004859652293594,0.0007170466990644688
1325.8784504300586,1325.8784504300586,0.9987389860132833,0.0007166583646276428
1325.8853947749528,1325.8853947749528,1.0011624027675565,0.000717041845091496
1325.8923391199528,1325.8923391199528,0.9997940587859571,0.0007165460412813964
1325.899283465022,1325.899283465022,1.0010684529861755,0.0007167041773086626
1325.9062278101842,1325.9062278101842,0.9990901534975951,0.0007161647108928683
1325.9131721554513,1325.9131721554513,1.0003492995014092,0.0007165366870807683
1325.920116500765,1325.920116500765,1.0007899827245619,0.0007166929423487045
1325.927060846184,1325.927060846184,1.0002103614622515,0.0007164762167587391
1325.9340051916604,1325.9340051916604,0.9992232193772974,0.0007163172736623161
1325.9409495372424,1325.9409495372424,1.0001433422632016,0.0007164873309378997
1325.9478938828938,1325.9478938828938,0.9987146248642288,0.0007160611410594928
1325.9548382286266,1325.9548382286266,1.0002457233073696,0.0007167170562543906
1325.9623381221004,1325.9623381221004,1.0001519731770188,0.0007168508508282603
1325.9701157895138,1325.9701157895138,0.998485054104479,0.0007164327228412344
1325.9770601354912,1325.9770601354912,1.0005899496462534,0.0007170045149150389
1325.9840044815496,1325.9840044815496,1.001282653833862,0.0007172901090563453
1325.990948827667,1325.990948827667,1.000467642575297,0.0007170999886789479
1325.9978931738774,1325.9978931738774,0.9994782987007227,0.0007170568374422177
1326.0048375201573,1326.0048375201573,1.0001856775048792,0.0007175949068266007
1326.0117818665074,1326.0117818665074,0.998886498529376,0.0007176957526651799
1326.0187262129502,1326.0187262129502,0.9997673809370926,0.0007183689855640044
1326.0256705594281,1326.0256705594281,1.0007208907606138,0.0007189041065128605
1326.0326149059997,1326.0326149059997,1.0010307740453601,0.0007193310042265576
1326.03955925264,1326.03955925264,1.0003143102370473,0.0007192173419969118
1326.0465035993395,1326.0465035993395,1.0003049396825363,0.0007193018755638576
1326.0534479461198,1326.0534479461198,0.999107612559696,0.0007192745382758694
1326.060392292959,1326.060392292959,0.9983906688864709,0.0007191376446345282
1326.0673366398673,1326.0673366398673,1.0010091591881907,0.0007201115860609393
1326.0742809868457,1326.0742809868457,1.0012881944857386,0.0007202412840421515
1326.081225333883,1326.081225333883,0.9986635153722505,0.0007199741085829056
1326.088169681001,1326.088169681001,0.9995148114821089,0.0007203403228478845
1326.095114028166,1326.095114028166,1.00104710122068,0.0007209264806850711
1326.1020583754123,1326.1020583754123,1.0000375638154277,0.0007207915767343749
1326.109002722717,1326.109002722717,0.9995860209986007,0.0007208094851642464
1326.1159470700795,1326.1159470700795,1.0007957483194854,0.0007211279997388646
1326.1228914175,1326.1228914175,0.9995561672382743,0.0007209833346376005
1326.1298357649912,1326.1298357649912,0.9996733884608368,0.0007212519227998889
1326.1367801125402,1326.1367801125402,0.9999090250331708,0.0007212984171333363
1326.1437244601707,1326.1437244601707,1.0001489281595008,0.0007215305925191147
1326.1506688078246,1326.1506688078246,0.9990203633718562,0.0007215300347200015
1326.1576131555476,1326.1576131555476,1.0002281439700214,0.0007218538443227102
1326.1645575033301,1326.1645575033301,1.0014659400771948,0.0007220993488076167
1326.1715018511811,1326.1715018511811,1.0000467594598041,0.0007218318041841037
1326.1784461990796,1326.1784461990796,0.9993878249152852,0.0007216701006430377
1326.1853905470361,1326.1853905470361,1.0000267895736707,0.0007218018971951182
1326.192334895062,1326.192334895062,0.9996946039434608,0.0007217598712106106
1326.1992792431352,1326.1992792431352,1.0001475698828863,0.000721879793000933
1326.2062235912545,1326.2062235912545,0.9988915701341885,0.0007217669382263997
1326.2131679394442,1326.2131679394442,1.0014316363473246,0.0007223206041505898
1326.220112287668,1326.220112287668,0.9997524350234785,0.0007220396716843192
1326.227056635962,1326.227056635962,0.9993344023547065,0.0007219769497064644
1326.2340009843026,1326.2340009843026,1.0005956934827118,0.0007223265186781519
1326.240945332713,1326.240945332713,1.0000638488063027,0.0007220165445481315
1326.247889681147,1326.247889681147,1.0002216475988164,0.0007223251031085254
1326.2548340296503,1326.2548340296503,1.0003606549513553,0.0007223506690823455
1326.261778378201,1326.261778378201,0.9996038831831585,0.0007221733497864018
1326.2687227267975,1326.2687227267975,0.9995242403325599,0.0007221543727147784
1326.275667075452,1326.275667075452,0.9998355310928855,0.0007221276611649034
1326.2826114241539,1326.2826114241539,0.9999756857616333,0.0007222552819567965
1326.289555772925,1326.289555772925,1.0004784076568125,0.0007223703351094835
1326.2965001217199,1326.2965001217199,0.9993420745741751,0.0007223670209814446
1326.3034444705493,1326.3034444705493,1.0005475973863522,0.0007225581978412991
1326.310388819437,1326.310388819437,1.0006681457296507,0.0007225736414273726
1326.3173331683831,1326.3173331683831,0.9996407183889076,0.0007225749898794046
1326.3242775173753,1326.3242775173753,0.9995032550986881,0.0007227012023898018
1326.3312218663916,1326.3312218663916,1.0006335875520467,0.0007229113122644927
1326.3381662154768,1326.3381662154768,0.9999115312102399,0.0007228815181987246
1326.3451105646095,1326.3451105646095,0.9992653552684011,0.0007229511041143342
1326.3548326534576,1326.3548326534576,1.0002727612791833,0.0007237402223616723
1326.361777002694,1326.361777002694,0.9993732031665632,0.0007236811382821194
1326.3687213519663,1326.3687213519663,1.0005811073383664,0.0007238379150692265
1326.3756657012962,1326.3756657012962,0.9996199655672925,0.0007239252407984887
1326.3826100506733,1326.3826100506733,0.9999267162359956,0.0007241285523165023
1326.3895544000497,1326.3895544000497,1.0005138138770255,0.000724321650382731
1326.3964987494962,1326.3964987494962,1.0002709847608187,0.0007245267635365891
1326.4034430989893,1326.4034430989893,1.0003553781306362,0.0007248815941009575
1326.4103874485177,1326.4103874485177,1.000326305342347,0.0007248107994702712
1326.4173317980922,1326.4173317980922,0.9996120210405707,0.0007247283942720111
1326.42427614769,1326.42427614769,1.0001823408520472,0.000725093180161316
1326.431220497358,1326.431220497358,0.9989054028895712,0.0007251518617739474
1326.4381648470253,1326.4381648470253,0.9992156499913637,0.0007253170802686395
1326.445109196763,1326.445109196763,1.0000839751828863,0.000725711006192572
1326.452053546524,1326.452053546524,1.0013477004969153,0.0007262503170472532
1326.4589978963315,1326.4589978963315,1.0003383413415625,0.0007261993303507929
1326.4659422461853,1326.4659422461853,1.0001240752365756,0.0007264020004564181
1326.472886596051,1326.472886596051,1.0005843427605527,0.0007266917536715757
1326.4798309459634,1326.4798309459634,0.9995637443028583,0.0007265315960718491
1326.4867752959221,1326.4867752959221,0.9988217886478324,0.0007264890688475577
1326.4937196459157,1326.4937196459157,1.0001165019632663,0.0007271119736632628
1326.5006639959445,1326.5006639959445,0.9988053324654326,0.0007269536973856648
1326.5076083460078,1326.5076083460078,1.000052445916861,0.0007273515530509652
1326.5145526961064,1326.5145526961064,1.0011148111086643,0.0007278353724042389
1326.5214970462398,1326.5214970462398,1.0001460259027106,0.0007279158209993358
1326.5284413964084,1326.5284413964084,0.9999827195533237,0.0007281869608749419
1326.535385746623,1326.535385746623,1.001135503201477,0.000728786553104662
1326.542330096873,1326.542330096873,0.9994592976278923,0.0007286557484753283
1326.5492744471228,1326.5492744471228,1.000509272826851,0.0007290941234853106
1326.556218797419,1326.556218797419,1.0003067572141906,0.0007295065451433239
1326.5631631477622,1326.5631631477622,0.9996535819932056,0.000729325894289185
1326.5701074981166,1326.5701074981166,0.9987296071810308,0.0007291205600488279
1326.5770518485178,1326.5770518485178,0.999364637654832,0.000729568239419743
1326.5839961989536,1326.5839961989536,0.9995756781017284,0.0007296677439710137
1326.5909405494135,1326.5909405494135,1.0008269111651875,0.0007299867528410674
1326.597884899919,1326.597884899919,0.9999303703850719,0.0007300039217033535
1326.60482925046,1326.60482925046,1.0001580202403062,0.0007301548131308399
1326.611773601001,1326.611773601001,1.0007766475999404,0.0007303734020335595
1326.6187179515885,1326.6187179515885,1.0013376239244454,0.0007306037212424774
1326.6256623021989,1326.6256623021989,1.0000333868627849,0.0007304019862155205
1326.6326066528447,1326.6326066528447,1.0002421464516402,0.000730365012525097
1326.6395510035252,1326.6395510035252,0.9979285226626498,0.0007298093358793
1326.6464953542293,1326.6464953542293,0.9995062318682422,0.000730061259509423
1326.6534397049677,1326.6534397049677,1.0001503959500273,0.0007302575347599266
1326.6603840557184,1326.6603840557184,0.9989962667945473,0.0007297943086180405
1326.6673284065034,1326.6673284065034,0.9995394812540146,0.0007295559848121661
1326.6742727573242,1326.6742727573242,1.0021964930355476,0.0007301436195946936
1326.6812171081558,1326.6812171081558,1.0008438061726121,0.0007295554159623322
1326.6889947811574,1326.6889947811574,0.9997392692659843,0.0007292524234722156
1326.6964946801256,1326.6964946801256,1.0002575869957206,0.0007290807961381445
1326.7034390310505,1326.7034390310505,0.9988029523655957,0.0007285025437026853
1326.7106611560557,1326.7106611560557,1.0004127223575572,0.0007287198866483675
1326.7187166031954,1326.7187166031954,1.0005951062879572,0.0007285707039897534
1326.7256609542135,1326.7256609542135,1.000010239323173,0.0007282245361135864
1326.732605305255,1326.732605305255,0.9988176589918373,0.0007275768050669306
1326.739549656308,1326.739549656308,0.9999622843413739,0.0007278281137908909
1326.7464940074076,1326.7464940074076,0.9990765874204074,0.0007276231414182746
1326.7534383584953,1326.7534383584953,1.0007235636912495,0.0007277262125501066
1326.760382709665,1326.760382709665,1.0000546002442747,0.0007273198118888306
1326.7673270608109,1326.7673270608109,1.0001933454509147,0.000727183555304171
1326.774271412004,1326.774271412004,1.0001039056608072,0.0007272281377496059
1326.7812157632202,1326.7812157632202,1.0011214720563175,0.0007272698178741544
1326.7881601144477,1326.7881601144477,0.9992945245247509,0.0007269666543062495
1326.7951044657107,1326.7951044657107,0.9999183341911735,0.0007270612543441135
1326.802048816985,1326.802048816985,0.9998479172264215,0.0007272026936940667
1326.8089931682705,1326.8089931682705,1.0008492369344195,0.0007274642485440516
1326.8159375196028,1326.8159375196028,0.999269452283485,0.0007272324740262051
1326.8228818709472,1326.8228818709472,0.999208272325488,0.0007273925231885656
1326.829826222303,1326.829826222303,0.9991928005224539,0.0007272893582086176
1326.836770573717,1326.836770573717,0.9998895872825843,0.0007273026757288867
1326.843714925131,1326.843714925131,0.9996952273223343,0.0007273148575395929
1326.8506592765448,1326.8506592765448,1.0002938738224585,0.0007271758161037454
1326.8576036279937,1326.8576036279937,1.0002599802811403,0.0007271981419816202
1326.8645479794664,1326.8645479794664,1.0005431179853708,0.0007269923535915331
1326.8714923309617,1326.8714923309617,1.0002051719347516,0.0007267070133706768
1326.8784366824689,1326.8784366824689,0.9998976675651191,0.0007264515243208824
1326.8853810340106,1326.8853810340106,1.0004000978305592,0.0007262126740844974
1326.8923253855646,1326.8923253855646,0.9996571884368308,0.0007256981583302095
1326.8992697371298,1326.8992697371298,0.9997876774365825,0.0007253613530345515
1326.9062140887183,1326.9062140887183,1.0003741422748256,0.0007248850658847526
1326.91315844033,1326.91315844033,0.9990109703288,0.0007242926461207853
1326.920102791954,1326.920102791954,0.9997542592122777,0.0007239524507193628
1326.927047143612,1326.927047143612,1.000756787026544,0.0007236264307655641
1326.9339914952593,1326.9339914952593,0.9996393514255528,0.0007230191684767902
1326.9409358469638,1326.9409358469638,0.999710565551695,0.000722520864740665
1326.947880198669,1326.947880198669,1.000934101251794,0.0007224559484522628
1326.954824550374,1326.954824550374,1.0001724434516175,0.0007218816711206261
1326.961768902114,1326.961768902114,0.9996965488196314,0.0007215773033173098
1326.9687132538659,1326.9687132538659,0.9997599685230497,0.0007210523510257131
1326.9756576056402,1326.9756576056402,0.999749152353516,0.0007206534095683473
1326.982601957427,1326.982601957427,1.0008765977145233,0.0007205819736768052
1326.989546309225,1326.989546309225,0.9995313365948334,0.0007202753986696091
1326.9964906610471,1326.9964906610471,0.9993713588385521,0.0007200119503764997
1327.0034350128794,1327.0034350128794,1.0007574597329403,0.0007202820837111633
1327.010379364736,1327.010379364736,1.0002855595451965,0.00072005078401073
1327.017323716604,1327.017323716604,0.9993405943611853,0.0007197402588831781
1327.0242680684953,1327.0242680684953,1.001554415490625,0.0007200094898312385
1327.0312124203865,1327.0312124203865,0.998657606006678,0.0007193919019103537
1327.0381567723125,1327.0381567723125,0.9998998980454937,0.0007195823702117102
1327.0451011242392,1327.0451011242392,0.9986928666356804,0.000719335223766459
1327.0520454761768,1327.0520454761768,0.9997976263767955,0.0007197242654967272
1327.0595453762976,1327.0595453762976,1.001239448949983,0.0007198333676284421
1327.0673230504985,1327.0673230504985,0.9999125037675158,0.0007196111061001365
1327.0742674024943,1327.0742674024943,1.0006953776743246,0.0007197760187340601
