time,time,flux,flux_err
1468.2794044320008,1468.2794044320008,0.9997849317532221,5.9770900096487516e-05
1468.2877378888686,1468.2877378888686,0.9998339000057733,5.977209900300149e-05
1468.2960713456196,1468.2960713456196,0.999928055178633,5.9773576247179e-05
1468.3044048022546,1468.3044048022546,0.9998738726679356,5.977574551681489e-05
1468.3120438040676,1468.3120438040676,1.0001374175940732,5.457226736744538e-05
1468.3189883510277,1468.3189883510277,0.9999238041651216,5.456661411023159e-05
1468.3259328978945,1468.3259328978945,1.000182136823288,5.457542494046096e-05
1468.3328774447155,1468.3328774447155,1.0000972837277473,5.45726752883006e-05
1468.3398219913965,1468.3398219913965,1.0000467133844295,5.457186306131251e-05
1468.346766537984,1468.346766537984,1.0000988360641418,5.457091114452333e-05
1468.3537110844784,1468.3537110844784,1.000025828489397,5.456782768089459e-05
1468.3606556308337,1468.3606556308337,1.0000691267337583,5.457153875371367e-05
1468.3676001771885,1468.3676001771885,1.0000832649359988,5.457057738973495e-05
1468.3745447234967,1468.3745447234967,0.9999746133294231,5.456926580335083e-05
1468.3873226882304,1468.3873226882304,1.000056411037525,5.456313802307326e-05
1468.398156179939,1468.398156179939,0.9998955990538108,5.455420383563118e-05
1468.405100725689,1468.405100725689,1.000049007081014,5.4548854997184326e-05
1468.4120452714847,1468.4120452714847,0.9999733295552253,5.455389514961315e-05
1468.4189898170941,1468.4189898170941,0.9999678375143175,5.4558147530963135e-05
1468.4259343626577,1468.4259343626577,1.0000181109434618,5.4562458557997025e-05
1468.4328789080348,1468.4328789080348,0.9999533439021835,5.455701289768187e-05
1468.4398234534585,1468.4398234534585,1.0002303922835947,5.456627199534412e-05
1468.446767998649,1468.446767998649,1.000033440259756,5.456278024278996e-05
1468.4537125438399,1468.4537125438399,0.999967323776568,5.456067737676626e-05
1468.460657088844,1468.460657088844,1.0000779855631632,5.456197897564566e-05
1468.467601633849,1468.467601633849,1.000242598266023,5.456033246734562e-05
1468.474546178714,1468.474546178714,1.0000163575062135,5.455332947187288e-05
1468.4814907234847,1468.4814907234847,1.0000667503637621,5.4556036233751565e-05
1468.48843526821,1468.48843526821,1.0000549544212114,5.4559577399169395e-05
1468.4953798127958,1468.4953798127958,0.9998286838395769,5.455348525039785e-05
1468.5023243572882,1468.5023243572882,0.9997644230233723,5.455229016398293e-05
1468.5092689016872,1468.5092689016872,0.9997759427578646,5.4552422210855825e-05
1468.516213445993,1468.516213445993,0.9999776751741777,5.4548000631965976e-05
1468.5231579901592,1468.5231579901592,1.0000787080600986,5.455298777041805e-05
1468.5301025344186,1468.5301025344186,1.0003809954697362,5.45673066689127e-05
1468.5370470784458,1468.5370470784458,1.0003931150637386,5.456231852811229e-05
1468.543991622239,1468.543991622239,0.999985974527233,5.454774555460988e-05
1468.5509361661257,1468.5509361661257,1.0001594784321932,5.455695626117868e-05
1468.5578807099198,1468.5578807099198,0.9997830567627739,5.455124021865321e-05
1468.5648252535273,1468.5648252535273,0.999838625570435,5.4555199967415316e-05
1468.5717697971347,1468.5717697971347,0.999881728420436,5.455275426392309e-05
1468.5787143405557,1468.5787143405557,0.9999733650401093,5.455556564844477e-05
1468.5856588839772,1468.5856588839772,1.000143566984264,5.456673491041892e-05
1468.5926034272586,1468.5926034272586,0.9999666890881678,5.456322417673574e-05
1468.5995479704472,1468.5995479704472,1.0001330693038537,5.456249353481428e-05
1468.6064925135427,1468.6064925135427,0.9998127005785262,5.455951342121098e-05
1468.6134370564978,1468.6134370564978,1.0004512468271876,5.455864643451006e-05
1468.6203815995464,1468.6203815995464,0.9999711401837267,5.455459245306455e-05
1468.6273261422696,1468.6273261422696,0.9998454515650342,5.455966657417107e-05
1468.6342706849923,1468.6342706849923,0.9998758856582416,5.4561557979892205e-05
1468.6412152276216,1468.6412152276216,1.0000592222090823,5.456320836779386e-05
1468.6481597701581,1468.6481597701581,1.0001509206311212,5.45622688204932e-05
1468.6551043126015,1468.6551043126015,0.9998024047711154,5.455681228003987e-05
1468.6620488549052,1468.6620488549052,1.0001318534954686,5.4560530117038204e-05
1468.668993397209,1468.668993397209,0.9999473323620064,5.4558242840224744e-05
1468.6759379394193,1468.6759379394193,0.9999163482191518,5.45620102660475e-05
1468.68288248149,1468.68288248149,1.0001235208013708,5.4556654743283466e-05
1468.6898270234676,1468.6898270234676,1.0000004774437887,5.455650385654935e-05
1468.6967715653523,1468.6967715653523,0.9997849364674141,5.4554899204239036e-05
1468.7037161071435,1468.7037161071435,1.0000754868964365,5.455430183292122e-05
1468.710660648842,1468.710660648842,0.9999796302938684,5.455907006586359e-05
1468.7176051904469,1468.7176051904469,1.0000489920900368,5.455850359112514e-05
1468.7245497319593,1468.7245497319593,0.9997194445755351,5.45486027093744e-05
1468.731494273378,1468.731494273378,0.9999808953918234,5.4556000627166834e-05
1468.7384388147036,1468.7384388147036,1.0002080248289382,5.456661964451416e-05
1468.7453833559364,1468.7453833559364,0.9998727059627239,5.456293094402362e-05
1468.752327897122,1468.752327897122,1.0002991419079743,5.456414911263076e-05
1468.7592724381223,1468.7592724381223,0.999956733217029,5.456415808572812e-05
1468.7662169790756,1468.7662169790756,1.0001300766686345,5.456460565614816e-05
1468.773161519982,1468.773161519982,0.9996843788694081,5.455800928377862e-05
1468.7801060607023,1468.7801060607023,1.0000605656804118,5.4562614487562976e-05
1468.7870506014692,1468.7870506014692,1.0000509638957664,5.4570997381236094e-05
1468.7939951420035,1468.7939951420035,0.9998507924727654,5.456575932885234e-05
1468.8009396825378,1468.8009396825378,0.9999913028038836,5.457086303804783e-05
1468.8078842228856,1468.8078842228856,1.0000860402672527,5.457614595573967e-05
1468.8148287632334,1468.8148287632334,1.0001598128587277,5.458017993898385e-05
1468.8217733034417,1468.8217733034417,0.9998168107591654,5.456996165033556e-05
1468.8287178435567,1468.8287178435567,0.9999660633552476,5.4562359960726364e-05
1468.835662383579,1468.835662383579,0.9996794381641806,5.455332353490444e-05
1468.842606923507,1468.842606923507,1.0001442266100262,5.456966120199744e-05
1468.8495514633892,1468.8495514633892,1.0001462863390072,5.456927915104645e-05
1468.8564960031322,1468.8564960031322,0.9998658682377803,5.457220352972048e-05
1468.8634405427815,1468.8634405427815,1.0003107642075482,5.4581648479888424e-05
1468.8703850822913,1468.8703850822913,1.000163482761408,5.457547400451901e-05
1468.8773296218938,1468.8773296218938,1.000093295540199,5.45793216869084e-05
1468.8842741612636,1468.8842741612636,0.9998735466323507,5.457767024747498e-05
1468.8912187004946,1468.8912187004946,0.9998956132497254,5.457484312218865e-05
1468.8981632397247,1468.8981632397247,1.0001033634181775,5.4573519180891435e-05
1468.905107778815,1468.905107778815,0.9998599257747921,5.4577026982871154e-05
1468.9120523178121,1468.9120523178121,0.9997280732999012,5.4581671606207427e-05
1468.9189968567632,1468.9189968567632,1.0001444608757806,5.458767628316261e-05
1468.9259413955747,1468.9259413955747,1.000182113712616,5.459112519433727e-05
1468.9328859343393,1468.9328859343393,1.000039284153987,5.4579392351687544e-05
1468.9398304729643,1468.9398304729643,1.000150177295946,5.45879731758756e-05
1468.946775011496,1468.946775011496,1.0002007471071122,5.4586463249959615e-05
1468.953719549981,1468.953719549981,0.9998633317590848,5.4576543443298365e-05
1468.961497432911,1468.961497432911,1.0000561858915376,5.459054590394441e-05
1468.96899753436,1468.96899753436,0.9997371617573098,5.45884150140998e-05
1468.9759420723792,1468.9759420723792,0.9999962372033595,5.4595592638912515e-05
1468.9828866105386,1468.9828866105386,0.9997913030294754,5.4592237227630736e-05
1468.9898311484653,1468.9898311484653,1.0000948315977045,5.4593620468044806e-05
1468.9967756863916,1468.9967756863916,0.9999148621134701,5.458747910397451e-05
1469.0037202241783,1469.0037202241783,1.0002744251735525,5.459176444052129e-05
1469.0106647619184,1469.0106647619184,0.9999279628101896,5.459213475247268e-05
1469.0176092995189,1469.0176092995189,1.0001590747638136,5.4592409695454044e-05
1469.02455383698,1469.02455383698,1.000179062603421,5.460251484294635e-05
1469.0314983743942,1469.0314983743942,0.9998995271379109,5.458969918775881e-05
1469.0384429117614,1469.0384429117614,1.0000792533588458,5.4592561625963883e-05
1469.045387449036,1469.045387449036,1.000076121872104,5.4594214669244226e-05
1469.0523319860774,1469.0523319860774,0.9999181584095267,5.45948513158097e-05
1469.0592765231195,1469.0592765231195,1.0004408211177367,5.4596868120689515e-05
1469.066221060161,1469.066221060161,0.999781894432416,5.45980370202652e-05
1469.0731655970626,1469.0731655970626,0.9999195408065342,5.4592558499849966e-05
1469.0801101338723,1469.0801101338723,0.9997588010371891,5.460220935715309e-05
1469.0870546705871,1469.0870546705871,1.0000232575533805,5.460002283696594e-05
1469.0939992071635,1469.0939992071635,1.0000968697544192,5.460838097800404e-05
1469.100943743693,1469.100943743693,1.000360477662755,5.461140899138279e-05
1469.1078882800828,1469.1078882800828,0.9999868221832824,5.46025781827856e-05
1469.1148328164263,1469.1148328164263,0.9999854092002425,5.4606409594516086e-05
1469.1217773526294,1469.1217773526294,1.0000449735895642,5.461105871100683e-05
1469.1287218887865,1469.1287218887865,0.9998579031652859,5.460673884167096e-05
1469.1356664247571,1469.1356664247571,0.9999901294138928,5.461233639155944e-05
1469.1426109608678,1469.1426109608678,1.0001779920077323,5.461304031894785e-05
1469.1495554966987,1469.1495554966987,0.99973747329977,5.4612204934014974e-05
1469.1565000323894,1469.1565000323894,0.9999777729851955,5.4623047010060695e-05
1469.1634445681273,1469.1634445681273,0.9999250685252903,5.462749452883372e-05
1469.170389103679,1469.170389103679,1.0003443754494334,5.462748266359326e-05
1469.177333639184,1469.177333639184,1.0000695273687454,5.462477876904584e-05
1469.184278174596,1469.184278174596,0.9999767569150313,5.4623398343808414e-05
1469.1912227099613,1469.1912227099613,0.9999709419160467,5.461981847017866e-05
1469.1981672451402,1469.1981672451402,1.0001609644136538,5.462191011532202e-05
1469.2051117802723,1469.2051117802723,1.0001735818720452,5.463532595313418e-05
1469.2120563153123,1469.2120563153123,0.9998716505709571,5.4626668451605376e-05
1469.2190008502582,1469.2190008502582,1.0000295742930938,5.463181304926072e-05
1469.2259453851111,1469.2259453851111,0.9999850028745616,5.4634214509048e-05
1469.2328899198246,1469.2328899198246,1.0001148514970304,5.463279944018948e-05
1469.239834454538,1469.239834454538,0.9998716347215051,5.4622280732303337e-05
1469.2467789891584,1469.2467789891584,0.9999725675806506,5.4635574035125655e-05
1469.2537235236389,1469.2537235236389,0.999947623471841,5.462745749748071e-05
1469.2606680580725,1469.2606680580725,0.9999366960311804,5.4630633901453596e-05
1469.267612592367,1469.267612592367,0.9999960331677478,5.46273105491399e-05
1469.2745571265218,1469.2745571265218,1.000134838951751,5.46314611623565e-05
1469.2815016606764,1469.2815016606764,1.000075049932306,5.462718109194105e-05
1469.2884461947378,1469.2884461947378,1.0001030189934106,5.463213899113326e-05
1469.2953907286594,1469.2953907286594,1.0000221898915262,5.4630745180789555e-05
1469.302335262488,1469.302335262488,1.0001366122197024,5.463429021190662e-05
1469.3092797962702,1469.3092797962702,0.9997399783408184,5.4625922983425555e-05
1469.316224329866,1469.316224329866,1.0001274068213744,5.4649303488084e-05
1469.323168863415,1469.323168863415,0.9999608667750264,5.464225079325751e-05
1469.3301133969642,1469.3301133969642,0.999871419515129,5.4641545633573975e-05
1469.3370579303737,1469.3370579303737,1.000117747200483,5.4648334765149936e-05
1469.3440024636905,1469.3440024636905,1.0000556293492877,5.465290454708552e-05
1469.3509469969133,1469.3509469969133,0.9997806420654924,5.464442554951038e-05
1469.3578915300436,1469.3578915300436,1.0000289485032887,5.465277567474869e-05
1469.3648360630343,1469.3648360630343,0.999852554918373,5.465312897731092e-05
1469.3717805959775,1469.3717805959775,1.000011713394811,5.465151001730602e-05
1469.3787251288288,1469.3787251288288,1.0001142225497515,5.465026344236532e-05
1469.3856696615862,1469.3856696615862,0.999918844464043,5.4641744675735465e-05
1469.3926141942507,1469.3926141942507,1.0000898157298972,5.4654300561937056e-05
1469.3995587268687,1469.3995587268687,1.0001418474226298,5.465227168499318e-05
1469.4065032592534,1469.4065032592534,0.999988370217445,5.4647106502161176e-05
1469.4134477916389,1469.4134477916389,1.0001005741451805,5.465044806420761e-05
1469.4203923240236,1469.4203923240236,0.9996795210553525,5.4647976058904694e-05
1469.4273368561758,1469.4273368561758,1.000191949498358,5.4654569761509974e-05
1469.434281388282,1469.434281388282,0.9999253222429637,5.4648508350675935e-05
1469.4412259203405,1469.4412259203405,1.0000071959982366,5.465500816515742e-05
1469.4481704522602,1469.4481704522602,0.9999186675862068,5.465727963717377e-05
1469.455114984133,1469.455114984133,1.0001805390440617,5.466243809937188e-05
1469.4620595158194,1469.4620595158194,1.000064653805194,5.466331985777438e-05
1469.469004047553,1469.469004047553,0.9998800340657548,5.466197250422462e-05
1469.4759485790532,1469.4759485790532,1.0000570483146132,5.466657041208786e-05
1469.482893110553,1469.482893110553,1.0001264085578128,5.466438209223049e-05
1469.4898376419603,1469.4898376419603,0.9998225744042728,5.466458908318543e-05
1469.4967821732746,1469.4967821732746,0.9999046816000826,5.467088966288438e-05
1469.5037267044959,1469.5037267044959,0.9999015509435518,5.466546946044909e-05
1469.5106712355305,1469.5106712355305,1.0000318765739775,5.467399390514312e-05
1469.5176157665646,1469.5176157665646,1.0000955023413938,5.467172877027086e-05
1469.5245602975065,1469.5245602975065,0.9997639784379244,5.4665079631610916e-05
1469.5315048283549,1469.5315048283549,1.0002005961226228,5.466962313230754e-05
1469.5384493591102,1469.5384493591102,1.0000441984769168,5.467401514339433e-05
1469.5453938897722,1469.5453938897722,1.0001350535312798,5.466575854379831e-05
1469.5523384202945,1469.5523384202945,1.0000183487732723,5.4670544876213623e-05
1469.55928295077,1469.55928295077,0.999986630459427,5.466771637683556e-05
1469.566227481153,1469.566227481153,1.0001954749800976,5.4672487001278444e-05
1469.573172011443,1469.573172011443,1.0000355498385787,5.466767571318881e-05
1469.580116541639,1469.580116541639,0.9997920903042896,5.466595662543783e-05
1469.587061071696,1469.587061071696,1.0000857611827139,5.467490063208639e-05
1469.5940056017523,1469.5940056017523,0.999989296691546,5.467746339782625e-05
1469.6009501317162,1469.6009501317162,1.0001144616074256,5.467731231243466e-05
1469.6078946615403,1469.6078946615403,0.9999470884475761,5.4676718442173174e-05
1469.6148391913175,1469.6148391913175,0.9998075451936963,5.4674600119641025e-05
1469.6217837209554,1469.6217837209554,1.0000883109879326,5.468179954652617e-05
1469.6287282505461,1469.6287282505461,1.0000367757030058,5.4678532925758476e-05
1469.635672779998,1469.635672779998,0.9998999255352858,5.4673497893679624e-05
1469.6426173093557,1469.6426173093557,1.000084540270524,5.467412269928477e-05
1469.6495618386675,1469.6495618386675,1.0000732824674148,5.467484830566818e-05
1469.6565063678868,1469.6565063678868,1.0000902945271846,5.467890164545772e-05
1469.6634508969655,1469.6634508969655,0.999959648203437,5.467117388414687e-05
1469.670395426044,1469.670395426044,0.9999300135781477,5.467808492107602e-05
1469.6773399549832,1469.6773399549832,0.9999710608278761,5.4679079856621556e-05
1469.6842844837824,1469.6842844837824,1.0000835689231615,5.467900122409291e-05
1469.691229012536,1469.691229012536,0.9998364571064972,5.4674911594581544e-05
1469.6981735411493,1469.6981735411493,0.9998212189669363,5.4671571022336104e-05
1469.705118069762,1469.705118069762,1.00022154571753,5.468459857582423e-05
1469.7120625981886,1469.7120625981886,1.0001204767063507,5.46803077824468e-05
1469.719007126616,1469.719007126616,1.000076500933538,5.468440009844448e-05
1469.7259516549032,1469.7259516549032,1.0000018459150837,5.4684988554340505e-05
1469.7328961830974,1469.7328961830974,0.9999295060051562,5.468329993561559e-05
1469.7398407111982,1469.7398407111982,0.9998811317627373,5.468296856793487e-05
1469.746785239206,1469.746785239206,1.0000516607328624,5.4685406316230494e-05
1469.7537297671674,1469.7537297671674,0.9999326688915477,5.4679470799637105e-05
1469.7606742949424,1469.7606742949424,0.9999376212377884,5.468330383020792e-05
1469.7676188226712,1469.7676188226712,1.0000251772952806,5.4682761798865014e-05
1469.7745633503994,1469.7745633503994,1.0000969225915946,5.468475480044664e-05
1469.7815078779415,1469.7815078779415,1.0002717225310822,5.46898289736172e-05
1469.788452405437,1469.788452405437,0.9999349239981736,5.468586544641763e-05
1469.7953969327932,1469.7953969327932,0.9996802385504969,5.467237416863112e-05
1469.8023414601025,1469.8023414601025,1.0000441174555896,5.468589353295136e-05
1469.8092859873655,1469.8092859873655,0.9998816120460574,5.4678578240658664e-05
1469.816230514442,1469.816230514442,0.9999856373375635,5.4678672369887476e-05
1469.8231750414718,1469.8231750414718,1.0002029578433904,5.468359953428163e-05
1469.8301195684082,1469.8301195684082,1.0000506538193805,5.468371503643893e-05
1469.8370640952521,1469.8370640952521,1.000034720131341,5.468273712373036e-05
1469.8440086220028,1469.8440086220028,1.000234089658364,5.46897564792627e-05
1469.8509531486604,1469.8509531486604,0.9998176317028461,5.4676908420340866e-05
1469.8578976752246,1469.8578976752246,0.9999129598289954,5.468793197256815e-05
1469.8648422016956,1469.8648422016956,0.9998104781586903,5.468383652590778e-05
1469.8717867280736,1469.8717867280736,1.0000578828247848,5.468627600340073e-05
1469.8787312543586,1469.8787312543586,1.0000426951795092,5.469071471721589e-05
1469.885675780597,1469.885675780597,0.999871625898747,5.468714559111574e-05
1469.892620306696,1469.892620306696,1.0001739960787948,5.469480130451239e-05
1469.8995648327007,1469.8995648327007,1.0000208505422092,5.46901849814265e-05
1469.90650935866,1469.90650935866,0.9999913317148286,5.468904790695315e-05
1469.9134538844796,1469.9134538844796,1.0001412463641668,5.469355274429511e-05
1469.9203984102521,1469.9203984102521,0.9999712140128787,5.468873715994073e-05
1469.9273429359316,1469.9273429359316,0.99994352152899,5.4686762277480874e-05
1469.9342874615184,1469.9342874615184,0.9998460067793177,5.468274121421901e-05
1469.9412319870112,1469.9412319870112,0.9998981555468298,5.4683273237795255e-05
1469.9481765124115,1469.9481765124115,1.0000954461093516,5.4686337659012016e-05
1469.9551210376721,1469.9551210376721,0.9998759912204912,5.4681467104899235e-05
1469.962065562886,1469.962065562886,1.0001640782622117,5.4686773559676125e-05
1469.9690100880066,1469.9690100880066,1.0001147368361325,5.468238231788474e-05
1469.9759546129878,1469.9759546129878,0.9998754011580798,5.4677929498282716e-05
1469.9828991379686,1469.9828991379686,1.0001841394551467,5.468528442709681e-05
1469.9898436627634,1469.9898436627634,0.999974794953092,5.467653754760059e-05
1469.9967881875584,1469.9967881875584,1.0000668387906824,5.4680063207299134e-05
1470.0037327122602,1470.0037327122602,0.9999822022989322,5.46763839630639e-05
1470.0106772367758,1470.0106772367758,0.9998760583161248,5.467473995672895e-05
1470.017621761291,1470.017621761291,0.9998853615226503,5.4674430507563536e-05
1470.0245662857596,1470.0245662857596,0.9999736123385936,5.467254378894024e-05
1470.0315108099956,1470.0315108099956,0.9999036025174661,5.467154685659524e-05
1470.0384553342315,1470.0384553342315,0.9999281918515074,5.4669143975312346e-05
1470.045399858328,1470.045399858328,1.0003037895425286,5.467624952393218e-05
1470.052344382378,1470.052344382378,1.0000284785232565,5.466873067954428e-05
