time,time,flux,flux_err
1354.1150776334403,1354.1150776334403,1.000017,0.0007022346
1354.1164665392184,1354.1164665392184,0.99976164,0.0007017271
1354.1192443503073,1354.1192443503073,0.9990325,0.00070118957
1354.1206332556199,1354.1206332556199,0.9974562,0.0007014711
1354.1220221613976,1354.1220221613976,0.99929523,0.0007019992
1354.1234110667094,1354.1234110667094,0.99993306,0.0007020024
1354.1247999720213,1354.1247999720213,0.9994143,0.00070178893
1354.1261888777994,1354.1261888777994,0.9997062,0.00070188486
1354.1275777831122,1354.1275777831122,0.998557,0.00070154056
1354.1289666888897,1354.1289666888897,1.0012928,0.00070244225
1354.1303555942018,1354.1303555942018,0.999704,0.0007017329
1354.1317444995134,1354.1317444995134,0.9996264,0.0007016082
1354.1331334052911,1354.1331334052911,1.0000956,0.00070195255
1354.1345223106036,1354.1345223106036,0.99841136,0.000701362
1354.1359112159157,1354.1359112159157,0.999541,0.0007019383
1354.1373001212273,1354.1373001212273,0.9995591,0.0007018278
1354.13868902654,1354.13868902654,1.0004797,0.0007020777
1354.1400779323176,1354.1400779323176,0.99940866,0.00070174027
1354.14146683763,1354.14146683763,0.9998339,0.00070179015
1354.1428557429422,1354.1428557429422,1.000171,0.0007020709
1354.1442446482533,1354.1442446482533,1.0002095,0.0007013922
1354.1456335535659,1354.1456335535659,1.0002711,0.00070212054
1354.1470224588784,1354.1470224588784,1.0007975,0.00070210715
1354.1484113641905,1354.1484113641905,1.0001055,0.00070177385
1354.1498002695023,1354.1498002695023,0.99946076,0.00070179586
1354.1511891748141,1354.1511891748141,0.9984829,0.0007015051
1354.1525780801267,1354.1525780801267,1.000266,0.0007019695
1354.1539669854394,1354.1539669854394,1.000261,0.00070193806
1354.1553558907508,1354.1553558907508,1.0001523,0.00070190063
1354.1567447960624,1354.1567447960624,0.998228,0.0007013756
1354.158133701375,1354.158133701375,0.9993966,0.00070169475
1354.1595226066877,1354.1595226066877,1.0005159,0.0007020611
1354.1609115119995,1354.1609115119995,0.9991872,0.00070158823
1354.1623004173107,1354.1623004173107,0.99833184,0.00070150336
1354.1636893221576,1354.1636893221576,1.0005785,0.0007020047
1354.1650782274703,1354.1650782274703,1.0007757,0.00070233917
1354.1664671327821,1354.1664671327821,0.9991448,0.00070149597
1354.1678560380942,1354.1678560380942,0.9989914,0.00070163055
1354.1692449429402,1354.1692449429402,0.9998802,0.000701687
1354.170633848253,1354.170633848253,1.0007119,0.00070226396
1354.1720227535657,1354.1720227535657,1.0002843,0.00070213305
1354.1734116584112,1354.1734116584112,0.9998977,0.0007017205
1354.174800563723,1354.174800563723,1.0002093,0.0007020671
1354.1761894690358,1354.1761894690358,1.0004884,0.0007018438
1354.1775783738817,1354.1775783738817,0.999604,0.00070179586
1354.1789672791942,1354.1789672791942,1.0004529,0.00070189935
1354.1803561840406,1354.1803561840406,1.0011611,0.00070211804
1354.1817450893527,1354.1817450893527,0.9992779,0.00070183794
1354.1831339941996,1354.1831339941996,1.0001105,0.0007016975
1354.1845228995112,1354.1845228995112,1.000005,0.0007017319
1354.1859118043583,1354.1859118043583,0.9989515,0.00070165633
1354.1873007096701,1354.1873007096701,1.0001311,0.00070180197
1354.1886896145156,1354.1886896145156,0.99994814,0.0007018132
1354.1900785193627,1354.1900785193627,0.99987257,0.000701843
1354.1914674246755,1354.1914674246755,0.9988922,0.0007016207
1354.1928563295214,1354.1928563295214,1.0006849,0.0007020445
1354.1942452348335,1354.1942452348335,0.999853,0.0007018244
1354.1956341396797,1354.1956341396797,0.9994236,0.000701642
1354.1970230445268,1354.1970230445268,0.999041,0.0007017154
1354.1984119493736,1354.1984119493736,0.99817735,0.0007013067
1354.1998008546848,1354.1998008546848,1.0004245,0.00070208
1354.201189759531,1354.201189759531,1.0001258,0.0007018016
1354.202578664378,1354.202578664378,1.0000536,0.0007017844
1354.203967569225,1354.203967569225,1.0001991,0.00070212345
1354.2053564740709,1354.2053564740709,0.99916685,0.00070150127
1354.2067453793823,1354.2067453793823,0.9993878,0.00070168084
1354.2081342842293,1354.2081342842293,0.99878544,0.0007016102
1354.2095231890762,1354.2095231890762,0.99967384,0.0007018384
1354.2109120939222,1354.2109120939222,1.000086,0.0007019378
1354.2123009987686,1354.2123009987686,0.9992564,0.00070171774
1354.213689903615,1354.213689903615,0.99833614,0.0007014755
1354.2150788084618,1354.2150788084618,1.0004252,0.00070191885
1354.2164677133087,1354.2164677133087,1.0013896,0.0007024201
1354.2178566181542,1354.2178566181542,1.0001457,0.0007017923
1354.2192455230006,1354.2192455230006,0.9993178,0.00070158544
1354.2206344278475,1354.2206344278475,0.9993802,0.0007017552
1354.2220233326937,1354.2220233326937,1.0014967,0.0007024297
1354.2234122375407,1354.2234122375407,1.0007236,0.0007020922
1354.224801141921,1354.224801141921,1.000301,0.0007019136
1354.2261900467674,1354.2261900467674,0.9996861,0.000701779
1354.2275789516143,1354.2275789516143,1.0003145,0.0007021405
1354.2289678564607,1354.2289678564607,1.0005317,0.00070191256
1354.2303567613067,1354.2303567613067,1.0001274,0.0007020315
1354.231745666153,1354.231745666153,1.000086,0.0007017075
1354.2331345705336,1354.2331345705336,1.0001869,0.0007020642
1354.2345234753807,1354.2345234753807,1.0001832,0.00070206024
1354.2359123802275,1354.2359123802275,1.0007191,0.0007019847
1354.237301284608,1354.237301284608,0.99903363,0.0007015801
1354.2386901894542,1354.2386901894542,1.0002581,0.00070197403
1354.2400790943007,1354.2400790943007,0.9994119,0.0007015761
1354.2414679986819,1354.2414679986819,0.9996352,0.0007018285
1354.2428569035287,1354.2428569035287,0.9997376,0.00070177956
1354.2442458083742,1354.2442458083742,1.0009025,0.0007022018
1354.245634712755,1354.245634712755,0.9999007,0.00070185855
1354.2470236176018,1354.2470236176018,1.0009454,0.00070217875
1354.248412521983,1354.248412521983,1.0001464,0.0007020763
1354.2498014268294,1354.2498014268294,0.9997241,0.000701696
1354.2511903312093,1354.2511903312093,1.0005387,0.0007022075
1354.2525792360561,1354.2525792360561,0.99934703,0.0007018111
1354.2539681404373,1354.2539681404373,0.9997349,0.0007015825
1354.255357044818,1354.255357044818,1.0005981,0.00070194574
1354.256745949664,1354.256745949664,0.99964744,0.00070201705
1354.2581348540448,1354.2581348540448,1.0000627,0.00070173
1354.2595237588916,1354.2595237588916,0.9985909,0.00070129626
1354.2609126632728,1354.2609126632728,1.0001051,0.00070182275
1354.2623015676527,1354.2623015676527,0.9990948,0.0007015108
1354.263690472499,1354.263690472499,0.9997972,0.00070179784
1354.2650793768803,1354.2650793768803,1.0001751,0.000701965
1354.266468281261,1354.266468281261,1.0002903,0.0007017943
1354.2678571856422,1354.2678571856422,1.000945,0.0007019226
1354.2692460904884,1354.2692460904884,1.0003755,0.00070193474
1354.270634994869,1354.270634994869,1.0000193,0.0007018304
1354.2720238992501,1354.2720238992501,0.99897623,0.00070169667
1354.273412803631,1354.273412803631,1.000335,0.0007021176
1354.2748017080116,1354.2748017080116,0.99999064,0.0007017786
1354.276190612392,1354.276190612392,0.99971706,0.0007017093
1354.2775795172383,1354.2775795172383,1.0004483,0.0007020374
1354.2789684216195,1354.2789684216195,1.0001521,0.00070199
1354.2803573260007,1354.2803573260007,1.000123,0.0007019724
1354.2817462303815,1354.2817462303815,0.9998307,0.0007017463
1354.2831351347618,1354.2831351347618,1.0008519,0.00070192845
1354.2845240391425,1354.2845240391425,0.99898124,0.00070170214
1354.2859129435237,1354.2859129435237,0.9994303,0.00070166413
1354.2873018479045,1354.2873018479045,1.0018576,0.00070230366
1354.2886907522843,1354.2886907522843,0.9997765,0.00070189167
1354.2900796566655,1354.2900796566655,1.0001898,0.0007020364
1354.2914685610467,1354.2914685610467,1.0000149,0.00070185564
1354.2928574649623,1354.2928574649623,1.0010283,0.0007022467
1354.294246369343,1354.294246369343,1.0001471,0.00070181943
1354.2956352737228,1354.2956352737228,0.9997452,0.00070156524
1354.297024178104,1354.297024178104,0.9995967,0.0007017008
1354.2984130824852,1354.2984130824852,1.001296,0.0007023903
1354.2998019868653,1354.2998019868653,0.99918836,0.0007016253
1354.3011908907802,1354.3011908907802,1.0004823,0.0007018465
1354.3025797951614,1354.3025797951614,0.99999565,0.0007018339
1354.3039686995426,1354.3039686995426,1.0011411,0.00070209434
1354.305357603924,1354.305357603924,0.9996072,0.0007017389
1354.3067465078384,1354.3067465078384,0.9997931,0.00070182804
1354.3081354122187,1354.3081354122187,0.9994702,0.0007015702
1354.3095243166,1354.3095243166,1.000276,0.0007018269
1354.310913220515,1354.310913220515,1.0007672,0.0007023317
1354.3123021248962,1354.3123021248962,1.0001333,0.0007018782
1354.313691029277,1354.313691029277,1.0005786,0.00070209446
1354.3150799331918,1354.3150799331918,1.0003916,0.0007018773
1354.3164688375732,1354.3164688375732,1.000307,0.0007018774
1354.3178577414878,1354.3178577414878,1.0004518,0.0007020472
1354.3192466458686,1354.3192466458686,1.0010808,0.0007019872
1354.3206355497834,1354.3206355497834,1.0005149,0.0007022628
1354.322024454164,1354.322024454164,1.0011752,0.00070188876
1354.3234133580795,1354.3234133580795,0.99937946,0.0007016171
1354.3248022624607,1354.3248022624607,0.99921894,0.00070162903
1354.3261911663758,1354.3261911663758,0.9988187,0.0007014468
1354.3275800707565,1354.3275800707565,1.0002106,0.00070179073
1354.3289689746712,1354.3289689746712,1.0002158,0.00070214295
1354.3303578785867,1354.3303578785867,1.0003666,0.000701693
1354.3317467829675,1354.3317467829675,0.99874175,0.0007014171
1354.3331356868816,1354.3331356868816,1.001215,0.00070210407
1354.3345245907972,1354.3345245907972,0.9998955,0.00070188486
1354.3359134951786,1354.3359134951786,1.0003693,0.00070177944
1354.3373023990944,1354.3373023990944,0.9996319,0.00070182065
1354.338691303009,1354.338691303009,1.001544,0.0007022664
1354.3400802073888,1354.3400802073888,1.0002769,0.0007016482
1354.3414691113046,1354.3414691113046,1.0011653,0.0007021259
1354.3428580152204,1354.3428580152204,0.99945414,0.0007018072
1354.3442469191345,1354.3442469191345,1.0002959,0.0007018272
1354.3456358230492,1354.3456358230492,1.0003352,0.0007020914
1354.3470247274306,1354.3470247274306,0.99995595,0.00070179807
1354.3484136313464,1354.3484136313464,1.0009751,0.0007020405
1354.349802535262,1354.349802535262,1.0002903,0.00070190977
1354.351191439176,1354.351191439176,1.0004861,0.00070193625
1354.352580343091,1354.352580343091,0.999554,0.0007016499
1354.3539692470067,1354.3539692470067,0.99959034,0.0007016823
1354.3553581509213,1354.3553581509213,0.99967384,0.0007019324
1354.3567470548364,1354.3567470548364,0.99992615,0.0007017417
1354.3581359587513,1354.3581359587513,1.0002935,0.0007019453
1354.359524862667,1354.359524862667,1.0002049,0.0007019618
1354.3609137665826,1354.3609137665826,1.0005027,0.00070189656
1354.3623026704975,1354.3623026704975,1.0003089,0.0007017803
1354.3636915744123,1354.3636915744123,0.9988978,0.0007016331
1354.3650804783274,1354.3650804783274,0.99917734,0.0007014934
1354.366469382242,1354.366469382242,0.99906975,0.00070144545
1354.3678582861578,1354.3678582861578,0.9992432,0.00070177333
1354.3692471900736,1354.3692471900736,0.9996914,0.00070172886
1354.3706360939882,1354.3706360939882,1.0000558,0.000701776
1354.3720249974376,1354.3720249974376,1.0001432,0.000701869
1354.3734139013525,1354.3734139013525,1.0010133,0.0007020917
1354.3748028052682,1354.3748028052682,0.9979744,0.00070113596
1354.3761917091829,1354.3761917091829,0.9988683,0.0007015648
1354.377580613097,1354.377580613097,0.9992282,0.0007016226
1354.3789695165472,1354.3789695165472,0.99849147,0.0007013662
1354.380358420463,1354.380358420463,0.9999262,0.0007013811
1354.3817473243785,1354.3817473243785,0.99934286,0.0007017746
1354.3831362278277,1354.3831362278277,1.0004147,0.0007020363
1354.384525131742,1354.384525131742,0.9992427,0.0007015218
1354.3859140356576,1354.3859140356576,1.0003928,0.00070188823
1354.3873029391075,1354.3873029391075,0.9997327,0.00070157915
1354.3886918430217,1354.3886918430217,1.0001712,0.00070173456
1354.3900807469367,1354.3900807469367,1.0001621,0.00070200453
1354.3914696503866,1354.3914696503866,0.99999446,0.0007017195
1354.3928585543022,1354.3928585543022,0.9997019,0.00070177624
1354.394247457752,1354.394247457752,0.9999903,0.0007016873
1354.3956363616662,1354.3956363616662,1.0017594,0.0007025211
1354.3970252651156,1354.3970252651156,0.9991364,0.0007013649
1354.3984141690312,1354.3984141690312,1.0011946,0.000702135
1354.3998030724806,1354.3998030724806,0.99992,0.0007017164
1354.4011919763952,1354.4011919763952,0.99992007,0.0007016984
1354.4025808798447,1354.4025808798447,1.0000411,0.00070174225
1354.4039697837602,1354.4039697837602,1.0002159,0.00070173433
1354.40535868721,1354.40535868721,1.0002974,0.00070198934
1354.4067475911252,1354.4067475911252,0.9995739,0.00070180016
1354.4081364945741,1354.4081364945741,0.9998199,0.0007015601
1354.4095253980236,1354.4095253980236,1.0000377,0.00070187275
1354.4109143019386,1354.4109143019386,0.99931705,0.0007015526
1354.4123032053885,1354.4123032053885,0.99957013,0.000701801
1354.4136921088384,1354.4136921088384,1.00006,0.00070163904
1354.4150810127533,1354.4150810127533,0.99996364,0.0007016116
1354.4164699162025,1354.4164699162025,0.9991243,0.0007016839
1354.4178588196519,1354.4178588196519,0.99928373,0.00070154015
1354.4192477231018,1354.4192477231018,0.99936694,0.0007015138
1354.4206366270168,1354.4206366270168,1.0018708,0.00070208916
1354.4220255304654,1354.4220255304654,0.9989439,0.0007016473
1354.4234144339152,1354.4234144339152,0.99869686,0.00070122414
1354.4248033373651,1354.4248033373651,1.0003152,0.00070210913
1354.426192240815,1354.426192240815,1.0007982,0.0007019844
1354.4275811442644,1354.4275811442644,1.0002613,0.0007019177
1354.4289700481786,1354.4289700481786,0.9988093,0.0007014655
1354.4303589516285,1354.4303589516285,0.9994455,0.00070179184
1354.4317478550784,1354.4317478550784,1.0008373,0.00070200505
1354.4331367585269,1354.4331367585269,1.0004226,0.000701905
1354.4345256619763,1354.4345256619763,0.9995599,0.0007016445
1354.4359145654262,1354.4359145654262,0.9999537,0.00070175296
1354.437303468876,1354.437303468876,0.99988437,0.000701767
1354.438692372326,1354.438692372326,0.9993343,0.00070160785
1354.4400812757744,1354.4400812757744,0.99983066,0.00070187595
1354.4414701792239,1354.4414701792239,1.0016849,0.0007022791
1354.4428590826737,1354.4428590826737,1.0004488,0.00070178683
1354.4442479861232,1354.4442479861232,1.0005686,0.00070193474
1354.4456368895724,1354.4456368895724,0.9997866,0.00070155005
1354.4470257930216,1354.4470257930216,0.99960333,0.00070162833
1354.4484146960058,1354.4484146960058,0.9996806,0.000701597
1354.4498035994557,1354.4498035994557,0.99993575,0.00070190453
1354.451192502905,1354.451192502905,1.000306,0.0007017357
1354.4525814063545,1354.4525814063545,1.0000948,0.0007017473
1354.4539703098035,1354.4539703098035,0.9996119,0.0007016984
1354.455359213253,1354.455359213253,0.99978113,0.00070177525
1354.4567481162371,1354.4567481162371,1.0000476,0.0007018983
1354.458137019687,1354.458137019687,0.99994034,0.0007017247
1354.4595259231364,1354.4595259231364,0.99980336,0.0007020126
1354.4609148265856,1354.4609148265856,0.99958485,0.0007015123
1354.4623037295692,1354.4623037295692,1.0002275,0.00070172624
1354.463692633019,1354.463692633019,0.9991626,0.00070140784
1354.4650815364685,1354.4650815364685,0.99912566,0.00070149545
1354.466470439917,1354.466470439917,0.9999613,0.0007017537
1354.4678593429012,1354.4678593429012,0.9998963,0.0007019038
1354.469248246351,1354.469248246351,1.0001334,0.00070177316
1354.4706371493353,1354.4706371493353,1.0001867,0.0007019139
1354.4720260527847,1354.4720260527847,0.9997965,0.00070137373
1354.4734149562332,1354.4734149562332,0.9995285,0.0007019015
1354.4748038592174,1354.4748038592174,0.9985918,0.0007013647
1354.4761927626673,1354.4761927626673,0.9996529,0.0007016476
1354.4775816656504,1354.4775816656504,0.9992856,0.0007016784
1354.4789705690996,1354.4789705690996,0.99932796,0.00070139125
1354.4803594720838,1354.4803594720838,0.9996369,0.0007016319
1354.481748375534,1354.481748375534,1.0005711,0.000701923
1354.4831372785184,1354.4831372785184,0.99990433,0.0007016647
1354.4845261819669,1354.4845261819669,0.9994163,0.0007014023
1354.4859150849502,1354.4859150849502,0.9995652,0.00070159987
1354.4873039884003,1354.4873039884003,0.999619,0.0007015286
1354.4886928913838,1354.4886928913838,0.99946946,0.0007016204
1354.4900817948333,1354.4900817948333,0.9998992,0.0007015673
1354.4914706978166,1354.4914706978166,0.9995706,0.0007017039
1354.492859600801,1354.492859600801,0.99923337,0.0007014636
1354.4942485042511,1354.4942485042511,1.0010965,0.0007018544
1354.4956374072344,1354.4956374072344,1.0001839,0.00070178905
1354.4970263102182,1354.4970263102182,0.99881375,0.0007014635
1354.4984152136674,1354.4984152136674,1.0002593,0.000701693
1354.499804116651,1354.499804116651,1.0008444,0.00070228055
1354.5011930196351,1354.5011930196351,1.0016369,0.00070204557
1354.5025819226196,1354.5025819226196,0.99990135,0.00070154294
1354.5039708260688,1354.5039708260688,1.0008941,0.00070189545
1354.5053597290525,1354.5053597290525,1.0004863,0.00070209283
1354.5067486320359,1354.5067486320359,0.9988815,0.0007016958
1354.5081375350203,1354.5081375350203,1.0003666,0.0007016819
1354.5095264380038,1354.5095264380038,0.9999409,0.000701886
1354.5109153414523,1354.5109153414523,1.0011512,0.0007021207
1354.5123042444366,1354.5123042444366,0.99972165,0.0007016314
1354.513693147421,1354.513693147421,0.9996117,0.00070169335
1354.5150820504055,1354.5150820504055,0.9997644,0.0007015694
1354.5164709533888,1354.5164709533888,0.9993821,0.0007017122
1354.5178598563716,1354.5178598563716,0.999621,0.0007015433
1354.519248759356,1354.519248759356,0.999895,0.0007018026
1354.5206376623405,1354.5206376623405,1.0008731,0.00070209196
1354.5220265653234,1354.5220265653234,0.9999912,0.000701635
1354.523415468307,1354.523415468307,0.99945295,0.0007016851
1354.5248043712913,1354.5248043712913,0.9999819,0.00070173293
1354.5261932742756,1354.5261932742756,0.99977857,0.00070145674
1354.5275821772598,1354.5275821772598,0.9995086,0.0007015322
1354.5289710802426,1354.5289710802426,1.0005075,0.0007018308
1354.5303599832264,1354.5303599832264,0.99855393,0.0007012551
1354.5317488862106,1354.5317488862106,0.99974406,0.0007016969
1354.533137789194,1354.533137789194,1.0005198,0.000701448
1354.5345266921777,1354.5345266921777,0.99861324,0.00070140546
1354.5359155951614,1354.5359155951614,0.9990532,0.0007014943
1354.5373044981457,1354.5373044981457,1.0006864,0.0007021652
1354.5386934011299,1354.5386934011299,0.99886334,0.00070143753
1354.5400823041136,1354.5400823041136,0.99986976,0.00070179155
1354.5414712066313,1354.5414712066313,1.0001822,0.0007018724
1354.542860109615,1354.542860109615,0.99989074,0.00070164044
1354.5442490125986,1354.5442490125986,0.99956167,0.0007016472
1354.545637915583,1354.545637915583,1.0002124,0.0007017569
1354.5470268181016,1354.5470268181016,1.0004116,0.00070190284
1354.548415721085,1354.548415721085,1.0005151,0.00070178806
1354.5498046240687,1354.5498046240687,0.99983233,0.0007015209
1354.5511935270524,1354.5511935270524,1.0004783,0.0007020073
1354.552582429571,1354.552582429571,0.99853885,0.0007011488
1354.5539713325543,1354.5539713325543,0.9994785,0.00070171425
1354.5553602355374,1354.5553602355374,0.99979097,0.00070167036
1354.5567491380561,1354.5567491380561,1.0003963,0.00070170796
1354.5581380410404,1354.5581380410404,0.9997066,0.00070161873
1354.5595269440246,1354.5595269440246,1.001077,0.0007019587
1354.5609158465427,1354.5609158465427,1.0008684,0.0007019393
1354.5623047495255,1354.5623047495255,0.9990048,0.0007013232
1354.563693652044,1354.563693652044,0.99891,0.00070128357
1354.5650825550283,1354.5650825550283,0.9977234,0.0007011781
1354.5664714580112,1354.5664714580112,0.99991673,0.0007015098
1354.5678603605293,1354.5678603605293,1.0002248,0.0007017846
1354.5692492635135,1354.5692492635135,0.9997386,0.00070150336
