time,time,flux,flux_err
1437.9967696468264,1437.9967696468264,1.0009080231946224,0.0006051837245921404
1438.0051031561381,1438.0051031561381,1.0001354669620095,0.0006048107442465698
1438.0134366657214,1438.0134366657214,0.9997194045240856,0.000604099970342978
1438.0210757164398,1438.0210757164398,1.0005598322398777,0.0005510334366660403
1438.0280203082662,1438.0280203082662,0.9990691607284958,0.0005504886147762611
1438.0349649003015,1438.0349649003015,0.9986854081161154,0.0005501648132674205
1438.0419094925235,1438.0419094925235,0.9990828137528419,0.0005497113281951236
1438.0488540849549,1438.0488540849549,0.9997781503260847,0.000549301395404987
1438.0557986775955,1438.0557986775955,0.9994305608962473,0.0005486100471863967
1438.0627432704696,1438.0627432704696,1.0006082172852677,0.0005479460975134005
1438.0696878634594,1438.0696878634594,1.0006489584213623,0.000547225838575517
1438.0766324566825,1438.0766324566825,0.9996615056794367,0.0005463650931959447
1438.0835770500453,1438.0835770500453,0.9997149945620905,0.0005453208951377102
1438.0905216436643,1438.0905216436643,1.0012290129186217,0.0005449714432254711
1438.097466237446,1438.097466237446,1.0007536383245306,0.0005439458154815823
1438.1044108313677,1438.1044108313677,0.9988329322574788,0.0005431646055767147
1438.111355425475,1438.111355425475,1.0003306585059453,0.0005428735300948607
1438.1183000197693,1438.1183000197693,1.0006502827612114,0.0005420368813217364
1438.1252446142262,1438.1252446142262,1.000073035393013,0.0005414087641796833
1438.1321892088695,1438.1321892088695,1.000754172152665,0.0005409078353457728
1438.139133803606,1438.139133803606,1.0006987042473843,0.0005403523120465955
1438.1460783985517,1438.1460783985517,0.9993382389537786,0.0005394804024779514
1438.1530229936377,1438.1530229936377,0.9999109620611092,0.0005390331398349255
1438.1599675888629,1438.1599675888629,0.9991790707596374,0.0005385575301335586
1438.166912184251,1438.166912184251,0.9993748392596125,0.0005377141899592372
1438.1738567797793,1438.1738567797793,0.9999065963631024,0.000537167432054041
1438.1808013754703,1438.1808013754703,0.9993786515359488,0.0005365687989985878
1438.1877459712546,1438.1877459712546,0.9983480443577782,0.0005359209250388041
1438.1946905672016,1438.1946905672016,1.0000098474758798,0.000535627137840982
1438.2016351633115,1438.2016351633115,1.0034956501503056,0.0005356884088662047
1438.2085797594918,1438.2085797594918,0.9993292282086902,0.0005344435672769403
1438.2155243558113,1438.2155243558113,1.0004343028280165,0.000534045910383712
1438.2224689522936,1438.2224689522936,1.0007687015742177,0.0005336877771604745
1438.2294135488933,1438.2294135488933,1.0003874737150789,0.00053321419825837
1438.2363581455852,1438.2363581455852,0.9996972339437574,0.0005328432113810334
1438.2433027424172,1438.2433027424172,1.0000141159695983,0.0005323616247056724
1438.250247339389,1438.250247339389,0.999451009018963,0.0005322689498284898
1438.2571919363836,1438.2571919363836,1.0002967005770178,0.0005321003515496916
1438.2641365335414,1438.2641365335414,0.9995618703830746,0.000531919463985756
1438.2710811308157,1438.2710811308157,0.9995462107327775,0.0005315984962935994
1438.2780257281595,1438.2780257281595,0.9992332335073524,0.0005316674372565801
1438.2849703256438,1438.2849703256438,1.0004449812637408,0.0005313989355979932
1438.2919149232207,1438.2919149232207,0.9998043819046153,0.0005311682953236367
1438.2988595208676,1438.2988595208676,1.0007090077748815,0.0005312149694399578
1438.3058041186073,1438.3058041186073,0.9993653732018558,0.0005302994096138441
1438.3127487164636,1438.3127487164636,1.000467781031174,0.0005304986352358489
1438.3196933144134,1438.3196933144134,1.00020948205924,0.0005302743249455412
1438.3266379124325,1438.3266379124325,1.0000190432122582,0.0005300057928871276
1438.3335825105446,1438.3335825105446,1.0002088677304588,0.0005296643241104978
1438.3405271087272,1438.3405271087272,0.9997454504803794,0.0005294278973750748
1438.347471707026,1438.347471707026,1.000136709511077,0.0005293361651353185
1438.3544163053714,1438.3544163053714,1.0003261365407699,0.0005289631535712616
1438.3613609037864,1438.3613609037864,1.0000672602124911,0.0005288393587989731
1438.368305502318,1438.368305502318,0.9990549580676754,0.0005280617497500468
1438.3752501008962,1438.3752501008962,0.9999125597625047,0.0005280323297936686
1438.3821946995208,1438.3821946995208,1.0008670568081166,0.0005277579523857553
1438.3891392982619,1438.3891392982619,1.0000795559881737,0.0005275435615392277
1438.3960838970265,1438.3960838970265,1.0002195663202962,0.000527020796406436
1438.403028495907,1438.403028495907,1.0005772762307354,0.0005269123140320243
1438.409973094788,1438.409973094788,0.9974892757280012,0.0005263300191194747
1438.416917693785,1438.416917693785,0.9991494408890667,0.0005261766295716623
1438.4238622928056,1438.4238622928056,1.0001842284321143,0.0005259254991997732
1438.4308068919192,1438.4308068919192,0.9983954482086557,0.0005257035930854939
1438.4377514910561,1438.4377514910561,1.0003215820240783,0.0005259573011660573
1438.4446960902862,1438.4446960902862,1.000946538090903,0.0005259489463844482
1438.4516406894932,1438.4516406894932,1.0001075379543027,0.0005256749349250316
1438.4585852888163,1438.4585852888163,1.0002577359281375,0.0005256237268507131
1438.465529888186,1438.465529888186,1.0004262376965893,0.0005255977701366348
1438.4724744876016,1438.4724744876016,1.0004013700198289,0.0005255290915440979
1438.479419087065,1438.479419087065,0.9987894336006153,0.0005251233372503549
1438.486363686528,1438.486363686528,0.9959388894697205,0.0005251271503148817
1438.493308286084,1438.493308286084,0.9954439546492218,0.0005253234656866974
1438.5002528856633,1438.5002528856633,0.9995608140999342,0.0005253445883219995
1438.5071974852892,1438.5071974852892,1.000107328638252,0.0005251168693177225
1438.5141420849613,1438.5141420849613,1.0001011834218705,0.0005256833429345113
1438.5210866846571,1438.5210866846571,1.0007341715113653,0.0005254057047071091
1438.5280312843997,1438.5280312843997,1.0010917266826493,0.000525349529830253
1438.5349758841417,1438.5349758841417,0.997881637618668,0.0005246027569030996
1438.5419204839538,1438.5419204839538,0.999492842396555,0.0005248023528926191
1438.548865083766,1438.548865083766,0.9999796051107956,0.0005250387731089249
1438.555809683648,1438.555809683648,0.9997102923533483,0.0005245587226232713
1438.5627542835532,1438.5627542835532,0.9998527225549333,0.0005247470900927082
1438.5696988834584,1438.5696988834584,0.9957715442734614,0.0005248241872140814
1438.5766434834102,1438.5766434834102,0.9998942660810914,0.0005245666876209747
1438.5835880833852,1438.5835880833852,1.0000845680924306,0.0005245179492282689
1438.590532683384,1438.590532683384,0.999749037160895,0.0005242228006152915
1438.5974772834056,1438.5974772834056,0.9997155768540068,0.0005240346469213923
1438.6044218834272,1438.6044218834272,0.9970932569268195,0.0005240539677812681
1438.6113664835189,1438.6113664835189,1.0000737615053663,0.0005236568383370245
1438.6183110836103,1438.6183110836103,1.0026407887899622,0.0005240610563121482
1438.6252556837019,1438.6252556837019,1.001685842554588,0.0005242942467940846
1438.6322002838165,1438.6322002838165,1.0008900112276382,0.0005235777627712862
1438.6391448839545,1438.6391448839545,0.9989634994624627,0.0005234060283764287
1438.6460894840927,1438.6460894840927,0.9998341180208522,0.000523420401238623
1438.6530340842776,1438.6530340842776,1.000080537206854,0.0005233509927269733
1438.659978684439,1438.659978684439,0.9991822344842654,0.0005232882862253286
1438.6669232846002,1438.6669232846002,1.0001560014042779,0.000523349314033173
1438.6738678848317,1438.6738678848317,0.9996509347362089,0.0005231456866118442
1438.6808124850627,1438.6808124850627,1.000286195417158,0.0005230594076712499
1438.687757085247,1438.687757085247,1.0008799559988943,0.0005231530849588914
1438.6947016855015,1438.6947016855015,1.0000825293083118,0.0005232844798775387
1438.701646285733,1438.701646285733,1.0001441475930821,0.0005231622966413955
1438.7085908859642,1438.7085908859642,0.9994602277757565,0.0005228988087654974
1438.7155354862186,1438.7155354862186,0.9989600014521646,0.0005226826426593264
1438.7224800864733,1438.7224800864733,1.0011106176923952,0.0005231391186512169
1438.729424686728,1438.729424686728,0.9993729499687974,0.0005226507704949361
1438.7363692869822,1438.7363692869822,1.0004338453653494,0.0005226423277541101
1438.743313887237,1438.743313887237,0.9990397353611682,0.0005224729307183154
1438.7502584875142,1438.7502584875142,1.0005145957316255,0.0005225875314553227
1438.757203087769,1438.757203087769,1.0002220304055658,0.0005224208795539605
1438.7641476880237,1438.7641476880237,0.9986033322248759,0.0005222282161274485
1438.7710922882782,1438.7710922882782,0.9939000911633874,0.0005211194235214946
1438.7780368885328,1438.7780368885328,0.9999353324005252,0.000522047251553827
1438.7849814888104,1438.7849814888104,1.000291282314349,0.0005220376348240043
1438.7919260890417,1438.7919260890417,1.0001802903184638,0.0005221674372853223
1438.798870689296,1438.798870689296,1.0002363851217666,0.0005219255610770838
1438.8058152895505,1438.8058152895505,1.0001679948400377,0.0005216836036574029
1438.812759889782,1438.812759889782,0.9995831433301483,0.0005215912199996951
1438.8197044900135,1438.8197044900135,1.0004979124476425,0.0005216115412570263
1438.826649090221,1438.826649090221,0.9998422490347977,0.0005213052591987273
1438.833593690429,1438.833593690429,0.9993499277849459,0.0005208627571917906
1438.8405382906835,1438.8405382906835,0.9990391902895912,0.000520846357203771
1438.8474828908682,1438.8474828908682,1.0004663636501856,0.0005210824820371838
1438.8544274910532,1438.8544274910532,1.0010352905565951,0.000521320179388474
1438.861372091214,1438.861372091214,0.9997265221937985,0.0005206744333753563
1438.8683166913993,1438.8683166913993,0.9997881254787073,0.0005209990463208398
1438.8752612915373,1438.8752612915373,1.000965066524668,0.0005205766343349494
1438.8822058916753,1438.8822058916753,0.9983809259873236,0.0005204000825817371
1438.8891504918133,1438.8891504918133,0.9995422076898492,0.0005202106039640965
1438.896095091928,1438.896095091928,0.9943580594437312,0.0005199569385052632
1438.9030396920195,1438.9030396920195,1.0003820252953635,0.0005204145608036755
1438.9099842921346,1438.9099842921346,0.9993389000104209,0.0005200084614903641
1438.9169288921794,1438.9169288921794,0.9995080557557905,0.0005201833343548099
1438.923873492271,1438.923873492271,1.0009700486284527,0.0005200425581593078
1438.930818092293,1438.930818092293,0.9976677786021163,0.0005199430312238975
1438.9377626923142,1438.9377626923142,1.0004479614207824,0.0005199404515365721
1438.944707292313,1438.944707292313,1.0006564407221263,0.0005199041270601095
1438.9516518923342,1438.9516518923342,1.0010067192628178,0.0005202008645515075
1438.958596492263,1438.958596492263,0.999332616121681,0.0005194462944631584
1438.9655410922614,1438.9655410922614,1.000244499428268,0.0005199224020056735
1438.9724856921669,1438.9724856921669,0.9995318528148565,0.0005199917546205502
1438.9794302920723,1438.9794302920723,0.9994682919705188,0.0005196926320364108
1438.9863748919772,1438.9863748919772,0.9994270584315312,0.0005195184484490543
1438.9933194918592,1438.9933194918592,1.0006462248363972,0.0005199409315901536
1439.0002640916714,1439.0002640916714,0.9995635838025937,0.0005196706141356261
1439.007208691507,1439.007208691507,1.00051706136584,0.0005196989278792094
1439.014153291319,1439.014153291319,0.9975281744708017,0.0005195117846954791
1439.021097891108,1439.021097891108,1.00074444149657,0.0005194757624271863
1439.0280424908735,1439.0280424908735,0.9999579260385916,0.0005193818108643535
1439.0349870905925,1439.0349870905925,0.9998120372111281,0.0005194516063830796
1439.0419316903117,1439.0419316903117,0.9999197842702754,0.0005194805098150002
1439.048876290007,1439.048876290007,0.9978662875626728,0.0005188608792732008
1439.0558208896566,1439.0558208896566,1.000041523467352,0.0005192613550726013
1439.0627654892821,1439.0627654892821,0.9998435621219084,0.0005190020021283462
1439.069710088885,1439.069710088885,0.9999362332706532,0.0005188585811062013
1439.0766546885106,1439.0766546885106,0.9998820630807839,0.0005187153571567879
1439.0835992880668,1439.0835992880668,1.0002768870618373,0.0005186418844975901
1439.0905438875998,1439.0905438875998,0.9992617744297345,0.0005184133810547794
1439.097488487109,1439.097488487109,0.99920437612667,0.0005181477960821812
1439.1044330865718,1439.1044330865718,1.0010512517005736,0.0005186175169060413
1439.1113776860352,1439.1113776860352,1.0008430608143288,0.0005182048174557385
1439.118322285451,1439.118322285451,0.9989902051858565,0.0005177380760262603
1439.1252668848442,1439.1252668848442,0.9996365978883887,0.000517711433811136
1439.1322114841907,1439.1322114841907,0.9979439597585495,0.0005180536096161824
1439.139156083607,1439.139156083607,1.0004972967824188,0.0005180804004566421
1439.1461006828142,1439.1461006828142,0.9995874005202771,0.0005178306835147862
1439.153045282137,1439.153045282137,0.999712145771187,0.0005176985061600547
1439.1599898813904,1439.1599898813904,0.9994150097542555,0.0005174066892378487
1439.166934480597,1439.166934480597,1.0017079991499205,0.0005180052026561965
1439.173879079804,1439.173879079804,0.9997072072291641,0.0005178385284359848
1439.1808236789407,1439.1808236789407,0.9989997364168962,0.0005177091171979585
1439.1877682780546,1439.1877682780546,0.9984911153100862,0.0005178574550886727
1439.1947128771683,1439.1947128771683,1.000880935586435,0.0005180701018713267
1439.2016574762124,1439.2016574762124,0.9995904096574109,0.0005179889799260337
1439.2086020752326,1439.2086020752326,1.00010615975036,0.0005177531768340742
1439.215546674253,1439.215546674253,0.9994959014440153,0.0005177508709442319
1439.222491273204,1439.222491273204,0.9992345891024625,0.0005177797103171116
1439.2294358721313,1439.2294358721313,0.9991227399058301,0.0005176056098403069
1439.2363804710353,1439.2363804710353,1.0007174176768188,0.0005177672099321464
1439.243325069893,1439.243325069893,1.0009855496138411,0.000518002342753771
1439.2502696687038,1439.2502696687038,0.999640861901768,0.0005177456544029556
1439.2572142675383,1439.2572142675383,1.0008800328453862,0.0005181084475430747
1439.2641588663025,1439.2641588663025,0.9998638388527237,0.0005177390983177525
1439.2711034650201,1439.2711034650201,0.9992668793366057,0.0005174084703158177
1439.2780480636684,1439.2780480636684,0.9998580038905972,0.0005175990085620555
1439.2849926623394,1439.2849926623394,1.0008853382603444,0.0005179546013344197
1439.2919372609645,1439.2919372609645,0.9992803326371906,0.0005174603700250746
1439.2988818595422,1439.2988818595422,0.9998168527106411,0.0005174003725557318
1439.3058264580973,1439.3058264580973,0.9994324870712095,0.0005174458368410199
1439.3127710566057,1439.3127710566057,1.000226841383216,0.0005175442917512707
1439.319715655091,1439.319715655091,1.0006220118911904,0.0005171164163322907
1439.326660253529,1439.326660253529,1.0002082854416432,0.0005173250137152211
1439.333604851921,1439.333604851921,0.9997288869944401,0.0005173376947184441
1439.3405494502895,1439.3405494502895,1.000359507376698,0.0005173607741950213
1439.3474940486117,1439.3474940486117,1.000004396055136,0.0005173167356944323
1439.3544386469102,1439.3544386469102,0.9997539514389342,0.0005172146016512669
1439.3613832451858,1439.3613832451858,0.9990551953076403,0.0005168412144536692
1439.368327843345,1439.368327843345,1.000044197449527,0.0005171667708907216
1439.375272441504,1439.375272441504,0.9996998558906129,0.0005173293995065943
1439.382217039663,1439.382217039663,1.000000401880643,0.0005170996487641915
1439.3891616377987,1439.3891616377987,0.9996729248791469,0.000517232369706573
1439.3961062358414,1439.3961062358414,0.9999799548411454,0.0005172088984953726
1439.4030508338608,1439.4030508338608,1.00027312823622,0.0005169458422830732
1439.4099954318801,1439.4099954318801,1.0004095050895097,0.0005173289126316772
1439.4169400298065,1439.4169400298065,0.9994399078180916,0.0005170891731935766
1439.4238846277096,1439.4238846277096,0.9994881157190431,0.0005169577578136342
1439.4308292255892,1439.4308292255892,1.000220670071951,0.0005173071616760658
1439.4377738233986,1439.4377738233986,0.9996271458975663,0.0005169865655844212
1439.4447184211854,1439.4447184211854,1.0012993210746406,0.0005174412422533604
1439.4516630189487,1439.4516630189487,0.999942510258039,0.0005169723935872361
1439.458607616642,1439.458607616642,1.0004396892827518,0.0005173686226812745
1439.465552214312,1439.465552214312,0.999678435672595,0.0005170021797217907
1439.4724968118892,1439.4724968118892,0.999835588132283,0.0005174664432903856
1439.4794414094663,1439.4794414094663,0.9996283452787271,0.0005170456793604538
1439.4863860070432,1439.4863860070432,0.9992046806829575,0.0005170125992714312
1439.49333060455,1439.49333060455,0.9999103812008624,0.000517311192174297
1439.5002752020107,1439.5002752020107,1.0006878446826029,0.000517703543140864
1439.5072197994248,1439.5072197994248,1.0008007120356477,0.0005176809264677559
1439.5141643968152,1439.5141643968152,1.000054835258178,0.0005173246418477463
1439.5211089941363,1439.5211089941363,0.9995517726634808,0.0005174066939916451
1439.528053591434,1439.528053591434,1.0000842344341623,0.0005174740300749497
1439.5349981887082,1439.5349981887082,0.9993014929015042,0.0005170352449029629
1439.5419427859129,1439.5419427859129,0.9999691946790815,0.0005173079093769275
1439.5488873830705,1439.5488873830705,0.999299990388445,0.0005173093316608167
1439.5558319802053,1439.5558319802053,0.9981687745784733,0.0005170110803463773
1439.5627765772701,1439.5627765772701,1.0021811559600073,0.0005176771262956493
1439.5697211743582,1439.5697211743582,1.0022297250129353,0.000517349240661854
1439.576665771353,1439.576665771353,1.0006463144923423,0.0005172722903612539
1439.583610368278,1439.583610368278,0.9998906064466322,0.0005171371782428517
1439.590554965203,1439.590554965203,0.9995275349433351,0.0005170975864467901
1439.5974995620586,1439.5974995620586,0.9997250872696302,0.000516900314151091
1439.6044441589133,1439.6044441589133,0.9993820087286764,0.0005172848308034725
1439.6113887556755,1439.6113887556755,0.9997504678589542,0.0005172504746387177
1439.6183333524145,1439.6183333524145,0.9997889131017308,0.0005169979891404382
1439.6252779491067,1439.6252779491067,1.0004383165061883,0.0005170546750724524
1439.6322225457523,1439.6322225457523,1.000330416359277,0.00051761445777328
1439.6391671423746,1439.6391671423746,1.000018539987406,0.0005173964230221521
1439.6461117389272,1439.6461117389272,1.000632000112399,0.0005176299306738354
1439.6530563354568,1439.6530563354568,0.9998889921701716,0.0005174835243096249
1439.6600009319159,1439.6600009319159,0.9996074023157828,0.0005174156869040258
1439.666945528329,1439.666945528329,0.9993437038175716,0.0005172640974701418
1439.6738901247415,1439.6738901247415,0.9991541510565634,0.0005174677230230343
1439.6808347210847,1439.6808347210847,1.0006578087448776,0.0005176615140922062
1439.687779317381,1439.687779317381,1.0008315657897042,0.0005176806631351248
1439.6947239136307,1439.6947239136307,0.9998120188911512,0.000517566439972678
1439.7016685098574,1439.7016685098574,0.9998386425043497,0.0005176077026009404
1439.7086131060141,1439.7086131060141,1.000070407553128,0.0005176520240078829
1439.7155577021476,1439.7155577021476,0.9997644374514817,0.0005178082592413551
1439.7225022981881,1439.7225022981881,1.0003006296456374,0.0005177768834696146
1439.7294468942282,1439.7294468942282,0.9995533176399715,0.0005175760596462136
1439.736391490222,1439.736391490222,1.00076935462764,0.0005178336859533733
1439.7433360861692,1439.7433360861692,0.9995649534380713,0.0005176470341069925
1439.750280682023,1439.750280682023,1.000475377402309,0.000518232737899217
1439.757225277854,1439.757225277854,1.0000656899207052,0.0005178955955687161
1439.7641698736845,1439.7641698736845,1.0001899646287327,0.0005181238901262933
