time,time,flux,flux_err
1325.2994311695945,1325.2994311695945,1.000103178181888,0.00027281000268285937
1325.3077644213406,1325.3077644213406,0.999796788191583,0.0002727890503174084
1325.3160976733566,1325.3160976733566,0.9999961588980844,0.0002728254684778458
1325.3244309256436,1325.3244309256436,1.000396613048503,0.0002729240471905033
1325.3320697404802,1325.3320697404802,0.9999362769232467,0.0002491236780319073
1325.3390141177965,1325.3390141177965,0.9995719976987939,0.0002491595887015777
1325.3459584953052,1325.3459584953052,0.9999275506594862,0.0002492166434369261
1325.352902872994,1325.352902872994,0.9998714719342331,0.00024930135940670677
1325.3598472508602,1325.3598472508602,0.9999983659608853,0.00024936224721309845
1325.3667916289135,1325.3667916289135,1.0002884644945156,0.0002494803925097675
1325.3737360071434,1325.3737360071434,0.9999583554406319,0.0002494739764526841
1325.3806803855514,1325.3806803855514,1.0002854333231053,0.0002495889353943017
1325.3876247641335,1325.3876247641335,0.999814658969384,0.00024961925354690734
1325.3945691428903,1325.3945691428903,0.9998810344000258,0.0002497079760403599
1325.4015135218192,1325.4015135218192,1.0001238225893436,0.0002497758925967277
1325.4084579009195,1325.4084579009195,0.9999166829180707,0.00024981254886804284
1325.4154022801918,1325.4154022801918,1.0000110730757414,0.0002499243020514842
1325.4223466596327,1325.4223466596327,1.000301861871224,0.000250031614843799
1325.4292910392398,1325.4292910392398,0.9999186460154181,0.00025005315069462824
1325.4362354190093,1325.4362354190093,0.9997878167242545,0.0002501094549831092
1325.443179798945,1325.443179798945,0.9999067871789981,0.00025016260490593476
1325.4501241790467,1325.4501241790467,0.9999244930557705,0.0002502302767750602
1325.4570685593055,1325.4570685593055,0.9998941685456708,0.0002502790059546331
1325.4640129397214,1325.4640129397214,1.0001197112416222,0.00025036711474843757
1325.4709573203004,1325.4709573203004,1.0001333829797654,0.0002504152768014737
1325.4779017010364,1325.4779017010364,1.0000890910535885,0.0002505136021892516
1325.4848460819208,1325.4848460819208,1.000036265014255,0.0002505947194930359
1325.4917904629626,1325.4917904629626,0.9997857939264019,0.0002506137487427247
1325.4987348441587,1325.4987348441587,1.0000445773383526,0.00025069351514420775
1325.505679225497,1325.505679225497,1.0002230445841964,0.000250782350445806
1325.5126236069925,1325.5126236069925,0.9999696984652979,0.00025086587836454404
1325.519567988634,1325.519567988634,0.9999582065870876,0.00025092088138411767
1325.5265123704264,1325.5265123704264,0.9997341163999568,0.0002509884317289058
1325.5334567523557,1325.5334567523557,1.0002034347894735,0.00025108706171404196
1325.5404011344303,1325.5404011344303,0.9995811906458542,0.00025112598214683597
1325.5473455166511,1325.5473455166511,1.0005911983127729,0.00025129076811791025
1325.5542898990109,1325.5542898990109,1.0002464472189867,0.00025135417192059876
1325.561234281508,1325.561234281508,1.0003235810934723,0.0002514441345574932
1325.5681786641503,1325.5681786641503,0.9995737416329729,0.0002514280763191724
1325.5751230469236,1325.5751230469236,0.9997555549666621,0.00025151734572654444
1325.5820674298343,1325.5820674298343,1.0000121467314314,0.00025159647642428347
1325.5890118128773,1325.5890118128773,1.0002073838638843,0.0002516817175732801
1325.5959561960499,1325.5959561960499,0.9998992017268613,0.00025168339848629105
1325.6029005793584,1325.6029005793584,0.9996410488421317,0.0002516946597711415
1325.6098449628014,1325.6098449628014,1.0002204028016997,0.00025182422746998343
1325.6167893463664,1325.6167893463664,0.9999676713935065,0.00025182759651178646
1325.6237337300595,1325.6237337300595,1.0002662018193718,0.0002518918201181654
1325.6306781138833,1325.6306781138833,1.0004164003266924,0.000251929431034783
1325.637622497827,1325.637622497827,1.0002473281367057,0.00025195437435745355
1325.644566881895,1325.644566881895,0.9996230109728309,0.0002518964300222327
1325.6515112660886,1325.6515112660886,0.9996724026709142,0.00025191868522814637
1325.6584556504044,1325.6584556504044,0.9999563545385545,0.0002519654518424951
1325.6654000348399,1325.6654000348399,1.0000851269222621,0.0002519792770315558
1325.672344419391,1325.672344419391,1.0000553988245422,0.0002519909305182165
1325.6792888040652,1325.6792888040652,0.9999246304551447,0.0002520213427365825
1325.6862331888526,1325.6862331888526,1.0001567391852404,0.0002520914172499238
1325.69317757375,1325.69317757375,1.0000675140747006,0.00025209964543265544
1325.700121958765,1325.700121958765,1.0005102683573355,0.0002521916271383291
1325.7070663438956,1325.7070663438956,0.999543421957863,0.00025212094057350026
1325.7140107291368,1325.7140107291368,1.0000532958430477,0.00025215058642845276
1325.7209551144856,1325.7209551144856,1.0000423108575685,0.00025221876575226104
1325.7278994999513,1325.7278994999513,0.9999162490662741,0.00025223322820487864
1325.7348438855186,1325.7348438855186,1.0000958753958908,0.0002523195808347732
1325.7417882711936,1325.7417882711936,0.9998789975942041,0.00025233155482260676
1325.748732656979,1325.748732656979,1.0001044725834807,0.00025236923542320503
1325.7556770428669,1325.7556770428669,1.0001356668003112,0.0002524229885982574
1325.7626214288616,1325.7626214288616,0.9998709900531002,0.000252452926829687
1325.7695658149557,1325.7695658149557,0.9998798152575235,0.0002524931500415905
1325.776510201149,1325.776510201149,1.0000818731807528,0.00025258555790458087
1325.7834545874468,1325.7834545874468,1.000318473367422,0.0002526691835452022
1325.7903989738465,1325.7903989738465,0.9996411635551858,0.00025266253172524734
1325.797343360339,1325.797343360339,0.9999941027214667,0.00025271685323800645
1325.8042877469397,1325.8042877469397,0.9998229719572331,0.00025274663809263134
1325.8112321336273,1325.8112321336273,0.999923532981897,0.000252808781756532
1325.8181765204174,1325.8181765204174,1.0000309693005993,0.00025286284005634796
1325.8251209072941,1325.8251209072941,1.0003726776249422,0.00025293440156209945
1325.83206529427,1325.83206529427,0.9995355112102958,0.00025284547021834714
1325.8390096813393,1325.8390096813393,1.0001596362455591,0.00025295775314937126
1325.8459540684985,1325.8459540684985,0.9999677854955398,0.0002529583070414041
1325.8528984557477,1325.8528984557477,1.000526655324413,0.0002530316642282139
1325.8598428430907,1325.8598428430907,0.9996780032759227,0.0002529095526209994
1325.8667872305207,1325.8667872305207,1.0001686211252951,0.000252933492536014
1325.8737316180382,1325.8737316180382,1.0000903892766515,0.00025290089589663733
1325.8806760056395,1325.8806760056395,0.9998204241409973,0.00025283610995946676
1325.8876203933344,1325.8876203933344,0.9998418993061172,0.0002527710890836486
1325.8945647811136,1325.8945647811136,1.0003273609494887,0.0002528229146180424
1325.9015091689712,1325.9015091689712,0.9997238038013865,0.0002527228745311578
1325.9084535569193,1325.9084535569193,0.9999928571913819,0.0002527288926187437
1325.9153979449459,1325.9153979449459,1.0002359503598677,0.0002527102277782256
1325.9223423330566,1325.9223423330566,1.0001202143788956,0.0002526525790366325
1325.9292867212437,1325.9292867212437,0.9997099812343088,0.00025262772453374437
1325.9362311095174,1325.9362311095174,0.9997760794922019,0.00025265380057454094
1325.943175497867,1325.943175497867,1.0003592768222815,0.00025268156170773224
1325.9501198863013,1325.9501198863013,1.0000606873466098,0.0002526138339747566
1325.9570642748024,1325.9570642748024,1.000238140625558,0.00025264602638487766
1325.9651197655687,1325.9651197655687,0.9996691962933397,0.0002525491375431319
1325.972341929791,1325.972341929791,0.9998874071819099,0.00025259738815454314
1325.9792863185419,1325.9792863185419,0.9998227963236733,0.0002526365507907099
1325.9862307073631,1325.9862307073631,1.0003890815965786,0.00025268745812010763
1325.9931750962626,1325.9931750962626,0.9999029995327697,0.0002526718752921917
1326.0001194852352,1326.0001194852352,1.0000263196788155,0.00025269150817695395
1326.0070638742745,1326.0070638742745,1.0003525855339628,0.00025279882255938913
1326.0140082633927,1326.0140082633927,1.0004187953464223,0.0002528568723105942
1326.0209526525778,1326.0209526525778,0.9997725861033182,0.0002528810267314939
1326.0278970418356,1326.0278970418356,0.9999524966111656,0.0002529208440164621
1326.03484143116,1326.03484143116,1.0001378085448283,0.00025295633704054563
1326.0417858205512,1326.0417858205512,0.9998043928191376,0.0002529110881594183
1326.048730210013,1326.048730210013,0.999939938569368,0.000252925876733165
1326.055674599541,1326.055674599541,0.9998823283789543,0.00025294525222375157
1326.0626189891366,1326.0626189891366,0.9997303653523458,0.0002529412647133782
1326.0695633787927,1326.0695633787927,1.0001255425885587,0.00025299811550748833
1326.0765077685187,1326.0765077685187,1.0003608361726917,0.0002530168770536656
1326.0834521583095,1326.0834521583095,1.0003708781282215,0.00025302637356311545
1326.0903965481639,1326.0903965481639,0.999779175315824,0.0002529749006397705
1326.097340938082,1326.097340938082,1.0000679254634086,0.0002530142036257351
1326.104285328059,1326.104285328059,0.9999744394954766,0.0002530629130948105
1326.111229718099,1326.111229718099,0.99998241995288,0.00025304659334340017
1326.118174108204,1326.118174108204,1.0003772540609979,0.00025305148998324214
1326.1251184983635,1326.1251184983635,1.000149776474704,0.0002530314205266921
1326.1320628885849,1326.1320628885849,1.0001208381040911,0.00025305896072037995
1326.1390072788668,1326.1390072788668,0.9997642096508145,0.0002529946011466754
1326.1459516692073,1326.1459516692073,0.9995566197817244,0.0002529681581087474
1326.1528960596029,1326.1528960596029,0.9999553760366879,0.00025305558888925623
1326.1598404500567,1326.1598404500567,0.9998434225016757,0.000253014199950505
1326.1667848405746,1326.1667848405746,1.0001700105063471,0.0002530757304310937
1326.1737292311386,1326.1737292311386,1.0002067190054234,0.0002530598629071958
1326.1806736217645,1326.1806736217645,1.0001050652527201,0.0002530697110646861
1326.1876180124395,1326.1876180124395,1.0002398664096925,0.00025306965370665036
1326.1945624031728,1326.1945624031728,0.999894135385347,0.00025305942238222406
1326.2015067939585,1326.2015067939585,0.9998969460639919,0.0002530263541218795
1326.2084511848022,1326.2084511848022,1.0000893557823125,0.00025305745161220206
1326.2153955756926,1326.2153955756926,0.9998954954969792,0.0002530248876059522
1326.2223399666414,1326.2223399666414,0.9998164492713754,0.00025300854835422936
1326.2292843576392,1326.2292843576392,0.9997779454398978,0.00025299807687525426
1326.2362287486899,1326.2362287486899,0.999975784705103,0.00025304946565413253
1326.2431731397894,1326.2431731397894,1.0005633499876354,0.00025309713581413097
1326.2501175309364,1326.2501175309364,1.0000094683729646,0.00025302007120262394
1326.2570619221322,1326.2570619221322,0.9999193992200943,0.00025302394837500115
1326.2640063133865,1326.2640063133865,1.0001759647325559,0.00025303730337679955
1326.2709507046816,1326.2709507046816,1.0001749918293288,0.0002530313071466213
1326.2778950960287,1326.2778950960287,1.0000241145478164,0.0002530034353311492
1326.2848394874197,1326.2848394874197,1.0000804127428526,0.0002530409331770873
1326.2917838788603,1326.2917838788603,0.999979400734546,0.00025301938453949334
1326.2987282703418,1326.2987282703418,0.9999942294213474,0.0002530170551378866
1326.3056726618777,1326.3056726618777,0.9996181405587427,0.00025299458878781016
1326.3126170534556,1326.3126170534556,1.0000973386720677,0.0002530408382670334
1326.319561445079,1326.319561445079,0.9995472942357673,0.0002529690052482232
1326.3265058367465,1326.3265058367465,1.0000149118484767,0.00025304371329818495
1326.3334502284606,1326.3334502284606,1.0002539348598813,0.0002530698545806907
1326.3403946202154,1326.3403946202154,1.0004350646259375,0.00025310256605583887
1326.34845011471,1326.34845011471,1.0000855073509627,0.0002530963567278303
1326.357061160606,1326.357061160606,0.9997275162406971,0.00025307042670175866
1326.3640055525095,1326.3640055525095,1.0000090662222765,0.0002531522786332778
1326.3709499444503,1326.3709499444503,1.000189040415749,0.0002531761514162954
1326.3778943364352,1326.3778943364352,0.9999573749505032,0.00025314533818373956
1326.3848387284636,1326.3848387284636,0.9998563541860103,0.0002531751367587909
1326.3917831205295,1326.3917831205295,0.9999921201526689,0.0002532084724213793
1326.398727512637,1326.398727512637,1.0001792692869635,0.0002532504144119423
1326.4056719047842,1326.4056719047842,0.9999250666388176,0.0002532553131779873
1326.41261629697,1326.41261629697,0.9996858494204416,0.0002532769974030987
1326.419560689196,1326.419560689196,0.9998688529847037,0.00025329957230279187
1326.4265050814606,1326.4265050814606,1.0001204529470082,0.00025334015203951873
1326.433449473762,1326.433449473762,1.0002486336480778,0.00025337603435625654
1326.440393866102,1326.440393866102,1.0001607098954768,0.00025337272568334444
1326.447338258477,1326.447338258477,0.9999741705350988,0.0002533748183898288
1326.4542826508891,1326.4542826508891,0.9999121118426173,0.0002533991505712224
1326.4612270433397,1326.4612270433397,0.999948837751829,0.00025342215313615935
1326.468171435828,1326.468171435828,0.9998542855682405,0.0002534100138000664
1326.475115828351,1326.475115828351,0.9999503027783538,0.00025345206143544526
1326.4820602209063,1326.4820602209063,1.0001459453364792,0.0002534986760021637
1326.489004613499,1326.489004613499,1.0000389336619846,0.00025349299347936834
1326.495949006127,1326.495949006127,1.0000905019882826,0.00025351601526188113
1326.5028933987896,1326.5028933987896,1.000265684790135,0.00025354873201823447
1326.5098377914849,1326.5098377914849,0.9997036484296455,0.00025355521033372687
1326.5167821842144,1326.5167821842144,0.9999845002551592,0.000253569542448012
1326.523726576979,1326.523726576979,0.9995128121010437,0.00025357161220141577
1326.5306709697702,1326.5306709697702,1.0002796257257733,0.00025366921053217794
1326.5376153626016,1326.5376153626016,0.9999805802612286,0.00025367211874676126
1326.5445597554599,1326.5445597554599,1.00023886666516,0.00025373776772503803
1326.5515041483523,1326.5515041483523,1.0001209977370957,0.0002537519300090969
1326.55844854128,1326.55844854128,0.9998469759732445,0.00025374496084594814
1326.5653929342338,1326.5653929342338,0.9997119594480731,0.00025372460494146507
1326.5723373272197,1326.5723373272197,0.9997950228460522,0.0002537620691498502
1326.5792817202405,1326.5792817202405,1.000368052054458,0.00025381354404326007
1326.5862261132845,1326.5862261132845,1.0003994022249831,0.0002538600051958155
1326.5931705063608,1326.5931705063608,0.9999624460257953,0.0002538274845220269
1326.600114899469,1326.600114899469,0.9998743524316387,0.00025381115841762434
1326.607059292603,1326.607059292603,1.0000773505376792,0.000253865154339291
1326.6140036857669,1326.6140036857669,0.9996675643328958,0.00025381267935236675
1326.6209480789616,1326.6209480789616,0.9999700348478242,0.00025385400502776165
1326.627892472184,1326.627892472184,0.9999297899616133,0.00025388637038220157
1326.6348368654344,1326.6348368654344,1.0000582945894458,0.00025390435659426643
1326.6417812587115,1326.6417812587115,1.0001542032438788,0.000253943789798224
1326.6487256520202,1326.6487256520202,1.0002791954802501,0.00025393419317507716
1326.6556700453496,1326.6556700453496,0.9998301835447057,0.0002538617712074252
1326.6626144387112,1326.6626144387112,0.9999114015347118,0.0002538553565794127
1326.6695588320924,1326.6695588320924,1.000396938783306,0.0002538731148361337
1326.6765032255094,1326.6765032255094,0.9998475206843882,0.0002537833317832035
1326.6834476189463,1326.6834476189463,0.9996812918947764,0.00025373807947690996
1326.691780891109,1326.691780891109,0.9996437042880373,0.0002537203809973829
1326.6987252846013,1326.6987252846013,1.0000812416524238,0.000253730457711566
1326.7056696781224,1326.7056696781224,0.9997684932934682,0.00025364959790766364
1326.7134473988954,1326.7134473988954,1.0006630132530099,0.00025373557549791456
1326.7209473439584,1326.7209473439584,1.0001752599362337,0.0002536498366383555
1326.7278917375527,1326.7278917375527,0.9998100026450653,0.0002535811720915372
1326.7348361311756,1326.7348361311756,0.999817749830777,0.0002535708822107998
1326.7417805248253,1326.7417805248253,1.0004271753425606,0.0002535948557094173
1326.7487249184978,1326.7487249184978,0.9997632583226116,0.00025351404902963515
1326.755669312191,1326.755669312191,0.9996584364663832,0.00025349244222368694
1326.7626137059074,1326.7626137059074,1.0000151745412134,0.0002534930771392293
1326.769558099647,1326.769558099647,1.0000739571257233,0.00025350599668156904
1326.77650249341,1326.77650249341,1.0002060436064037,0.00025352485447076095
1326.7834468871933,1326.7834468871933,1.0000987266012973,0.00025351336340150314
1326.7903912810032,1326.7903912810032,1.000280818358584,0.00025350770696823155
1326.7973356748328,1326.7973356748328,0.9997842793917773,0.0002534740716028697
1326.8042800686806,1326.8042800686806,0.9999706862043485,0.00025351196694226133
1326.8112244625504,1326.8112244625504,0.999649282306278,0.00025347795370125485
1326.8181688564475,1326.8181688564475,1.000116053259396,0.00025352264682705167
1326.825113250359,1326.825113250359,0.9997014597430717,0.0002534834898768395
1326.832057644291,1326.832057644291,0.9997121656418042,0.000253486671485174
1326.839002038249,1326.839002038249,1.0005925951335297,0.00025357770740017777
1326.8459464322211,1326.8459464322211,0.9999523203486389,0.00025352247672529444
1326.8528908262172,1326.8528908262172,1.0003504783026353,0.00025353170145578043
1326.8598352202303,1326.8598352202303,1.0001710051207797,0.00025348075459065184
1326.866779614267,1326.866779614267,0.9997163759390764,0.00025340833051474583
1326.873724008321,1326.873724008321,0.9998215086500515,0.00025337807442569213
1326.8806684023953,1326.8806684023953,0.9998845737911953,0.00025337230199869523
1326.8876127964845,1326.8876127964845,1.000220380252596,0.00025332603574142773
1326.894557190593,1326.894557190593,0.9997834554807135,0.0002532249152718787
1326.9015015847233,1326.9015015847233,1.000020230808762,0.0002531854605088052
1326.9084459788703,1326.9084459788703,0.9998058522700711,0.0002531188352403271
1326.9153903730348,1326.9153903730348,1.00008626868516,0.0002531023796964926
1326.9223347672141,1326.9223347672141,1.0001922386857605,0.0002530597326437109
1326.9292791614166,1326.9292791614166,1.0004790021962484,0.0002530272826840103
1326.9362235556364,1326.9362235556364,1.0002058067773567,0.0002529347046586792
1326.9431679498705,1326.9431679498705,0.9994611859063391,0.0002528027162011206
1326.9501123441228,1326.9501123441228,0.9998915239303757,0.0002528163442139725
1326.9570567383919,1326.9570567383919,1.0000294082947951,0.00025277740614348027
1326.9640011326762,1326.9640011326762,0.9998817042293393,0.0002526899608288906
1326.9709455269804,1326.9709455269804,0.9997357465816181,0.00025265163922191146
1326.977889921299,1326.977889921299,1.000110599944964,0.00025265033893214666
1326.9848343156386,1326.9848343156386,1.0001223564687391,0.0002526050868855187
1326.9917787099835,1326.9917787099835,1.0003255953321504,0.000252608376584764
1326.9987231043488,1326.9987231043488,1.0002132556173824,0.00025251834939265215
1327.0056674987288,1327.0056674987288,0.999844565615858,0.0002525169014704994
1327.0126118931262,1327.0126118931262,1.000194808175237,0.0002525337807409605
1327.0195562875383,1327.0195562875383,1.0001034870369516,0.0002525045781029582
1327.0265006819648,1327.0265006819648,0.9999900365373311,0.00025251557979558977
1327.033445076409,1327.033445076409,0.9997160249458885,0.00025246988945031604
1327.0403894708643,1327.0403894708643,1.0000119800096738,0.00025251454802134344
1327.0473338653346,1327.0473338653346,1.0000357193099376,0.00025250289734190157
1327.0542782598163,1327.0542782598163,1.0000701714473095,0.0002524837838051365
1327.0623337574427,1327.0623337574427,1.0001780077862314,0.00025254094870637967
