time,time,flux,flux_err
1325.304456913578,1325.304456913578,1.0005861076056684,0.0006628567956931792
1325.3127903331417,1325.3127903331417,1.0005017275655237,0.0006636783563619362
1325.3211237523956,1325.3211237523956,0.9999267877274853,0.0006639146120711133
1325.3287627198815,1325.3287627198815,0.998401440855895,0.0006061001153910709
1325.3357072354759,1325.3357072354759,0.9995685040111443,0.0006066022841982844
1325.3426517509772,1325.3426517509772,1.000119862921618,0.0006071007697017884
1325.3495962662923,1325.3495962662923,1.000162563259185,0.0006074426725979617
1325.3565407814212,1325.3565407814212,1.000358581113971,0.000607773748823234
1325.363485296457,1325.363485296457,0.9992946447194535,0.0006077751007700771
1325.3704298112134,1325.3704298112134,0.9990439220335652,0.0006080727325120807
1325.3773743258764,1325.3773743258764,1.000110956412272,0.0006084493626163413
1325.3843188404467,1325.3843188404467,1.0007900704802117,0.0006087075711810792
1325.391263354551,1325.391263354551,0.9997491872011105,0.000608836429455
1325.398207869121,1325.398207869121,0.9997440867635587,0.0006091109605601931
1325.4051523828525,1325.4051523828525,0.9997591395243456,0.0006093082258554635
1325.412096896864,1325.412096896864,1.000615700400052,0.0006095989791097046
1325.4190414105956,1325.4190414105956,0.9999703575760792,0.0006098247611659903
1325.4259859242345,1325.4259859242345,1.000678973657071,0.0006100655321215576
1325.4329304375938,1325.4329304375938,0.9991980671893792,0.0006100151150143982
1325.4398749509533,1325.4398749509533,0.9999265960001658,0.0006105218586625564
1325.4468194641263,1325.4468194641263,1.0007422982317769,0.0006107226867184412
1325.453763977206,1325.453763977206,0.9987202473549335,0.0006106273010815565
1325.4607084900995,1325.4607084900995,0.9993791781046937,0.0006110566017229239
1325.4676530028069,1325.4676530028069,1.0019700574599475,0.0006115797419874405
1325.4745975154212,1325.4745975154212,0.9992720366510597,0.0006114310918592616
1325.4815420279424,1325.4815420279424,0.9991496005950001,0.0006115746588989223
1325.488486540277,1325.488486540277,1.0012254321434422,0.0006122285343495512
1325.4954310525193,1325.4954310525193,0.9990162154597556,0.0006120489556125572
1325.5023755645748,1325.5023755645748,0.9991403985543632,0.0006123186588308059
1325.50932007663,1325.50932007663,1.0017007943575358,0.0006130320714336505
1325.516264588406,1325.516264588406,0.9987658069732106,0.000612768222002245
1325.5232091001822,1325.5232091001822,0.9999294918954948,0.0006131215339333156
1325.5301536118652,1325.5301536118652,0.9991328923878239,0.0006132723261722859
1325.5370981232686,1325.5370981232686,1.0003796443010355,0.0006137661293708671
1325.5440426346718,1325.5440426346718,1.0006654938815083,0.000614063204817402
1325.5509871459828,1325.5509871459828,1.0006356499369362,0.0006142658467536399
1325.5579316570133,1325.5579316570133,0.999375557591964,0.0006143393029997491
1325.564876168138,1325.564876168138,0.999686039387829,0.0006145599766546855
1325.5718206790757,1325.5718206790757,0.9996763854263545,0.0006148221380606193
1325.5787651898272,1325.5787651898272,1.000408086019838,0.0006153780697773385
1325.585709700486,1325.585709700486,0.9996898036497516,0.0006152926341990148
1325.592654211051,1325.592654211051,0.9997210973316,0.0006154753587053116
1325.5995987216163,1325.5995987216163,1.0003213100189963,0.0006157002836292369
1325.6065432319956,1325.6065432319956,1.0007989209956698,0.0006159926351384818
1325.6134877422814,1325.6134877422814,0.9995945378109011,0.0006157314195956215
1325.6204322524743,1325.6204322524743,0.9997206123970489,0.0006157652078631102
1325.627376762574,1325.627376762574,0.9995346305520334,0.0006157023443998065
1325.6343212724873,1325.6343212724873,1.0004736905067895,0.0006159682084661242
1325.6412657824008,1325.6412657824008,1.0003300368760017,0.000616142365161179
1325.6482102921277,1325.6482102921277,0.9993163886160499,0.0006159239837792025
1325.6551548018551,1325.6551548018551,1.0003999001487431,0.000615958997874687
1325.662099311489,1325.662099311489,1.0003727051573374,0.0006159141941508576
1325.669043820937,1325.669043820937,1.000473694829407,0.000616033592167256
1325.6759883303844,1325.6759883303844,0.9997034872703058,0.000615818637322006
1325.6829328396461,1325.6829328396461,1.000294649225198,0.0006159028084685436
1325.6898773488144,1325.6898773488144,0.9994472567322041,0.0006159058404775718
1325.6968218578897,1325.6968218578897,0.9986932656545496,0.0006156310177423032
1325.7037663669653,1325.7037663669653,1.0010453584308778,0.0006163536432822668
1325.7107108759474,1325.7107108759474,1.0001122969782386,0.0006161637720235407
1325.7176553847428,1325.7176553847428,1.0002042491679972,0.000616220295614163
1325.7245998935389,1325.7245998935389,0.9997432071844438,0.0006162632385222656
1325.7315444022415,1325.7315444022415,1.0000432703261526,0.0006165073697294466
1325.7384889107577,1325.7384889107577,0.9994531011649999,0.0006164165442256838
1325.7454334192746,1325.7454334192746,1.0002565592120818,0.0006167043468015274
1325.7523779276974,1325.7523779276974,1.00050086253921,0.0006167604708993028
1325.7593224359348,1325.7593224359348,0.9996158921737205,0.0006167225064389944
1325.7662669442648,1325.7662669442648,1.0001957055993176,0.0006170513613866449
1325.7732114525018,1325.7732114525018,0.9999413586392276,0.000617226239612776
1325.7801559605527,1325.7801559605527,0.9989498761272755,0.0006171808036455666
1325.7871004686033,1325.7871004686033,1.0008633860516736,0.0006177417859702352
1325.794044976561,1325.794044976561,1.000591144686714,0.0006178727659959657
1325.8009894844258,1325.8009894844258,0.9992691885202467,0.0006176528588635742
1325.8079339921971,1325.8079339921971,1.000732485681103,0.0006180025858239853
1325.8148784998755,1325.8148784998755,0.9988916759135418,0.0006179094257829155
1325.8218230075533,1325.8218230075533,1.000318694098321,0.0006180479652450279
1325.8287675150455,1325.8287675150455,1.0009996169832625,0.000618325975090865
1325.8357120225376,1325.8357120225376,0.9992037788904782,0.0006181963510295055
1325.8426565300294,1325.8426565300294,0.9998768094499961,0.0006184627050349031
1325.8496010372423,1325.8496010372423,1.0002748136731154,0.0006184371275356875
1325.8565455446405,1325.8565455446405,1.0001392813306254,0.0006183502943067499
1325.8634900519469,1325.8634900519469,0.9997158058884015,0.000618414129274399
1325.870434559066,1325.870434559066,0.9999851922480454,0.0006182527680073429
1325.8773790660925,1325.8773790660925,1.0001227705732016,0.0006181737139100777
1325.8843235728395,1325.8843235728395,1.000656905465283,0.0006182018410361712
1325.891268079959,1325.891268079959,0.9999067216870138,0.0006178149435016949
1325.8982125867055,1325.8982125867055,0.9997219660321777,0.0006177469565087338
1325.905157093546,1325.905157093546,0.9998595618596762,0.000617769134955606
1325.9121016001995,1325.9121016001995,1.0004501204378269,0.0006177483885671266
1325.9190461068533,1325.9190461068533,0.9996857009149587,0.0006173708553492345
1325.925990613414,1325.925990613414,0.9993746793854772,0.0006172792657220174
1325.932935119975,1325.932935119975,0.9995527348097729,0.0006172502947680357
1325.939879626349,1325.939879626349,0.999507150185471,0.0006173640804518321
1325.9468241327236,1325.9468241327236,1.0009122469929965,0.0006174664549993207
1325.9537686390981,1325.9537686390981,1.0006653932524787,0.0006173672234520619
1325.9607131453795,1325.9607131453795,1.0008495240295798,0.0006172814111609042
1325.9684909922357,1325.9684909922357,0.9996420131486644,0.0006172960168397018
1325.9759910589,1325.9759910589,0.9999966246267489,0.000617241515250003
1325.9829355649952,1325.9829355649952,0.999170201972226,0.0006170718682022602
1325.9898800709036,1325.9898800709036,1.0003043410505796,0.0006173105878934577
1325.9968245769055,1325.9968245769055,0.9986806193990001,0.0006170293990556124
1326.0037690828144,1326.0037690828144,1.0004916888464228,0.0006174489284343084
1326.0107135885366,1326.0107135885366,1.0008526359802168,0.0006176027944461444
1326.0176580943526,1326.0176580943526,1.0001979611858756,0.0006179042364002345
1326.024602600075,1326.024602600075,0.9999895148126768,0.0006178835609965806
1326.0315471057045,1326.0315471057045,0.9989453802079158,0.0006179014853587111
1326.0384916112405,1326.0384916112405,0.99957770842825,0.0006180735370229476
1326.0454361167765,1326.0454361167765,1.0012718664686533,0.0006182742309969276
1326.05238062222,1326.05238062222,0.999691845560044,0.000618040743766215
1326.0593251276628,1326.0593251276628,1.000236856125945,0.0006182238353060295
1326.0662696330128,1326.0662696330128,1.0000899003176484,0.0006182649047226658
1326.0732141382698,1326.0732141382698,0.9995187650703775,0.000618299601500566
1326.080158643526,1326.080158643526,0.9999596675732663,0.0006182864201881966
1326.0871031486906,1326.0871031486906,0.9999810987984702,0.0006184754168520741
1326.0940476538537,1326.0940476538537,1.0006666293045732,0.0006187307611394866
1326.1009921589246,1326.1009921589246,1.0003677400130795,0.0006187515376951403
1326.107936663902,1326.107936663902,0.9995609692560663,0.000618706224621607
1326.114881168693,1326.114881168693,0.9999315891775551,0.0006188707597869633
1326.1218256738568,1326.1218256738568,0.9996955687800627,0.0006189443068622283
1326.1287701787408,1326.1287701787408,0.9998697805505525,0.0006191080736643892
1326.1357146835323,1326.1357146835323,0.9996557825938022,0.0006189701338867377
1326.1426591883233,1326.1426591883233,1.0003277736280682,0.0006192274842168054
1326.1496036926487,1326.1496036926487,1.0008461468336936,0.0006192896094634717
1326.1565481974399,1326.1565481974399,0.9996159306132728,0.0006191384529545899
1326.1634927020446,1326.1634927020446,0.9991351230880607,0.0006189051733608096
1326.1704372065567,1326.1704372065567,0.9997621920128978,0.0006190328408170127
1326.177381710975,1326.177381710975,0.999930422760573,0.0006190713586602433
1326.184326215487,1326.184326215487,0.9995455855810746,0.000619109949113316
1326.1912707198123,1326.1912707198123,1.0015260631898282,0.0006194268953758723
1326.1982152241376,1326.1982152241376,1.0003002815703719,0.0006192069935815279
1326.2051597284637,1326.2051597284637,1.0007446276347598,0.00061930129510368
1326.2121042326958,1326.2121042326958,0.9993937929509732,0.0006190987041016919
1326.2190487368352,1326.2190487368352,1.0005770153617755,0.0006193441526101478
1326.2259932409743,1326.2259932409743,0.9980449665498459,0.0006189120363289471
1326.2329377450203,1326.2329377450203,0.999495307217345,0.000619149822363921
1326.2398822490663,1326.2398822490663,0.9994873064506059,0.0006192154270587146
1326.246826753019,1326.246826753019,1.000102751786487,0.0006193293298580565
1326.2537712568796,1326.2537712568796,1.0006178804540256,0.0006195850990599124
1326.260715760832,1326.260715760832,1.0000289287534043,0.000619459725574315
1326.2676602645993,1326.2676602645993,1.0000662085020375,0.000619491517956897
1326.2746047683656,1326.2746047683656,1.0011172376856994,0.0006197968199842408
1326.2815492721322,1326.2815492721322,0.9995312129810919,0.0006193200764707388
1326.288493775806,1326.288493775806,0.9994113914938303,0.0006191939432305765
1326.2954382793864,1326.2954382793864,0.9990213900089628,0.0006190117689149347
1326.3023827830598,1326.3023827830598,1.0004207251532553,0.0006194314475811144
1326.309327286547,1326.309327286547,0.999429545006997,0.0006192104505325891
1326.3162717900345,1326.3162717900345,0.9994670267732282,0.0006193437888969229
1326.3232162934287,1326.3232162934287,1.0011629789287535,0.0006196150065745246
1326.3301607968226,1326.3301607968226,0.9999748233626115,0.0006196257146331436
1326.3371053002174,1326.3371053002174,1.0008650368171583,0.0006197159864839614
1326.3440498035184,1326.3440498035184,1.0000386574481162,0.0006198440446724415
1326.3515498670163,1326.3515498670163,0.9993271163852595,0.0006196760540180842
1326.3607166111983,1326.3607166111983,0.9999100055922268,0.0006198481088633565
1326.3676611144062,1326.3676611144062,1.000064513276063,0.0006201878502079802
1326.3746056174282,1326.3746056174282,0.9990785301155463,0.0006201442113730123
1326.3815501204494,1326.3815501204494,1.0000699799232287,0.0006204246281360235
1326.3884946234714,1326.3884946234714,0.9992427677110303,0.0006204800017929098
1326.3954391263999,1326.3954391263999,1.000387294620112,0.0006207624088582812
1326.4023836293284,1326.4023836293284,1.000071368981638,0.0006209730579136034
1326.4093281322566,1326.4093281322566,1.000609150052866,0.000621029654163845
1326.4162726349994,1326.4162726349994,1.000500135448137,0.0006211902536573013
1326.4232171377414,1326.4232171377414,0.9998451964528563,0.0006210483868393
1326.4301616405767,1326.4301616405767,0.999940617036507,0.0006211463368514318
1326.4371061430395,1326.4371061430395,0.9998995037207268,0.000621249388989389
1326.444050645968,1326.444050645968,1.0004936688399606,0.0006214763095017727
1326.450995148431,1326.450995148431,0.9988942053121199,0.0006212496185445865
1326.4579396508939,1326.4579396508939,0.9995903369433184,0.0006215742054065051
1326.4648841533567,1326.4648841533567,1.0009601301017406,0.0006218542093624973
1326.4718286558193,1326.4718286558193,1.0000614085936461,0.0006217729839627097
1326.4787731582824,1326.4787731582824,1.00060849792501,0.0006219552270395338
1326.4857176607454,1326.4857176607454,0.9993110877886864,0.000621914693752835
1326.4926621631148,1326.4926621631148,1.0001621050258276,0.0006220475220982872
1326.4996066652054,1326.4996066652054,0.9996453374231903,0.0006220988683823794
1326.5065511675748,1326.5065511675748,1.0000268002297796,0.0006223197962893336
1326.5134956696652,1326.5134956696652,0.999789981646086,0.0006223197562828705
1326.5204401718488,1326.5204401718488,0.9997347178932845,0.00062233261492867
1326.5273846739392,1326.5273846739392,1.000938175367279,0.0006226312320297511
1326.5343291760296,1326.5343291760296,0.9996578185858317,0.0006226502883502622
1326.5412736780265,1326.5412736780265,0.999771712372975,0.0006226792571693299
1326.548218180024,1326.548218180024,0.9995249812214047,0.0006227422540530626
1326.5551626819279,1326.5551626819279,1.0002794590026318,0.0006231740474648882
1326.5621071838318,1326.5621071838318,1.0002346382590515,0.000623103221130773
1326.5690516856425,1326.5690516856425,1.0000659436640895,0.0006232562534997488
1326.5759961874537,1326.5759961874537,1.0008785180246753,0.0006233307539997675
1326.582940689172,1326.582940689172,0.9994697817189204,0.00062330573197847
1326.5898851908892,1326.5898851908892,1.000189556546193,0.0006235082718382738
1326.5968296925143,1326.5968296925143,0.9998699451362848,0.0006235722896822687
1326.6037741942318,1326.6037741942318,0.9995876305791868,0.0006235674093182076
1326.6107186957636,1326.6107186957636,0.9992994352439479,0.0006237072051545744
1326.617663197388,1326.617663197388,1.0002005392895073,0.0006239055037479507
1326.6246076988264,1326.6246076988264,1.001073204190757,0.0006241189748278825
1326.6315522002649,1326.6315522002649,1.0001847452572306,0.0006240729347505334
1326.6384967017962,1326.6384967017962,0.9996593848218452,0.0006240013729416709
1326.6454412030484,1326.6454412030484,0.9992007785235607,0.0006239850321549829
1326.6523857043937,1326.6523857043937,1.0000124775560741,0.0006238039683683007
1326.6593302056458,1326.6593302056458,0.999808305294415,0.0006238895715051279
1326.6662747069913,1326.6662747069913,1.0005141933944828,0.0006240754879634847
1326.673219208057,1326.673219208057,0.9995346997408381,0.0006237659088691879
1326.6801637093095,1326.6801637093095,1.0009159533688479,0.0006239774032896174
1326.6871082103753,1326.6871082103753,0.9997710399589519,0.0006236986336641168
1326.6951638315556,1326.6951638315556,1.0006111778594844,0.0006238780160330107
1326.70238611272,1326.70238611272,0.999696743586064,0.0006235705621255548
1326.7093306136926,1326.7093306136926,1.000123411822944,0.0006235240787758529
1326.7168306746764,1326.7168306746764,0.9999188020673413,0.0006233829098821809
1326.7246085156653,1326.7246085156653,0.9997176729408013,0.0006233771195353241
1326.7315530165447,1326.7315530165447,0.9996175431752737,0.0006233857149498956
1326.7384975173313,1326.7384975173313,1.000201122615599,0.0006234755751105502
1326.745442018118,1326.745442018118,0.9993038775378441,0.0006231410876124429
1326.752386518811,1326.752386518811,1.0004913353322162,0.0006233465921998838
1326.7593310195043,1326.7593310195043,1.0001607229544902,0.0006235265503849581
1326.7662755201047,1326.7662755201047,1.0002951691137567,0.0006232831145333687
1326.7732200207047,1326.7732200207047,0.9998479015703952,0.0006232658522137054
1326.780164521305,1326.780164521305,1.0005822460426428,0.0006232910699070539
1326.787109021812,1326.787109021812,0.9996763456121887,0.0006231446394406833
1326.794053522226,1326.794053522226,0.9989602331205478,0.0006230580308595631
1326.800998022733,1326.800998022733,1.0001609035436254,0.000623375014646212
1326.8079425230542,1326.8079425230542,1.0011049007500987,0.0006236184097729642
1326.814887023468,1326.814887023468,0.9995727835604938,0.0006232692585811034
1326.8218315236022,1326.8218315236022,0.9993694703115714,0.0006234608041238972
1326.8287760240164,1326.8287760240164,0.9998283874657107,0.0006235294276693161
1326.835720524337,1326.835720524337,1.0008031703058748,0.0006238754828636033
1326.842665024472,1326.842665024472,0.9998733585456536,0.0006235371330646797
1326.8496095246064,1326.8496095246064,1.0006507214435083,0.0006238135691639939
1326.8565540247407,1326.8565540247407,1.0002166624260878,0.000623678377243708
1326.8634985247822,1326.8634985247822,0.9997995236866897,0.0006234420212604286
1326.8704430245446,1326.8704430245446,0.9988981945212252,0.0006232231626786924
1326.8773875246793,1326.8773875246793,0.9992520209392705,0.0006231745397295782
1326.884332024627,1326.884332024627,1.0006159210029366,0.0006232166957203189
1326.8912765244827,1326.8912765244827,1.0006078394814486,0.0006231575260459335
1326.8982210243373,1326.8982210243373,0.9995063661130622,0.0006228236654885492
1326.9051655241926,1326.9051655241926,1.0007239292186978,0.0006229395934356899
1326.9121100239547,1326.9121100239547,1.00061798086177,0.0006226977494902119
1326.9190545236238,1326.9190545236238,1.0001310322159676,0.0006222691826403205
1326.9259990232924,1326.9259990232924,0.9995330286744624,0.0006217716995674116
1326.9329435229615,1326.9329435229615,0.9988678433221618,0.0006215720039284562
1326.9398880225374,1326.9398880225374,0.9996638499674445,0.0006214384481646673
1326.9468325221126,1326.9468325221126,0.9996584250559287,0.0006212377818976257
1326.9537770216887,1326.9537770216887,1.000711455503764,0.0006212753782861428
1326.960721521078,1326.960721521078,1.0003334874940715,0.0006210847848363661
1326.967666020561,1326.967666020561,1.000285603929885,0.000620851772610254
1326.9746105198574,1326.9746105198574,1.0008175476291294,0.0006208438764030154
1326.9815550192463,1326.9815550192463,0.9995511816758527,0.00062047216952316
1326.9884995186362,1326.9884995186362,1.000508386505224,0.000620228640982816
1326.9954440178394,1326.9954440178394,0.9994362253319057,0.0006201309319944393
1327.0023885170428,1327.0023885170428,0.9995017220564557,0.0006200234366673714
1327.0093330162458,1327.0093330162458,0.9997011242475484,0.0006201906111900134
1327.016277515356,1327.016277515356,1.0007011826819323,0.0006201700958323015
1327.0232220145592,1327.0232220145592,0.9993333252891091,0.0006199971040532532
1327.0301665135762,1327.0301665135762,1.0001082115778792,0.0006201007801740879
1327.0371110125002,1327.0371110125002,1.0005706965953987,0.0006201646108005715
1327.0440555115165,1327.0440555115165,0.9995840406273115,0.0006200359800646014
1327.051000010441,1327.051000010441,0.9992253425459718,0.000619896872966576
1327.0579445094577,1327.0579445094577,1.000397423053562,0.0006201294445045512
1327.0657223481187,1327.0657223481187,1.0000989965671305,0.0006201320019793734
1327.0732224068665,1327.0732224068665,1.0002938551250211,0.0006203710681278144
1327.0801669056043,1327.0801669056043,1.0001421842258083,0.0006203013564043886
