time,time,flux,flux_err
1468.2789957755324,1468.2789957755324,0.999568081374,0.0011401487506623063
1468.286634851541,1468.286634851541,1.000440781644542,0.0010408045137364084
1468.2935794661148,1468.2935794661148,0.998779993809754,0.0010407615747757676
1468.3005240805028,1468.3005240805028,1.0011320970908222,0.001040987476391834
1468.3074686948448,1468.3074686948448,1.0005301646120468,0.0010412101507932267
1468.3144133091396,1468.3144133091396,0.9992709345131885,0.0010403237642384214
1468.3213579232943,1468.3213579232943,1.000174142268207,0.001041050831060261
1468.3283025373566,1468.3283025373566,1.0019458149040394,0.0010406836016793775
1468.3352471514188,1468.3352471514188,0.9997675210822567,0.0010401817830026725
1468.3421917652947,1468.3421917652947,1.001031802745103,0.0010406466625133323
1468.3491363791702,1468.3491363791702,1.0003632133937523,0.0010415447778701482
1468.3560809929063,1468.3560809929063,0.9998948561528526,0.0010404911926063282
1468.3630256065494,1468.3630256065494,0.9972916247684006,0.001040794494488262
1468.3699702201925,1468.3699702201925,0.998707821817907,0.0010405648923094237
1468.3769148336487,1468.3769148336487,0.9988062262843928,0.0010406019808508248
1468.393581905693,1468.393581905693,1.0004214701358283,0.0010427906137857235
1468.4005265189176,1468.4005265189176,0.9982242545017416,0.0010428997921992427
1468.407471132002,1468.407471132002,1.0011634767709976,0.001042731919182342
1468.4144157450855,1468.4144157450855,1.0012619665227058,0.0010428931411449764
1468.4213603580297,1468.4213603580297,1.0000755589563244,0.0010431809483435245
1468.428304970835,1468.428304970835,0.9992479255697212,0.0010426414820846367
1468.435249583733,1468.435249583733,0.9991914218215392,0.001042764768179653
1468.4421941963512,1468.4421941963512,1.0000660969404465,0.0010433353473884397
1468.4491388089696,1468.4491388089696,1.0012352609466943,0.0010432062439436902
1468.456083421495,1468.456083421495,0.9988567340796587,0.0010430263197340269
1468.4630280339738,1468.4630280339738,0.9990588051200626,0.0010430259075167596
1468.4699726463132,1468.4699726463132,1.0001480023925922,0.001043485913649072
1468.4769172586055,1468.4769172586055,1.0004814679746956,0.001043730094161594
1468.4838618708047,1468.4838618708047,0.9996575731143501,0.0010433928168183553
1468.4908064829112,1468.4908064829112,1.0015806717401246,0.0010433369611725122
1468.4977510949248,1468.4977510949248,0.9997045792361691,0.0010429587169543907
1468.5046957068446,1468.5046957068446,0.9985068505816554,0.0010428400749063497
1468.5116403187178,1468.5116403187178,1.0016546423466282,0.001043836886176304
1468.518584930498,1468.518584930498,1.00076283545395,0.0010439836610004534
1468.525529542185,1468.525529542185,0.9995862069615467,0.00104295640383603
1468.5324741538257,1468.5324741538257,0.999048731298293,0.0010440089453590325
1468.539418765327,1468.539418765327,0.9994803122057107,0.0010432765550492315
1468.5463633766879,1468.5463633766879,1.0000798448637174,0.0010438107008233332
1468.553307988049,1468.553307988049,0.9998909251315939,0.001043726223122771
1468.560252599317,1468.560252599317,0.9997999399735094,0.0010428470746546522
1468.5671972104924,1468.5671972104924,1.000674080534094,0.001042958305486424
1468.574141821574,1468.574141821574,0.999977781615231,0.0010426564036931662
1468.581086432609,1468.581086432609,0.9993159264561264,0.001043283285971659
1468.5880310435048,1468.5880310435048,1.0012171187330572,0.0010432173789761772
1468.5949756543537,1468.5949756543537,0.9999582997670968,0.0010422265906068079
1468.60192026511,1468.60192026511,0.9986352344201663,0.0010420262061488713
1468.6088648757723,1468.6088648757723,0.999659668898287,0.0010420506199352551
1468.6158094863417,1468.6158094863417,1.0003198971273461,0.0010420295767943658
1468.6227540969583,1468.6227540969583,1.0010663195230696,0.001042092135564192
1468.6296987073415,1468.6296987073415,0.9999584871510743,0.0010416588286748431
1468.6366433176784,1468.6366433176784,0.9999218682534574,0.0010420783178607157
1468.643587927875,1468.643587927875,1.0000767210966797,0.001042058942659343
1468.6505325380722,1468.6505325380722,0.9999356013599249,0.0010419148138339361
1468.6574771480832,1468.6574771480832,1.0006113228762579,0.0010414227551320489
1468.6644217580938,1468.6644217580938,0.9995643680062349,0.0010424392734189152
1468.6713663680582,1468.6713663680582,0.998626045612621,0.0010421021912569053
1468.6783109778826,1468.6783109778826,1.0006548169104064,0.0010422367002099783
1468.6852555876135,1468.6852555876135,1.0000301627262647,0.001042628088065456
1468.6922001972987,1468.6922001972987,1.0010168352468196,0.0010425067237149893
1468.6991448068438,1468.6991448068438,1.0012700215631578,0.0010428995904418466
1468.7060894163421,1468.7060894163421,0.9991908233538673,0.0010413086012648217
1468.7130340257013,1468.7130340257013,1.000082704187691,0.001041908961611915
1468.7199786351066,1468.7199786351066,0.9992329337408238,0.0010418972290949728
1468.726923244326,1468.726923244326,0.9992523443850418,0.0010418651227282368
1468.7338678534986,1468.7338678534986,0.9984978748443403,0.001041671341351577
1468.7408124625315,1468.7408124625315,1.0002744610740135,0.001042795750928646
1468.747757071471,1468.747757071471,0.9999515051360055,0.0010420397251314664
1468.7547016804106,1468.7547016804106,1.001786638092379,0.001041711523000439
1468.761646289211,1468.761646289211,1.0021270184501776,0.0010424488778681463
1468.7685908979647,1468.7685908979647,0.9989746310987664,0.0010409640011709925
1468.7755355065783,1468.7755355065783,0.9987665762725122,0.0010410574230446655
1468.7824801151917,1468.7824801151917,1.0000768498951973,0.0010418680243777356
1468.7894247236663,1468.7894247236663,1.000405855564132,0.0010414131831253163
1468.7963693320476,1468.7963693320476,0.9982049700028455,0.0010412574728614343
1468.803313940382,1468.803313940382,1.0003043919209964,0.0010417151321941846
1468.8102585486226,1468.8102585486226,1.0003236415618424,0.001042059670490837
1468.8172031567242,1468.8172031567242,1.0010318806967387,0.001042071188574043
1468.8241477647796,1468.8241477647796,1.000721298343406,0.001042577429058154
1468.8310923728345,1468.8310923728345,1.0011714646416396,0.0010416490744495444
1468.8380369806569,1468.8380369806569,0.9968351031008623,0.001041269816973615
1468.8449815884321,1468.8449815884321,1.0001717963961099,0.0010422717108846272
1468.8519261962078,1468.8519261962078,0.9997243524225562,0.0010428015996961856
1468.858870803844,1468.858870803844,0.9990410622473312,0.001042179798288293
1468.8658154114337,1468.8658154114337,1.000457319908222,0.0010423541118301503
1468.872760018883,1468.872760018883,1.0000424076043184,0.0010423540564581482
1468.8797046262393,1468.8797046262393,1.0000752472700463,0.0010422151061608037
1468.8866492335496,1468.8866492335496,0.998301763525291,0.0010416122150432128
1468.8935938407662,1468.8935938407662,1.0014905196801889,0.0010423739892024425
1468.9005384479367,1468.9005384479367,1.0000621942714718,0.001042235181245289
1468.9074830549202,1468.9074830549202,1.000850786631016,0.0010418778093597024
1468.9144276619975,1468.9144276619975,0.9994327691317227,0.0010416350897759072
1468.9213722688885,1468.9213722688885,1.0005352924578395,0.0010422189818736823
1468.9283168755933,1468.9283168755933,0.9996668728648286,0.0010414137985151595
1468.9352614823445,1468.9352614823445,1.0007452918890942,0.0010416000859958334
1468.9422060890024,1468.9422060890024,0.9991094144707544,0.0010412353725899697
1468.94915069552,1468.94915069552,0.9991645819117372,0.0010421066885172015
1468.9560953019925,1468.9560953019925,0.9996931158693508,0.0010424459557106202
1468.9644288296095,1468.9644288296095,1.0024961530492273,0.0010420428884979377
1468.9713734359416,1468.9713734359416,0.9985697237882117,0.0010416051142335175
1468.9783180420875,1468.9783180420875,0.9990776102150652,0.001042291885438731
1468.985262648233,1468.985262648233,1.0016581995362774,0.001041449036314241
1468.992207254286,1468.992207254286,0.9996095951531203,0.001041768181480418
1468.9991518602455,1468.9991518602455,0.9991186432149026,0.0010413709709846226
1469.0060964660188,1469.0060964660188,1.0003461472461512,0.0010412438295287272
1469.0130410717454,1469.0130410717454,1.0011758279999636,0.0010422826676471035
1469.019985677472,1469.019985677472,0.9996177100742341,0.0010422938585504982
1469.026930283199,1469.026930283199,1.00070658020284,0.001042230813277938
1469.0338748886927,1469.0338748886927,0.9986573099968776,0.0010428969009112466
1469.0408194940935,1469.0408194940935,1.0000447573520557,0.0010426939466841644
1469.0477640994939,1469.0477640994939,1.000361143369322,0.0010426457710975476
1469.0547087047553,1469.0547087047553,1.000291047739993,0.001043053104039429
1469.0616533099233,1469.0616533099233,0.9984403591754221,0.0010427616802217434
1469.0685979150446,1469.0685979150446,1.000093109570313,0.0010439923347005766
1469.0755425201194,1469.0755425201194,1.0010197151912181,0.0010433676703971119
1469.082487125008,1469.082487125008,0.9995112188609635,0.0010431698612147762
1469.0894317298964,1469.0894317298964,1.0007301384778606,0.0010441837869425454
1469.0963763346451,1469.0963763346451,1.000489965646954,0.0010439569300322996
1469.103320939394,1469.103320939394,0.9996165428660575,0.0010435444964415925
1469.1102655440034,1469.1102655440034,0.9998649839982072,0.0010443181322961472
1469.1172101485658,1469.1172101485658,0.999873539403198,0.0010444721266257544
1469.1241547528957,1469.1241547528957,0.9990048311890793,0.0010439341117172841
1469.131099357272,1469.131099357272,1.0005945051311518,0.0010444979154050219
1469.138043961555,1469.138043961555,0.9996650149383782,0.0010441261230980069
1469.1449885657453,1469.1449885657453,0.9990383125806203,0.0010442690757339087
1469.1519331698419,1469.1519331698419,1.0014558729306786,0.0010441300030276093
1469.158877773892,1469.158877773892,1.0002893369079093,0.0010446273627314304
1469.165822377803,1469.165822377803,0.999575209867485,0.0010440968910397819
1469.1727669816669,1469.1727669816669,0.9995323917158618,0.0010442930706694208
1469.1797115854383,1469.1797115854383,1.0010560148485854,0.0010446169924417602
1469.1866561891159,1469.1866561891159,1.000576598404121,0.001044866891767748
1469.1936007927002,1469.1936007927002,0.9996379296695019,0.0010443518920042658
1469.2005453962847,1469.2005453962847,0.9996898104672944,0.0010443252365806152
1469.2074899997301,1469.2074899997301,0.9989169977080554,0.001045059672115131
1469.2144346030352,1469.2144346030352,0.9993610440481513,0.0010440796859118055
1469.221379206294,1469.221379206294,1.0003924722255328,0.0010449928073631896
1469.228323809506,1469.228323809506,1.0013724914712674,0.0010450103545744324
1469.2352684125785,1469.2352684125785,1.000000226570968,0.0010445747987365354
1469.2422130156044,1469.2422130156044,1.0001120765860994,0.0010454480852503866
1469.2491576185373,1469.2491576185373,0.9995979320097153,0.0010452563897176445
1469.256102221377,1469.256102221377,1.0003035976886447,0.0010455034903012396
1469.2630468241696,1469.2630468241696,0.9993740704782794,0.0010452318484357541
1469.2699914268233,1469.2699914268233,1.0002699208618324,0.001045889006759299
1469.27693602943,1469.27693602943,0.9995074872711047,0.0010452343418916974
1469.283880631944,1469.283880631944,0.9994303991460745,0.0010455576680492538
1469.290825234411,1469.290825234411,1.000133756925927,0.0010457927317685778
1469.2977698366915,1469.2977698366915,1.0016327164452932,0.00104637836049319
1469.3047144389257,1469.3047144389257,1.000040018540043,0.0010462789652367617
1469.3116590411603,1469.3116590411603,1.0004754278116095,0.0010464802480890697
1469.3186036433015,1469.3186036433015,0.9989727153571064,0.001046360230555296
1469.3255482453028,1469.3255482453028,0.9995214488715313,0.0010457130930162824
1469.3324928472575,1469.3324928472575,0.9995236620280616,0.0010463070891939753
1469.3394374490726,1469.3394374490726,1.0000855229051062,0.001047613279441393
1469.3463820508878,1469.3463820508878,1.000672865837508,0.0010464538346234486
1469.353326652517,1469.353326652517,0.9992687760756281,0.0010464177607923523
1469.3602712541456,1469.3602712541456,0.9998924363637739,0.0010467952015360319
1469.3672158556815,1469.3672158556815,1.0004935530703738,0.0010465352834982907
1469.3741604570773,1469.3741604570773,1.0014661640694023,0.0010472548132131167
1469.381105058427,1469.381105058427,0.9995142593418015,0.001046933820553195
1469.3880496596835,1469.3880496596835,0.9994509466282627,0.0010469868592825793
1469.3949942609397,1469.3949942609397,0.9993545956884464,0.0010471124460275495
1469.4019388620568,1469.4019388620568,0.9996965686053653,0.0010480048593488026
1469.4088834629868,1469.4088834629868,1.001181828449989,0.0010478746548891688
1469.4158280639635,1469.4158280639635,1.00082434241729,0.0010479787870468537
1469.4227726647546,1469.4227726647546,1.0000421790666223,0.0010486240378976511
1469.4297172655454,1469.4297172655454,0.9994437504051212,0.0010482601438915242
1469.436661866243,1469.436661866243,0.9996355613231337,0.0010478492279093188
1469.4436064668007,1469.4436064668007,0.9989060545800417,0.0010482622420443992
1469.4505510673584,1469.4505510673584,0.999445045269525,0.001048083131260862
1469.4574956677766,1469.4574956677766,1.0012054429011357,0.0010484781353173123
1469.464440268102,1469.464440268102,1.000594308292906,0.0010490742962483376
1469.4713848683805,1469.4713848683805,1.0001967918246073,0.0010483294570980074
1469.4783294685653,1469.4783294685653,0.9993697059300916,0.0010489560341501768
1469.485274068611,1469.485274068611,0.9992740242994687,0.0010482147191778655
1469.49221866875,1469.49221866875,0.9994622022414624,0.0010486382588081593
1469.4991632686563,1469.4991632686563,1.0004950770559362,0.0010489836661044106
1469.506107868469,1469.506107868469,1.000282563309306,0.0010475901828237081
1469.5130524682354,1469.5130524682354,0.9990615860927811,0.001047301297121416
1469.5199970679082,1469.5199970679082,1.002498373953278,0.0010484269058950012
1469.526941667488,1469.526941667488,1.0001933265796485,0.001047314962170956
1469.533886267022,1469.533886267022,0.9995012925092794,0.001047515110277268
1469.540830866462,1469.540830866462,0.9994525029148867,0.001047908887561223
1469.5477754658557,1469.5477754658557,0.9996304610711393,0.0010472247545471765
1469.554720065063,1469.554720065063,1.0008299647634475,0.001047626270501734
1469.5616646642238,1469.5616646642238,0.99906900981637,0.001047360218168353
1469.5686092633853,1469.5686092633853,0.9992953404284706,0.0010487649840795097
1469.5755538623594,1469.5755538623594,1.0009696200415696,0.0010480065747728146
1469.582498461241,1469.582498461241,1.0001630455967931,0.0010484839231523155
1469.589443060216,1469.589443060216,0.9985098039488769,0.0010473562676935836
1469.5963876589572,1469.5963876589572,1.0002194311919577,0.0010480269093985609
1469.6033322576063,1469.6033322576063,1.0006497400729217,0.0010477028235454373
1469.6102768562082,1469.6102768562082,1.0002376913427515,0.0010485482941984727
1469.6172214546707,1469.6172214546707,1.0001743689041844,0.0010482489422893703
1469.6241660531334,1469.6241660531334,1.0008197753228143,0.0010478542016511977
1469.6311106515022,1469.6311106515022,0.9992202656962826,0.0010480244849980092
1469.6380552497317,1469.6380552497317,1.0010379795711757,0.001047993226665245
1469.6449998478686,1469.6449998478686,0.999842055056902,0.0010484318346129242
1469.6519444460514,1469.6519444460514,0.9995932810087714,0.0010478502428740205
1469.6588890440485,1469.6588890440485,0.9991957367709329,0.0010480661004419732
1469.6658336419982,1469.6658336419982,0.9988829683406706,0.0010480252381097027
1469.6727782398084,1469.6727782398084,1.0010214359646095,0.0010492804530786528
1469.6797228375726,1469.6797228375726,1.0007191174284393,0.0010486433966925381
1469.68666743529,1469.68666743529,0.9993903779310089,0.001047849325219409
1469.693612032961,1469.693612032961,1.001251080636636,0.0010489641437663522
1469.7005566303524,1469.7005566303524,0.9990139481167468,0.0010481434431582422
1469.7075012278365,1469.7075012278365,0.9996706630640592,0.0010491874536873945
1469.7144458251812,1469.7144458251812,1.0012135420233677,0.0010486863850054887
1469.7213904224332,1469.7213904224332,0.9998013358857897,0.0010488283214062479
1469.7283350195917,1469.7283350195917,0.9995736054262817,0.0010483387562328728
1469.7352796167504,1469.7352796167504,0.9995030530507656,0.001048551197367886
1469.7422242137225,1469.7422242137225,0.999572608286303,0.001048749530313189
1469.7491688106945,1469.7491688106945,0.9993827620093741,0.001047653638065522
1469.7561134075277,1469.7561134075277,1.0000370005743353,0.0010492134424261526
1469.7630580042671,1469.7630580042671,1.00166965485113,0.0010487521065464425
1469.77000260096,1469.77000260096,1.0006104688558959,0.001049033894113619
1469.7769471976062,1469.7769471976062,0.9998911954877225,0.0010477898374756252
1469.7838917940196,1469.7838917940196,1.0000569234675862,0.0010470940046552561
1469.7908363904335,1469.7908363904335,0.9994587102251625,0.0010467622982823538
1469.7977809868466,1469.7977809868466,0.9998785333499729,0.0010469243035526844
1469.8047255831668,1469.8047255831668,0.9990999101906578,0.0010466672363959853
1469.811670179348,1469.811670179348,0.9987854697474695,0.001045681909103988
1469.8186147754354,1469.8186147754354,0.9997742397921453,0.0010469472700191458
1469.8255593714293,1469.8255593714293,1.0020822399605387,0.0010471297221938366
1469.8325039673775,1469.8325039673775,1.0014080626381268,0.0010467175739832856
1469.8394485632318,1469.8394485632318,0.9991384969010891,0.0010461682168140072
1469.846393158994,1469.846393158994,0.9988464841662242,0.00104677174174061
1469.8533377546623,1469.8533377546623,1.0015390678385834,0.0010454282330115206
1469.8602823502838,1469.8602823502838,1.0000727377724767,0.001046222488393422
1469.8672269458127,1469.8672269458127,0.9983140133250672,0.0010449454505549235
1469.8741715412484,1469.8741715412484,0.9996525478021114,0.0010455367645537629
1469.8811161365907,1469.8811161365907,1.0002362007594985,0.0010455857833463682
1469.8880607318401,1469.8880607318401,1.0011038370987257,0.0010457980905615777
1469.8950053270896,1469.8950053270896,0.9994300124568978,0.0010457753455676649
1469.9019499221527,1469.9019499221527,1.0007461207598785,0.0010451752889123788
1469.9088945171693,1469.9088945171693,1.0000390448569152,0.0010454280517682199
1469.9158391120927,1469.9158391120927,0.9988731543995233,0.0010453020375498618
1469.9227837069695,1469.9227837069695,0.9995344856396041,0.0010447574221229222
1469.9297283017531,1469.9297283017531,0.999654923830265,0.0010440254314912165
1469.936672896444,1469.936672896444,0.9985547488062805,0.0010435202752100427
1469.943617491041,1469.943617491041,1.0002642687998098,0.001044234089437132
1469.9505620854986,1469.9505620854986,0.9997599083266996,0.0010436824869627583
1469.9575066800032,1469.9575066800032,0.998399667441155,0.0010443066135651523
1469.964451274321,1469.964451274321,1.0021294908489355,0.0010467458072210719
1469.971395868546,1469.971395868546,1.0045423207077682,0.0010470874844485827
1469.9783404628638,1469.9783404628638,1.0043924801786606,0.001048771618087931
1469.9852850569491,1469.9852850569491,1.0033283590809956,0.0010491702033405318
1469.9922296508946,1469.9922296508946,0.9999787184246685,0.0010497482368066286
1469.999174244887,1469.999174244887,0.9946262676684908,0.0010497966477659311
1470.0061188386928,1470.0061188386928,0.9929928463808182,0.0010501903281316738
1470.0130634324985,1470.0130634324985,0.9955079111752603,0.0010509042739966412
1470.0200080261643,1470.0200080261643,0.9974248144399432,0.0010530194782152338
1470.026952619784,1470.026952619784,0.9970229516280327,0.0010542424986048292
1470.0338972132638,1470.0338972132638,0.996846210736738,0.0010537047477936624
1470.0408418067436,1470.0408418067436,0.9981847728577575,0.0010552009748758947
1470.0477864000839,1470.0477864000839,0.9980645747149042,0.0010550827739702466
1470.054730993331,1470.054730993331,0.9989120071574783,0.0010547448732730893
1470.0616755865312,1470.0616755865312,0.997547517134721,0.0010544234407920054
