time,time,flux,flux_err
1325.3000655185022,1325.3000655185022,0.9998673453113974,0.00016406876027981305
1325.3083988262972,1325.3083988262972,0.999968257232768,0.00016412629512275036
1325.3160376919668,1325.3160376919668,1.0000466276286293,0.00014985746965234082
1325.3229821154534,1325.3229821154534,1.0000726288078796,0.00014986779789809596
1325.3299265390797,1325.3299265390797,1.0000697543824084,0.0001498804963219403
1325.3368709628576,1325.3368709628576,1.0002089994120649,0.00014990886108528045
1325.343815386787,1325.343815386787,0.9999381028255987,0.00014991401755229682
1325.3507598108554,1325.3507598108554,1.0000474949230758,0.000149953135203395
1325.357704235052,1325.357704235052,0.9998658123775769,0.00014996846991199782
1325.3646486594005,1325.3646486594005,0.9999053087305871,0.00014998828928623067
1325.3715930838769,1325.3715930838769,0.9999260513762536,0.000150005289269564
1325.3785375085042,1325.3785375085042,1.000034345652066,0.00015005523395091914
1325.38548193326,1325.38548193326,1.0003532619046387,0.00015008593534178614
1325.3924263581553,1325.3924263581553,1.000181641965237,0.00015011812742771435
1325.3993707831783,1325.3993707831783,0.9997768806661211,0.00015010960072573667
1325.4063152083415,1325.4063152083415,0.9998871168297494,0.0001501252503212827
1325.4132596336556,1325.4132596336556,0.9997477309340214,0.00015015621609816668
1325.4202040590637,1325.4202040590637,0.9999742733745727,0.00015017692884539797
1325.4271484846224,1325.4271484846224,1.0001949178240843,0.00015021690816673425
1325.4340929102975,1325.4340929102975,1.000163874714686,0.00015023221700465888
1325.441037336113,1325.441037336113,1.0001159390566445,0.00015023668724087086
1325.447981762044,1325.447981762044,0.9999989267796124,0.00015026233876162294
1325.4549261880918,1325.4549261880918,0.9998637181811955,0.00015026522665481277
1325.4618706142794,1325.4618706142794,0.9998697415081563,0.000150284229120834
1325.4688150405948,1325.4688150405948,0.9999305455269404,0.00015029581215603364
1325.4757594670039,1325.4757594670039,0.9999735336756845,0.00015032430428954006
1325.482703893575,1325.482703893575,1.000100436722472,0.00015034725515689353
1325.4896483202401,1325.4896483202401,1.0000145678387686,0.00015037554041754444
1325.4965927470216,1325.4965927470216,1.000000859614564,0.00015037614480510996
1325.5035371739189,1325.5035371739189,0.9999495159789076,0.00015040155633348152
1325.5104816009566,1325.5104816009566,0.9999863506864706,0.00015042613041508498
1325.5174260280635,1325.5174260280635,0.999936166536896,0.00015044562897484728
1325.5243704553106,1325.5243704553106,1.000212934998334,0.0001504859610133837
1325.5313148826738,1325.5313148826738,0.9999719867796832,0.00015048674323877456
1325.538259310142,1325.538259310142,1.000085065128118,0.00015052022580314004
1325.5452037377147,1325.5452037377147,0.9999120379835919,0.0001505306015997976
1325.552148165404,1325.552148165404,1.0000652158041559,0.00015055620467361965
1325.55909259321,1325.55909259321,1.0001534163661676,0.00015057568709464405
1325.5660370211203,1325.5660370211203,0.9999188671491588,0.0001505889088158306
1325.5729814491121,1325.5729814491121,0.9996354768937128,0.00015059239535143072
1325.5799258772327,1325.5799258772327,1.000039015459425,0.00015063953525796406
1325.586870305457,1325.586870305457,1.0000428656505957,0.00015064878381562766
1325.5938147337633,1325.5938147337633,1.000018907002346,0.00015064746033201503
1325.6007591621974,1325.6007591621974,1.0000046965441434,0.0001506734843647743
1325.6077035907251,1325.6077035907251,1.000154483754723,0.00015068371261398438
1325.6146480193343,1325.6146480193343,0.999842084498017,0.0001506677777800707
1325.621592448048,1325.621592448048,0.9999753242633862,0.00015067975492359138
1325.6285368768663,1325.6285368768663,1.0001201755753368,0.00015068702087189602
1325.635481305778,1325.635481305778,1.0002608286288095,0.00015069987681791
1325.6424257347828,1325.6424257347828,0.9998885613332466,0.00015068477117040842
1325.6493701638806,1325.6493701638806,0.9999490278659661,0.00015070050125300346
1325.6563145930834,1325.6563145930834,0.9999120521275671,0.00015068800596224917
1325.663259022379,1325.663259022379,0.9999456194415675,0.0001506978274466869
1325.670203451768,1325.670203451768,1.0000240079287481,0.00015070973114400229
1325.6771478812384,1325.6771478812384,0.9997673447358102,0.00015068412786008745
1325.6840923107907,1325.6840923107907,1.0001589878182915,0.00015070110512579283
1325.6910367404475,1325.6910367404475,1.0002175682721126,0.00015072152848317043
1325.6979811701854,1325.6979811701854,0.9999770282610136,0.0001507214585927549
1325.7049256000053,1325.7049256000053,1.0000712498002,0.0001507132421060244
1325.711870029906,1325.711870029906,0.9997431552823874,0.00015070938125582266
1325.7188144599008,1325.7188144599008,0.9999845367742746,0.0001507421148959634
1325.725758889976,1325.725758889976,1.0000431042098983,0.0001507452937657134
1325.732703320145,1325.732703320145,0.9999251649100801,0.00015073718407282113
1325.7396477503726,1325.7396477503726,0.9999830486041423,0.00015076239143644454
1325.7465921807043,1325.7465921807043,1.0002059107741388,0.00015078902709947617
1325.7535366111058,1325.7535366111058,1.0000817262359283,0.0001507917964187733
1325.7604810415894,1325.7604810415894,0.9999864849271545,0.00015079856920266886
1325.767425472154,1325.767425472154,0.9999880915525242,0.00015082093900410925
1325.7743699027887,1325.7743699027887,0.9998371263885817,0.00015080964835108903
1325.7813143335047,1325.7813143335047,0.9999509885389731,0.00015082808350433348
1325.7882587643028,1325.7882587643028,1.0001302548956341,0.00015085911104922197
1325.7952031951695,1325.7952031951695,0.999823287806586,0.0001508553930438812
1325.802147626107,1325.802147626107,1.0002575153419118,0.00015089577759115464
1325.809092057126,1325.809092057126,0.9998956738378448,0.00015087812518802646
1325.8160364882258,1325.8160364882258,1.0000165467403543,0.00015089113677412008
1325.822980919385,1325.822980919385,1.0001075334569285,0.00015090091159113286
1325.8299253506011,1325.8299253506011,0.9999716503687834,0.00015089638089570397
1325.8368697819108,1325.8368697819108,1.0000117070472931,0.00015092170771383563
1325.8438142132793,1325.8438142132793,0.9997800979782709,0.00015090335425588114
1325.8507586447165,1325.8507586447165,1.0000177152832546,0.00015091581117809822
1325.8577030762244,1325.8577030762244,0.999865273529705,0.0001509034657042341
1325.8646475078021,1325.8646475078021,1.0000917365489097,0.0001509069664654063
1325.871591939438,1325.871591939438,1.0000328063349666,0.00015090203040388559
1325.8785363711554,1325.8785363711554,1.0000858019172922,0.00015089622602225552
1325.8854808029187,1325.8854808029187,1.0000934669147796,0.0001508747162646361
1325.8924252347529,1325.8924252347529,1.0001302228794273,0.00015085312609713772
1325.8993696666446,1325.8993696666446,1.0001006318763517,0.0001508562169550153
1325.9063140986177,1325.9063140986177,0.9998759684446334,0.0001508243945027796
1325.9132585306259,1325.9132585306259,0.9998260508826103,0.00015082040864096286
1325.9202029627272,1325.9202029627272,0.9996991120039729,0.00015081497794175154
1325.927147394864,1325.927147394864,0.9998831754520058,0.00015082867774611957
1325.9340918270814,1325.9340918270814,1.000014677331369,0.00015082269075508518
1325.9410362593349,1325.9410362593349,1.0000289452055282,0.00015082449460530564
1325.9479806916572,1325.9479806916572,1.0001884827084864,0.00015081997447551326
1325.9549251240496,1325.9549251240496,0.9999057589899826,0.00015079926016797732
1325.9624251110747,1325.9624251110747,1.0003779742033188,0.00015083090540729804
1325.9702028754969,1325.9702028754969,0.9999799617789222,0.00015079323674959888
1325.977147308041,1325.977147308041,0.9998313018536067,0.00015079650938051408
1325.984091740666,1325.984091740666,1.0000558718806787,0.0001507875972232233
1325.9910361733496,1325.9910361733496,1.0000698410346214,0.0001507949812199246
1325.997980606068,1325.997980606068,1.0000558108171453,0.0001508120425630088
1326.0049250388445,1326.0049250388445,1.0000268226009876,0.00015080743714515225
1326.0118694716914,1326.0118694716914,0.9999819413911144,0.000150825638660035
1326.0188139045608,1326.0188139045608,0.9999957180709769,0.00015082891203485165
1326.0257583375005,1326.0257583375005,1.000176787993619,0.00015085356544658214
1326.032702770487,1326.032702770487,0.9997397752747184,0.00015084034450519232
1326.0396472035309,1326.0396472035309,0.9999462135916574,0.0001508438840731104
1326.0465916366106,1326.0465916366106,1.000024020465764,0.0001508427768920404
1326.0535360697595,1326.0535360697595,1.0001289376079119,0.00015086069923552227
1326.0604805029554,1326.0604805029554,0.9999670259352781,0.00015086773309853292
1326.0674249361741,1326.0674249361741,0.9999090908619506,0.00015086600204646048
1326.0743693694512,1326.0743693694512,1.0000659945875405,0.0001508637612602822
1326.0813138027754,1326.0813138027754,1.0001053156839976,0.00015087993723202054
1326.0882582361457,1326.0882582361457,0.9997753240466402,0.00015085345281063594
1326.0952026695745,1326.0952026695745,1.0001400990164258,0.00015087317143266872
1326.1021471030494,1326.1021471030494,0.9999825243650641,0.0001508656495362566
1326.109091536548,1326.109091536548,1.0001402857255803,0.00015088058966427703
1326.116035970093,1326.116035970093,0.999833718290601,0.00015085763458440738
1326.122980403684,1326.122980403684,0.999915089990427,0.00015085741639057768
1326.129924837334,1326.129924837334,0.9999765170191548,0.00015086754532695317
1326.136869271019,1326.136869271019,0.9996912561106079,0.00015084652119184343
1326.1438137047385,1326.1438137047385,1.0001855279865757,0.0001508732985359606
1326.1507581385163,1326.1507581385163,1.0003153668248383,0.00015088821682289873
1326.1577025723168,1326.1577025723168,1.0001128243442226,0.000150873128210441
1326.1646470061653,1326.1646470061653,1.0001451491577726,0.00015087515014537654
1326.1715914400472,1326.1715914400472,0.9996583561506934,0.0001508402356113317
1326.1785358739767,1326.1785358739767,0.9999500412832019,0.0001508490816300497
1326.1854803079525,1326.1854803079525,1.0001300058007767,0.0001508673081753775
1326.192424741951,1326.192424741951,0.9999503819215635,0.00015084218487556916
1326.1993691760085,1326.1993691760085,0.9997935876555257,0.00015084144014161903
1326.2063136100774,1326.2063136100774,0.9999254215026209,0.00015086332607695891
1326.2132580441933,1326.2132580441933,1.00021167998739,0.000150868455672371
1326.2202024783546,1326.2202024783546,1.0000917361952955,0.0001508504214184439
1326.2271469125633,1326.2271469125633,1.0000809079985697,0.00015085682040522728
1326.2340913467835,1326.2340913467835,1.0001610988357983,0.0001508625630984961
1326.2410357810384,1326.2410357810384,0.9998550339302895,0.00015082271004685467
1326.2479802153405,1326.2479802153405,0.9998027114129918,0.00015081999086024103
1326.254924649665,1326.254924649665,0.9997775577228916,0.0001508385756209304
1326.2618690840254,1326.2618690840254,0.9998913570688863,0.00015083411817360062
1326.2688135184435,1326.2688135184435,1.0002248682273749,0.00015085050135267778
1326.2757579528843,1326.2757579528843,1.000003861184727,0.00015084665193198648
1326.2827023873494,1326.2827023873494,1.0001898944720555,0.00015084733736577037
1326.289646821849,1326.289646821849,0.9999590152756153,0.0001508352202640086
1326.2965912563836,1326.2965912563836,0.9998650118792902,0.0001508309622931361
1326.3035356909527,1326.3035356909527,0.9998985855233231,0.00015082339973797174
1326.310480125534,1326.310480125534,1.0000555330401235,0.00015084250083274742
1326.317424560185,1326.317424560185,1.0000249759079873,0.00015084735640564346
1326.3243689948354,1326.3243689948354,1.000144145976516,0.0001508595161663288
1326.3313134295101,1326.3313134295101,0.9998015519227369,0.00015082085258387578
1326.3382578642306,1326.3382578642306,0.9997781759362683,0.00015084179538155112
1326.345202298975,1326.345202298975,1.0002543071099042,0.00015086595542185987
1326.354924507661,1326.354924507661,0.9997764500034405,0.0001508383171425872
1326.3618689424861,1326.3618689424861,1.0004711103749107,0.00015088328097056535
1326.3688133773235,1326.3688133773235,0.9997681948236228,0.00015084940077428723
1326.3757578121954,1326.3757578121954,1.0000222688011515,0.0001508657970119576
1326.3827022471028,1326.3827022471028,1.0002347276733194,0.00015088597389947513
1326.3896466820097,1326.3896466820097,0.9999073145781437,0.0001508721268634364
1326.3965911169748,1326.3965911169748,0.9999327198530855,0.00015086832612007094
1326.4035355519518,1326.4035355519518,0.9996946108467203,0.00015086881311342877
1326.4104799869638,1326.4104799869638,0.9998873783927615,0.00015087622256439057
1326.417424421987,1326.417424421987,1.000371634537505,0.00015091192421446683
1326.4243688570573,1326.4243688570573,0.9999672615403975,0.00015089501717256598
1326.431313292139,1326.431313292139,1.000174027676503,0.00015090990764922663
1326.4382577272436,1326.4382577272436,0.9999348865773886,0.00015090712197647806
1326.445202162372,1326.445202162372,0.9998192247739641,0.00015089905709792997
1326.4521465975236,1326.4521465975236,1.0002123503741287,0.00015092145505056297
1326.4590910327101,1326.4590910327101,0.9997807645048375,0.0001508986622892881
1326.4660354678847,1326.4660354678847,0.9998675259528135,0.00015089957637361896
1326.472979903118,1326.472979903118,0.9999346263996161,0.00015091840443513517
1326.479924338374,1326.479924338374,1.0001988380710456,0.0001509378625394798
1326.486868773642,1326.486868773642,1.0001377884070093,0.00015093824384841781
1326.4938132089449,1326.4938132089449,0.9999662650201703,0.00015092927914025668
1326.5007576442479,1326.5007576442479,0.9999589222190404,0.0001509323613187154
1326.5077020795854,1326.5077020795854,1.0002415826999336,0.0001509491200508673
1326.514646514935,1326.514646514935,0.9998871893336798,0.00015092264515103796
1326.521590950319,1326.521590950319,0.9998534221374582,0.00015093625962162176
1326.528535385727,1326.528535385727,0.9999518574850882,0.00015094116438324088
1326.535479821146,1326.535479821146,0.9998692182574196,0.00015094331411470772
1326.5424242565773,1326.5424242565773,0.9999573036586534,0.00015095190410080946
1326.5493686920313,1326.5493686920313,1.0001239200855938,0.00015098810736239421
1326.5563131275087,1326.5563131275087,0.9999880206204284,0.00015097998836390377
1326.5632575630095,1326.5632575630095,1.000315478389345,0.00015100920836500723
1326.5702019985333,1326.5702019985333,0.9998396570479772,0.00015097412355450474
1326.5771464340576,1326.5771464340576,1.0002014566435151,0.00015100036664763628
1326.5840908696164,1326.5840908696164,0.9999964709971081,0.000150978231993623
1326.5910353051872,1326.5910353051872,0.9999123213650846,0.00015099384293467078
1326.597979740781,1326.597979740781,0.9998324385803887,0.00015099987025129306
1326.6049241763865,1326.6049241763865,0.999804713176764,0.00015098627991879887
1326.611868612004,1326.611868612004,1.0000480929105544,0.00015100921987548248
1326.618813047656,1326.618813047656,1.00016955146687,0.00015103217306888672
1326.6257574832962,1326.6257574832962,1.0000090955158167,0.00015101314296973655
1326.6327019189835,1326.6327019189835,1.0000485401552963,0.00015100674060622492
1326.6396463546703,1326.6396463546703,0.9998723150230404,0.00015099511886423582
1326.6465907903807,1326.6465907903807,0.9999709847267472,0.0001510043571041736
1326.6535352261026,1326.6535352261026,0.9999240403564175,0.0001509836886152043
1326.6604796618362,1326.6604796618362,0.99990949679721,0.0001509887199931324
1326.667424097593,1326.667424097593,1.0002387879180135,0.00015101006235281075
1326.6743685333736,1326.6743685333736,1.0000894435688035,0.0001509794026926244
1326.6813129691302,1326.6813129691302,1.0002663179439721,0.00015098559106723576
1326.689090737243,1326.689090737243,1.0000898144848864,0.00015096626579917742
1326.6965907279232,1326.6965907279232,0.9997116075012789,0.00015094088414764828
1326.7035351637383,1326.7035351637383,0.999811850187751,0.0001509424480985106
1326.710757377033,1326.710757377033,0.9996165027505871,0.00015092070264703417
1326.718812922625,1326.718812922625,0.9999236587845604,0.00015092186677398897
1326.7257573584982,1326.7257573584982,0.9999640461750976,0.0001509182437457786
1326.732701794383,1326.732701794383,1.0001192345124168,0.00015092948533905974
1326.7396462302913,1326.7396462302913,1.0001319091012288,0.0001509204529986476
1326.7465906661996,1326.7465906661996,1.000183228763228,0.00015091063477127868
1326.753535102119,1326.753535102119,1.0000808091793991,0.00015091069152168093
1326.7604795380507,1326.7604795380507,1.0000714055717168,0.00015089347018649123
1326.7674239740052,1326.7674239740052,0.9996795831109029,0.0001508770501665563
1326.7743684099719,1326.7743684099719,1.0001708528759934,0.00015089872754294113
1326.7813128459384,1326.7813128459384,0.9998872152309586,0.00015088634373020492
1326.7882572819278,1326.7882572819278,0.9999969961851278,0.0001509012512215655
1326.7952017179182,1326.7952017179182,0.9998933748260296,0.00015089887165020428
1326.8021461539195,1326.8021461539195,1.0001547624859266,0.00015090785222477936
1326.8090905899437,1326.8090905899437,0.9998707484409677,0.00015089037554168446
1326.8160350259682,1326.8160350259682,0.9999740353349079,0.00015089321030695523
1326.8229794620047,1326.8229794620047,1.0000252483235585,0.0001508909407536416
1326.8299238980526,1326.8299238980526,1.000074018465493,0.00015088462803133562
1326.836868334124,1326.836868334124,0.9998702019584809,0.00015088748251684405
1326.8438127701718,1326.8438127701718,1.0002524292278248,0.00015090000849043606
1326.8507572062776,1326.8507572062776,1.0000424287222083,0.00015087608347746955
1326.8577016423255,1326.8577016423255,1.0000054718002043,0.00015089330116244902
1326.864646078432,1326.864646078432,0.9998592253324625,0.00015085408865402335
1326.8715905145382,1326.8715905145382,0.9997898788696922,0.00015085201048036412
1326.8785349506443,1326.8785349506443,1.0002300554725232,0.00015087368777198134
1326.8854793867968,1326.8854793867968,0.9998793100943566,0.0001508259133686831
1326.892423822915,1326.892423822915,0.999990342970659,0.00015082425286238075
1326.8993682590674,1326.8993682590674,1.0001597655851597,0.0001508220456142337
1326.9063126952083,1326.9063126952083,0.9999783969989116,0.00015080424902849158
1326.913257131361,1326.913257131361,0.9998999805522553,0.00015077060911776767
1326.9202015675255,1326.9202015675255,1.0000590807984246,0.0001507682647682457
1326.9271460037012,1326.9271460037012,1.0000246989975963,0.0001507498436677621
1326.9340904398775,1326.9340904398775,0.9998285428621922,0.0001507221701161755
1326.9410348760648,1326.9410348760648,1.0002449523410935,0.00015072594909877789
1326.9479793122641,1326.9479793122641,0.9998290783931985,0.0001507025390304143
1326.9549237484518,1326.9549237484518,0.9999756080036979,0.00015070001740298292
1326.9618681846746,1326.9618681846746,1.0001006269016635,0.00015068271187914796
1326.9688126208855,1326.9688126208855,0.9998420553972711,0.00015066438349047547
1326.9757570571076,1326.9757570571076,1.0001821667371351,0.00015066609614194392
1326.9827014933305,1326.9827014933305,1.0000986713886484,0.0001506500128022203
1326.9896459295646,1326.9896459295646,0.9999436015030382,0.0001506302299392077
1326.9965903657992,1326.9965903657992,0.9999941826632396,0.00015061716934051234
1327.003534802056,1327.003534802056,0.9999705200945408,0.00015063501765587886
1327.0104792383022,1327.0104792383022,0.9996969285598929,0.00015059723453469926
1327.0174236745595,1327.0174236745595,1.0000334362774983,0.00015061578531396386
1327.024368110817,1327.024368110817,1.0000553819363538,0.00015062876192974345
1327.0313125470861,1327.0313125470861,1.000067326782591,0.0001506228945280359
1327.038256983355,1327.038256983355,1.000211538777311,0.00015062622534417616
1327.0452014196362,1327.0452014196362,1.0000990581024003,0.00015061383445601908
1327.0521458559167,1327.0521458559167,1.0005281536183366,0.00015063357773559928
