time,time,flux,flux_err
1410.9100925370064,1410.9100925370064,1.000530620067621,0.0006504217641001631
1410.9177317172512,1410.9177317172512,1.0001964287429235,0.0005937272054108518
1410.9246764263535,1410.9246764263535,0.9995285948771407,0.0005937003524236306
1410.9316211356413,1410.9316211356413,1.0001214362693118,0.0005937734295025392
1410.9385658446502,1410.9385658446502,1.0000436760174822,0.0005936927944012853
1410.9455105535658,1410.9455105535658,0.9995829244547462,0.0005935125581759943
1410.952455262481,1410.952455262481,0.9998687214159047,0.0005936898132241334
1410.9593999713975,1410.9593999713975,1.0005112754452916,0.0005937498947389123
1410.96773362176,1410.96773362176,1.0002388521021603,0.0005936029402891653
1410.9838453454608,1410.9838453454608,1.000084335463658,0.0005932657598837753
1410.9913456306579,1410.9913456306579,0.9996118220574728,0.0005932543921075178
1411.0010682221896,1411.0010682221896,0.999693073561802,0.0005928710603950496
1411.0107908136283,1411.0107908136283,1.0009991646381575,0.0005933815746063998
1411.0177355213332,1411.0177355213332,0.9998272651916759,0.0005928952062235246
1411.0246802294107,1411.0246802294107,1.0001702277800741,0.0005929543250263532
1411.0316249371158,1411.0316249371158,0.9995302220427196,0.0005928297280646446
1411.0385696448197,1411.0385696448197,1.0008546048153473,0.0005929467603714259
1411.0455143524325,1411.0455143524325,1.0003155871777072,0.0005927252572863897
1411.0535702130715,1411.0535702130715,0.9998323490540557,0.0005925892030410903
1411.0607927087308,1411.0607927087308,1.0000629180054101,0.0005926209912662038
1411.06773741597,1411.06773741597,0.9999712305840616,0.0005924205191928415
1411.074682123116,1411.074682123116,1.0000808011373905,0.0005925290145579593
1411.0816268300764,1411.0816268300764,0.9998917719268835,0.0005924342873492477
1411.0885715370357,1411.0885715370357,1.0002581551212915,0.0005924796946519988
1411.0955162438095,1411.0955162438095,1.000147475518899,0.0005924316624157008
1411.1024609505832,1411.1024609505832,0.9994833559111888,0.0005924185189231367
1411.10940565717,1411.10940565717,0.9999351315770474,0.000592423827378013
1411.1163503636649,1411.1163503636649,0.9999041077137173,0.0005923633151888585
1411.1232950699718,1411.1232950699718,0.9998874268460509,0.0005922151362074011
1411.1302397762802,1411.1302397762802,0.9994726853635211,0.000592021451103543
1411.1371844823088,1411.1371844823088,1.000945453493379,0.0005922649115365731
1411.144129188616,1411.144129188616,1.000143102431677,0.0005921061978482839
1411.1510738944594,1411.1510738944594,0.9997597178685401,0.0005920329302042911
1411.1580186003007,1411.1580186003007,1.0000376285693675,0.0005919040015222216
1411.164963305771,1411.164963305771,1.0002022519372988,0.0005918597056549537
1411.17190801152,1411.17190801152,0.9999090494071909,0.000591762179475217
1411.178852716896,1411.178852716896,1.000013895191454,0.0005919319695192889
1411.1857974221803,1411.1857974221803,1.0001895796308569,0.0005919054245492032
1411.1927421274634,1411.1927421274634,0.9996269673435684,0.000591846300888828
1411.1996868325605,1411.1996868325605,1.0000619222686744,0.0005918549121362253
1411.2066315375646,1411.2066315375646,1.0003005857148768,0.0005919739336150301
1411.213576242475,1411.213576242475,1.0002810945916636,0.000591847508664451
1411.2205209472004,1411.2205209472004,0.9996824740528538,0.0005918806634828462
1411.2274656518314,1411.2274656518314,0.9990769363315462,0.000591808280489363
1411.2344103562768,1411.2344103562768,1.0005944700685623,0.0005920105047803552
1411.2413550607223,1411.2413550607223,1.0002323211246786,0.0005918703950061634
1411.2482997649809,1411.2482997649809,1.000705481862074,0.0005919876067486441
1411.2552444691476,1411.2552444691476,0.999057887016366,0.0005919799943953019
1411.2621891732197,1411.2621891732197,0.9998562268080722,0.0005919690933595036
1411.2691338770132,1411.2691338770132,0.999904661836078,0.0005919594383256164
1411.2760785809928,1411.2760785809928,1.0004033504731324,0.0005919523223821407
1411.2830232845063,1411.2830232845063,1.0006422971271558,0.0005920681852738965
1411.2899679880206,1411.2899679880206,0.9993741690672252,0.0005919240585880593
1411.2969126915343,1411.2969126915343,0.9994658235054743,0.000591846835141331
1411.3038573947692,1411.3038573947692,1.000187241563592,0.0005920801307128408
1411.3108020980037,1411.3108020980037,1.0007100712208241,0.000592107276562849
1411.3177468010517,1411.3177468010517,0.9995364906156275,0.0005919609231643849
1411.3246915039142,1411.3246915039142,1.00012826220842,0.0005920791097869159
1411.3316362067758,1411.3316362067758,0.99970559417419,0.0005918946841384105
1411.3385809094516,1411.3385809094516,0.9996001669225777,0.0005917018950001516
1411.345525612034,1411.345525612034,1.000075559234464,0.0005918836939514627
1411.3524703144305,1411.3524703144305,1.0001287683541433,0.0005919231866598907
1411.3594150167341,1411.3594150167341,1.0000210097216713,0.0005919473266211142
1411.3663597188502,1411.3663597188502,1.0002072350195168,0.0005918007947811269
1411.3733044209682,1411.3733044209682,1.0003845238663223,0.0005918770593986332
1411.3802491228048,1411.3802491228048,0.9996378819899883,0.0005918109846803187
1411.387193824736,1411.387193824736,0.9999116475221792,0.0005917225436742004
1411.3941385262942,1411.3941385262942,1.0002023609052704,0.0005918127974790171
1411.401083227945,1411.401083227945,1.0005744105661996,0.0005917628930646471
1411.4080279293175,1411.4080279293175,0.9990861791614822,0.0005915705376245347
1411.4149726307824,1411.4149726307824,1.0004167455450055,0.0005916246477180897
1411.421917331968,1411.421917331968,0.9992971634513367,0.0005914217208577589
1411.4288620326881,1411.4288620326881,1.0000109643703876,0.0005915178879210387
1411.4358067337798,1411.4358067337798,1.000529450494478,0.0005914870471149665
1411.4427514345005,1411.4427514345005,1.000363837240744,0.0005913819075350807
1411.4496961352202,1411.4496961352202,0.9999799044976925,0.0005913207350535498
1411.4566408357537,1411.4566408357537,1.0000077733454806,0.0005914069885424301
1411.4635855361016,1411.4635855361016,0.999404870775211,0.0005912707885164308
1411.4705302364487,1411.4705302364487,1.0009105784628327,0.0005913717636568444
1411.4774749366106,1411.4774749366106,0.9992844006069375,0.0005912114200523563
1411.484419636678,1411.484419636678,1.000147684728524,0.0005914100835780635
1411.491364336467,1411.491364336467,0.9999946530202571,0.0005914686677509181
1411.4983090362555,1411.4983090362555,0.9999103944846871,0.0005915695666474806
1411.5052537359506,1411.5052537359506,1.0010092672617763,0.0005916882820512085
1411.5121984354603,1411.5121984354603,0.999911841289235,0.0005915004289304548
1411.519143134783,1411.519143134783,0.9996354714915452,0.0005913461798854887
1411.5260878340132,1411.5260878340132,0.9997819639266121,0.0005916322982603971
1411.533032533243,1411.533032533243,0.9992693905207173,0.0005914669805036668
1411.5399772321002,1411.5399772321002,1.000001036051981,0.0005914464247180581
1411.546921930958,1411.546921930958,0.9995798055262473,0.0005914444292880501
1411.5538666298148,1411.5538666298148,1.0003828302475635,0.000591428240839845
1411.5608113283931,1411.5608113283931,1.0006022290324235,0.000591437334427211
1411.5677560268773,1411.5677560268773,1.000061039719826,0.0005915581482447998
1411.5747007252694,1411.5747007252694,0.9996896286290224,0.0005914036992173227
1411.581645423568,1411.581645423568,1.0005283493681283,0.0005914546241264856
1411.5885901215865,1411.5885901215865,0.9997727961015705,0.0005914052671782242
1411.5955348196067,1411.5955348196067,0.9999044601080165,0.0005913377284379301
1411.6024795174385,1411.6024795174385,0.9995676906978925,0.0005913419974297467
1411.609424215179,1411.609424215179,1.0001205103981523,0.000591493689813783
1411.6163689126392,1411.6163689126392,1.0001616622793827,0.0005915603571382766
1411.6233136101923,1411.6233136101923,1.000774943207818,0.0005917124479853206
1411.630258307467,1411.630258307467,0.9995682853935062,0.0005913534304118909
1411.6372030046475,1411.6372030046475,1.000049615550468,0.0005914936904133853
1411.6441477017356,1411.6441477017356,1.0005645944094577,0.0005916195217720412
1411.6510923987303,1411.6510923987303,0.9990888157180052,0.0005913377596573976
1411.6580370954453,1411.6580370954453,1.000030003933561,0.000591417695475397
1411.664981792161,1411.664981792161,0.9993781452148562,0.0005913382054068018
1411.6719264889687,1411.6719264889687,1.0003004637856625,0.0005915563154460453
1411.6788711850327,1411.6788711850327,1.0001490194584224,0.0005913856792266418
1411.6858158815617,1411.6858158815617,1.0006987147654134,0.0005914388645328625
1411.692760577625,1411.692760577625,1.000119240708118,0.0005913505610753228
1411.6997052736886,1411.6997052736886,0.999096949971028,0.0005910966229853706
1411.7066499695652,1411.7066499695652,0.9998902405966108,0.0005912119528884884
1411.7135946653498,1411.7135946653498,1.000939336177791,0.0005912658068643857
1411.72053936104,1411.72053936104,0.9998342935492348,0.0005912208463757609
1411.7274840566379,1411.7274840566379,0.9992293657374074,0.0005910324962240873
1411.734428752049,1411.734428752049,1.000321035174717,0.0005912711287671251
1411.7413734472743,1411.7413734472743,1.0000927571816034,0.0005910516421405184
1411.7483181424068,1411.7483181424068,0.9997335427698143,0.0005911047053687708
1411.7552628373521,1411.7552628373521,0.9998300919157842,0.0005912659542796922
1411.7622075322986,1411.7622075322986,1.0005179794866232,0.0005913659002112412
1411.7691522270577,1411.7691522270577,1.0005901876977004,0.0005912781076809689
1411.7760969217243,1411.7760969217243,0.9995484306217136,0.00059104611922956
1411.7830416162042,1411.7830416162042,1.0000337579221064,0.0005913631562272693
1411.7899863104044,1411.7899863104044,0.9992688252895906,0.0005908070028617343
1411.796931004606,1411.796931004606,0.9999304066836601,0.0005912505558373013
1411.8038756988062,1411.8038756988062,1.0003986379916552,0.0005912970635600833
1411.8108203930074,1411.8108203930074,0.9995223584371649,0.0005909706367885016
1411.8177650867424,1411.8177650867424,1.0002905261924893,0.0005911108546001128
1411.8247097805702,1411.8247097805702,1.0009134014284486,0.000591193671529594
1411.8316544741197,1411.8316544741197,1.0003012239191844,0.0005910970963798967
1411.8385991676676,1411.8385991676676,0.998736823179034,0.0005908161461401121
1411.845543861031,1411.845543861031,1.0005471668182633,0.0005910600112965463
1411.8524885542067,1411.8524885542067,0.9994852905629088,0.0005910667687067393
1411.8594332473829,1411.8594332473829,1.0004700079667832,0.000591101124127608
1411.86637794028,1411.86637794028,1.0004521203675545,0.0005910747802100979
1411.8733226331765,1411.8733226331765,1.0001256156046783,0.0005910171038640812
1411.8802673258876,1411.8802673258876,0.9989584288347004,0.0005907977254242425
1411.8872120184114,1411.8872120184114,0.9999013935236288,0.0005910494812758997
1411.8941567109364,1411.8941567109364,1.000633227754538,0.0005911280128721119
1411.9011014031807,1411.9011014031807,1.000209571248403,0.0005911798279672989
1411.9080460955195,1411.9080460955195,0.9994710243128664,0.0005907476289295103
1411.9149907873916,1411.9149907873916,0.9998465960878178,0.0005910341474093599
1411.9219354796364,1411.9219354796364,1.0005202163764946,0.0005910223964520768
1411.92888017123,1411.92888017123,0.9994543617823275,0.0005909757609546975
1411.9358248630087,1411.9358248630087,1.0003174780564466,0.0005911026361690834
1411.9427695546024,1411.9427695546024,0.9998963523427007,0.0005908909208045671
1411.9497142461018,1411.9497142461018,1.0005627067542802,0.0005911161586189315
1411.956658937415,1411.956658937415,1.0001438703730199,0.0005910092452772273
1411.963603628636,1411.963603628636,0.9996683068982574,0.0005909761506307507
1411.97054831967,1411.97054831967,0.9994657256444647,0.0005908931191628134
1411.9774930106116,1411.9774930106116,0.9997733504941497,0.0005908945899455074
1411.9844377014592,1411.9844377014592,0.9995217565059893,0.0005907090021095444
1411.9913823922143,1411.9913823922143,0.9997408126833726,0.0005908324691011469
1411.998327082783,1411.998327082783,1.0008929309769459,0.0005909260081022506
1412.0052717731648,1412.0052717731648,1.0004750892758516,0.0005911698940790573
1412.0122164635477,1412.0122164635477,1.0004653066590579,0.0005909800347636662
1412.0191611536497,1412.0191611536497,1.000508178360537,0.0005910027363300177
1412.0261058437534,1412.0261058437534,0.9991115693977353,0.0005907859844222797
1412.033050533763,1412.033050533763,0.9997603910332158,0.0005906585297012783
1412.0399952234934,1412.0399952234934,1.0003540291859887,0.0005909189457559111
1412.0469399134101,1412.0469399134101,0.9998995460784439,0.000590580643404028
1412.053884602954,1412.053884602954,0.9995367263042553,0.0005908086190617787
1412.0608292923125,1412.0608292923125,0.9989820465696422,0.000590601101162053
1412.0677739815765,1412.0677739815765,1.0001468770044135,0.0005909866440558144
1412.074718670749,1412.074718670749,1.000014388645125,0.0005910193407545388
1412.0816633599197,1412.0816633599197,1.0010908515617605,0.000590961131314353
1412.0886080488121,1412.0886080488121,0.9996023084596493,0.000590575725551762
1412.0955527377043,1412.0955527377043,1.0006835774237786,0.0005907800143532884
1412.1024974263169,1412.1024974263169,1.000236259145384,0.0005907745698485402
1412.1094421149305,1412.1094421149305,1.000050925537097,0.0005908309329824186
1412.1163868033564,1412.1163868033564,0.9997856353837229,0.0005907071996263935
1412.1233314917831,1412.1233314917831,0.9998271363450497,0.0005905768052625146
1412.13027617993,1412.13027617993,0.9994609594340265,0.0005905512038545766
1412.1372208679843,1412.1372208679843,1.0000217343656004,0.0005906038367781778
1412.1441655560382,1412.1441655560382,1.0002253288990022,0.0005905589996539274
1412.1511102438126,1412.1511102438126,1.0000134996583232,0.0005906134265596589
1412.1580549315877,1412.1580549315877,1.0000179237233904,0.0005906330945171305
1412.1649996191757,1412.1649996191757,1.000182167187565,0.0005906434150150053
1412.171944306578,1412.171944306578,0.9999519134545111,0.0005906868556624004
1412.1788889937936,1412.1788889937936,1.0002545381595405,0.000590568359229331
1412.1858336810096,1412.1858336810096,1.0001800406410246,0.0005908860555993406
1412.1927783682252,1412.1927783682252,0.9991575155867795,0.0005906543430927885
1412.1997230552547,1412.1997230552547,1.0000259391354749,0.0005907983036362943
1412.2066677420985,1412.2066677420985,1.0008200822448192,0.000590919224922962
1412.213612428848,1412.213612428848,0.9992873958952966,0.0005906857412160992
1412.2205571155055,1412.2205571155055,1.0004912818894116,0.0005907116000587719
1412.2275018019761,1412.2275018019761,1.0003666242300358,0.0005906527982521418
1412.2344464883538,1412.2344464883538,0.9999643926342111,0.0005906246848479556
1412.2413911746385,1412.2413911746385,1.0005911185116005,0.000590656628288366
1412.248335860736,1412.248335860736,0.9999085033585281,0.0005904906435569878
1412.2561139090215,1412.2561139090215,0.9991601717727946,0.0005902351647744647
1412.2647253194923,1412.2647253194923,1.0006005018985367,0.0005901796841571614
1412.2747256668483,1412.2747256668483,0.9994302646659999,0.0005901820821781239
1412.2861149510886,1412.2861149510886,1.0005342173535734,0.0005901598626779267
1412.294170786116,1412.294170786116,1.0001299059555013,0.0005901938590480558
1412.3011154712835,1412.3011154712835,0.9998120725709352,0.0005902219238234777
1412.3080601564502,1412.3080601564502,1.0009009122215473,0.0005904617747660627
1412.3150048413377,1412.3150048413377,0.9996586293562825,0.0005901936488825026
1412.3219495262254,1412.3219495262254,1.0000272809442134,0.0005903856374346097
1412.3288942109264,1412.3288942109264,0.9993012483095809,0.0005899520523912469
1412.335838895535,1412.335838895535,1.0001904968256692,0.0005903425932746195
1412.3427835799562,1412.3427835799562,0.9994493979931862,0.0005900981977268627
1412.349728264286,1412.349728264286,0.9998747744068135,0.0005900125435200131
1412.3566729486138,1412.3566729486138,1.0008018883944434,0.0005902531587100594
1412.3636176327568,1412.3636176327568,0.9999928085310605,0.0005900988925839298
1412.3705623167127,1412.3705623167127,1.0000586152210793,0.0005902810004551353
1412.3775070005756,1412.3775070005756,0.9996585489223653,0.000590202473421587
1412.384451684439,1412.384451684439,1.000230471899885,0.0005902815568479367
1412.391396368022,1412.391396368022,1.0004472785532286,0.0005902585659844256
1412.3983410516066,1412.3983410516066,0.9998712944243217,0.0005904036030278964
1412.4052857349104,1412.4052857349104,1.0001965437299467,0.0005902201174913946
1412.412230418308,1412.412230418308,0.9997646984306094,0.0005901390734226618
1412.419175101426,1412.419175101426,0.9994429204844065,0.0005899226667779092
1412.4261197844505,1412.4261197844505,0.9997768994024891,0.0005900815988993599
1412.4330644673828,1412.4330644673828,0.9992136986574891,0.0005900676717226841
1412.440009150221,1412.440009150221,1.000818085301647,0.000590309866270419
1412.4469538327808,1412.4469538327808,0.9998064525573447,0.0005898026283342758
1412.4538985153395,1412.4538985153395,0.9999935970005215,0.000589852737042267
1412.460843197899,1412.460843197899,1.000632439038029,0.0005899562885075028
1412.4677878803648,1412.4677878803648,1.0007513404411703,0.0005898837253302844
1412.4747325625517,1412.4747325625517,0.999771226637938,0.0005897364099539759
1412.4816772446452,1412.4816772446452,0.9997962228915945,0.0005895129668125091
1412.488621926552,1412.488621926552,0.9999861981833906,0.0005899725272164543
1412.495566608553,1412.495566608553,0.9998552000281855,0.0005901910938366139
1412.5025112902736,1412.5025112902736,1.0003368523036702,0.0005900883675167138
1412.5094559719023,1412.5094559719023,1.0000984590058557,0.0005902308509537822
1412.5164006533435,1412.5164006533435,0.9999284148533611,0.000590168859758806
1412.523345334785,1412.523345334785,0.9990518941725762,0.0005902588382311897
1412.5302900160407,1412.5302900160407,1.0011015265130927,0.0005906513964975639
1412.5372346972024,1412.5372346972024,0.9994057403457484,0.0005902411537996063
1412.5441793782718,1412.5441793782718,0.9996351634739676,0.0005903334055553878
1412.5511240592473,1412.5511240592473,0.9995497478763339,0.0005902171781354826
1412.5580687400375,1412.5580687400375,0.9997872012749436,0.0005904082509962499
1412.565013420734,1412.565013420734,1.0003516083542177,0.0005902819221497231
1412.5719581012445,1412.5719581012445,1.0012079277930552,0.000590408664889132
1412.5789027818478,1412.5789027818478,0.9996869726677989,0.0005902078687019603
1412.5858474620786,1412.5858474620786,0.9996385609298019,0.0005902422482471402
1412.59279214231,1412.59279214231,0.9998294304427862,0.0005902757458367141
1412.5997368225403,1412.5997368225403,1.0001975592356784,0.0005903274631154462
1412.6066815024924,1412.6066815024924,0.9996939260197518,0.0005903279571184697
1412.61362618235,1412.61362618235,1.0008605672794622,0.0005905969840293603
1412.620570862116,1412.620570862116,0.9993779512625677,0.0005902559555542612
1412.6275155417875,1412.6275155417875,1.000132044833306,0.0005901645397476661
1412.634460221367,1412.634460221367,1.0003708080703482,0.0005905442414569964
1412.6414049007597,1412.6414049007597,0.9998163406676314,0.0005905752240216379
1412.6483495800592,1412.6483495800592,1.0009306017510866,0.0005911481947743478
1412.655294259266,1412.655294259266,1.001491639352483,0.0005912000038270783
1412.6622389383788,1412.6622389383788,1.0023221448269373,0.0005912539568357889
1412.6691836173063,1412.6691836173063,0.9992221814389268,0.0005907948584050937
1412.6761282961397,1412.6761282961397,0.9955119066718933,0.000591442683929655
1412.683072974881,1412.683072974881,0.9971368776319174,0.0005935826982533634
1412.690017653528,1412.690017653528,0.9969226524747598,0.0005955937564253485
1412.69696233199,1412.69696233199,0.9941951260413606,0.0005947342599633468
1412.7039070104513,1412.7039070104513,0.9923730190211609,0.0005929921474153142
