time,time,flux,flux_err
1354.1150776334403,1354.1150776334403,30895.588,21.695581
1354.1164665392184,1354.1164665392184,30887.697,21.679901
1354.1192443503073,1354.1192443503073,30865.17,21.663294
1354.1206332556199,1354.1206332556199,30816.469,21.671993
1354.1220221613976,1354.1220221613976,30873.287,21.688307
1354.1234110667094,1354.1234110667094,30892.992,21.688406
1354.1247999720213,1354.1247999720213,30876.967,21.681812
1354.1261888777994,1354.1261888777994,30885.984,21.684774
1354.1275777831122,1354.1275777831122,30850.479,21.674137
1354.1289666888897,1354.1289666888897,30935.002,21.701996
1354.1303555942018,1354.1303555942018,30885.916,21.68008
1354.1317444995134,1354.1317444995134,30883.518,21.676228
1354.1331334052911,1354.1331334052911,30898.014,21.686867
1354.1345223106036,1354.1345223106036,30845.979,21.668621
1354.1359112159157,1354.1359112159157,30880.879,21.686426
1354.1373001212273,1354.1373001212273,30881.44,21.683012
1354.13868902654,1354.13868902654,30909.88,21.690733
1354.1400779323176,1354.1400779323176,30876.791,21.680307
1354.14146683763,1354.14146683763,30889.928,21.681849
1354.1428557429422,1354.1428557429422,30900.342,21.690523
1354.1442446482533,1354.1442446482533,30901.533,21.669554
1354.1456335535659,1354.1456335535659,30903.436,21.692057
1354.1470224588784,1354.1470224588784,30919.7,21.691643
1354.1484113641905,1354.1484113641905,30898.318,21.681345
1354.1498002695023,1354.1498002695023,30878.4,21.682026
1354.1511891748141,1354.1511891748141,30848.19,21.673042
1354.1525780801267,1354.1525780801267,30903.277,21.68739
1354.1539669854394,1354.1539669854394,30903.123,21.686419
1354.1553558907508,1354.1553558907508,30899.768,21.685263
1354.1567447960624,1354.1567447960624,30840.314,21.66904
1354.158133701375,1354.158133701375,30876.42,21.678902
1354.1595226066877,1354.1595226066877,30911.0,21.69022
1354.1609115119995,1354.1609115119995,30869.947,21.675611
1354.1623004173107,1354.1623004173107,30843.523,21.672989
1354.1636893221576,1354.1636893221576,30912.934,21.688478
1354.1650782274703,1354.1650782274703,30919.025,21.69881
1354.1664671327821,1354.1664671327821,30868.639,21.67276
1354.1678560380942,1354.1678560380942,30863.898,21.676918
1354.1692449429402,1354.1692449429402,30891.36,21.678663
1354.170633848253,1354.170633848253,30917.057,21.696487
1354.1720227535657,1354.1720227535657,30903.846,21.692444
1354.1734116584112,1354.1734116584112,30891.9,21.679697
1354.174800563723,1354.174800563723,30901.527,21.690405
1354.1761894690358,1354.1761894690358,30910.148,21.683508
1354.1775783738817,1354.1775783738817,30882.826,21.682026
1354.1789672791942,1354.1789672791942,30909.05,21.685223
1354.1803561840406,1354.1803561840406,30930.932,21.691978
1354.1817450893527,1354.1817450893527,30872.75,21.683325
1354.1831339941996,1354.1831339941996,30898.475,21.678986
1354.1845228995112,1354.1845228995112,30895.215,21.68005
1354.1859118043583,1354.1859118043583,30862.666,21.677715
1354.1873007096701,1354.1873007096701,30899.113,21.682215
1354.1886896145156,1354.1886896145156,30893.459,21.682562
1354.1900785193627,1354.1900785193627,30891.123,21.683481
1354.1914674246755,1354.1914674246755,30860.834,21.676615
1354.1928563295214,1354.1928563295214,30916.219,21.689709
1354.1942452348335,1354.1942452348335,30890.52,21.682907
1354.1956341396797,1354.1956341396797,30877.254,21.677273
1354.1970230445268,1354.1970230445268,30865.434,21.67954
1354.1984119493736,1354.1984119493736,30838.75,21.666912
1354.1998008546848,1354.1998008546848,30908.176,21.690805
1354.201189759531,1354.201189759531,30898.947,21.682203
1354.202578664378,1354.202578664378,30896.717,21.681671
1354.203967569225,1354.203967569225,30901.213,21.692146
1354.2053564740709,1354.2053564740709,30869.32,21.672924
1354.2067453793823,1354.2067453793823,30876.146,21.678473
1354.2081342842293,1354.2081342842293,30857.537,21.676289
1354.2095231890762,1354.2095231890762,30884.984,21.68334
1354.2109120939222,1354.2109120939222,30897.715,21.68641
1354.2123009987686,1354.2123009987686,30872.086,21.679611
1354.213689903615,1354.213689903615,30843.656,21.672127
1354.2150788084618,1354.2150788084618,30908.197,21.685825
1354.2164677133087,1354.2164677133087,30937.992,21.701311
1354.2178566181542,1354.2178566181542,30899.562,21.681915
1354.2192455230006,1354.2192455230006,30873.984,21.675524
1354.2206344278475,1354.2206344278475,30875.91,21.68077
1354.2220233326937,1354.2220233326937,30941.299,21.701607
1354.2234122375407,1354.2234122375407,30917.416,21.691181
1354.224801141921,1354.224801141921,30904.361,21.685663
1354.2261900467674,1354.2261900467674,30885.363,21.681503
1354.2275789516143,1354.2275789516143,30904.777,21.692673
1354.2289678564607,1354.2289678564607,30911.486,21.68563
1354.2303567613067,1354.2303567613067,30898.998,21.689304
1354.231745666153,1354.231745666153,30897.717,21.679296
1354.2331345705336,1354.2331345705336,30900.834,21.690315
1354.2345234753807,1354.2345234753807,30900.723,21.690193
1354.2359123802275,1354.2359123802275,30917.277,21.687859
1354.237301284608,1354.237301284608,30865.205,21.67536
1354.2386901894542,1354.2386901894542,30903.035,21.68753
1354.2400790943007,1354.2400790943007,30876.89,21.675238
1354.2414679986819,1354.2414679986819,30883.791,21.683035
1354.2428569035287,1354.2428569035287,30886.955,21.681522
1354.2442458083742,1354.2442458083742,30922.943,21.694567
1354.245634712755,1354.245634712755,30891.992,21.683962
1354.2470236176018,1354.2470236176018,30924.27,21.693855
1354.248412521983,1354.248412521983,30899.582,21.69069
1354.2498014268294,1354.2498014268294,30886.537,21.67894
1354.2511903312093,1354.2511903312093,30911.705,21.694744
1354.2525792360561,1354.2525792360561,30874.887,21.682497
1354.2539681404373,1354.2539681404373,30886.87,21.675434
1354.255357044818,1354.255357044818,30913.54,21.686657
1354.256745949664,1354.256745949664,30884.168,21.68886
1354.2581348540448,1354.2581348540448,30896.996,21.67999
1354.2595237588916,1354.2595237588916,30851.525,21.66659
1354.2609126632728,1354.2609126632728,30898.309,21.682856
1354.2623015676527,1354.2623015676527,30867.094,21.67322
1354.263690472499,1354.263690472499,30888.795,21.682087
1354.2650793768803,1354.2650793768803,30900.473,21.687252
1354.266468281261,1354.266468281261,30904.03,21.681976
1354.2678571856422,1354.2678571856422,30924.256,21.68594
1354.2692460904884,1354.2692460904884,30906.662,21.686316
1354.270634994869,1354.270634994869,30895.656,21.683092
1354.2720238992501,1354.2720238992501,30863.432,21.67896
1354.273412803631,1354.273412803631,30905.41,21.691967
1354.2748017080116,1354.2748017080116,30894.771,21.681494
1354.276190612392,1354.276190612392,30886.318,21.679352
1354.2775795172383,1354.2775795172383,30908.912,21.68949
1354.2789684216195,1354.2789684216195,30899.76,21.688023
1354.2803573260007,1354.2803573260007,30898.861,21.687479
1354.2817462303815,1354.2817462303815,30889.83,21.680494
1354.2831351347618,1354.2831351347618,30921.38,21.686123
1354.2845240391425,1354.2845240391425,30863.586,21.67913
1354.2859129435237,1354.2859129435237,30877.459,21.677956
1354.2873018479045,1354.2873018479045,30952.451,21.697714
1354.2886907522843,1354.2886907522843,30888.154,21.684986
1354.2900796566655,1354.2900796566655,30900.924,21.689459
1354.2914685610467,1354.2914685610467,30895.52,21.683872
1354.2928574649623,1354.2928574649623,30926.83,21.695953
1354.294246369343,1354.294246369343,30899.604,21.682755
1354.2956352737228,1354.2956352737228,30887.188,21.6749
1354.297024178104,1354.297024178104,30882.602,21.679089
1354.2984130824852,1354.2984130824852,30935.102,21.70039
1354.2998019868653,1354.2998019868653,30869.984,21.676756
1354.3011908907802,1354.3011908907802,30909.96,21.68359
1354.3025797951614,1354.3025797951614,30894.926,21.6832
1354.3039686995426,1354.3039686995426,30930.314,21.691248
1354.305357603924,1354.305357603924,30882.926,21.680267
1354.3067465078384,1354.3067465078384,30888.668,21.68302
1354.3081354122187,1354.3081354122187,30878.691,21.675053
1354.3095243166,1354.3095243166,30903.588,21.682983
1354.310913220515,1354.310913220515,30918.764,21.698582
1354.3123021248962,1354.3123021248962,30899.18,21.68457
1354.313691029277,1354.313691029277,30912.94,21.691252
1354.3150799331918,1354.3150799331918,30907.16,21.684542
1354.3164688375732,1354.3164688375732,30904.545,21.684546
1354.3178577414878,1354.3178577414878,30909.02,21.68979
1354.3192466458686,1354.3192466458686,30928.451,21.687937
1354.3206355497834,1354.3206355497834,30910.967,21.696451
1354.322024454164,1354.322024454164,30931.37,21.684896
1354.3234133580795,1354.3234133580795,30875.889,21.676502
1354.3248022624607,1354.3248022624607,30870.93,21.676872
1354.3261911663758,1354.3261911663758,30858.564,21.671242
1354.3275800707565,1354.3275800707565,30901.568,21.681868
1354.3289689746712,1354.3289689746712,30901.727,21.692749
1354.3303578785867,1354.3303578785867,30906.385,21.678848
1354.3317467829675,1354.3317467829675,30856.188,21.670324
1354.3331356868816,1354.3331356868816,30932.598,21.691547
1354.3345245907972,1354.3345245907972,30891.832,21.684774
1354.3359134951786,1354.3359134951786,30906.47,21.681519
1354.3373023990944,1354.3373023990944,30883.688,21.68279
1354.338691303009,1354.338691303009,30942.762,21.696564
1354.3400802073888,1354.3400802073888,30903.615,21.677464
1354.3414691113046,1354.3414691113046,30931.06,21.692223
1354.3428580152204,1354.3428580152204,30878.195,21.682377
1354.3442469191345,1354.3442469191345,30904.201,21.682993
1354.3456358230492,1354.3456358230492,30905.418,21.691156
1354.3470247274306,1354.3470247274306,30893.7,21.682095
1354.3484136313464,1354.3484136313464,30925.188,21.689585
1354.349802535262,1354.349802535262,30904.03,21.685545
1354.351191439176,1354.351191439176,30910.08,21.686363
1354.352580343091,1354.352580343091,30881.281,21.677515
1354.3539692470067,1354.3539692470067,30882.404,21.678516
1354.3553581509213,1354.3553581509213,30884.984,21.686245
1354.3567470548364,1354.3567470548364,30892.78,21.680353
1354.3581359587513,1354.3581359587513,30904.127,21.686642
1354.359524862667,1354.359524862667,30901.39,21.687153
1354.3609137665826,1354.3609137665826,30910.59,21.685137
1354.3623026704975,1354.3623026704975,30904.604,21.681545
1354.3636915744123,1354.3636915744123,30861.008,21.676998
1354.3650804783274,1354.3650804783274,30869.645,21.672682
1354.366469382242,1354.366469382242,30866.32,21.6712
1354.3678582861578,1354.3678582861578,30871.68,21.68133
1354.3692471900736,1354.3692471900736,30885.527,21.679956
1354.3706360939882,1354.3706360939882,30896.785,21.681412
1354.3720249974376,1354.3720249974376,30899.484,21.684286
1354.3734139013525,1354.3734139013525,30926.367,21.691166
1354.3748028052682,1354.3748028052682,30832.479,21.661638
1354.3761917091829,1354.3761917091829,30860.096,21.674887
1354.377580613097,1354.377580613097,30871.215,21.676672
1354.3789695165472,1354.3789695165472,30848.455,21.668753
1354.380358420463,1354.380358420463,30892.781,21.669212
1354.3817473243785,1354.3817473243785,30874.758,21.68137
1354.3831362278277,1354.3831362278277,30907.875,21.689455
1354.384525131742,1354.384525131742,30871.664,21.67356
1354.3859140356576,1354.3859140356576,30907.195,21.68488
1354.3873029391075,1354.3873029391075,30886.8,21.675331
1354.3886918430217,1354.3886918430217,30900.35,21.680132
1354.3900807469367,1354.3900807469367,30900.07,21.688473
1354.3914696503866,1354.3914696503866,30894.889,21.679667
1354.3928585543022,1354.3928585543022,30885.852,21.68142
1354.394247457752,1354.394247457752,30894.76,21.67867
1354.3956363616662,1354.3956363616662,30949.418,21.704433
1354.3970252651156,1354.3970252651156,30868.379,21.66871
1354.3984141690312,1354.3984141690312,30931.969,21.692503
1354.3998030724806,1354.3998030724806,30892.59,21.679571
1354.4011919763952,1354.4011919763952,30892.592,21.679014
1354.4025808798447,1354.4025808798447,30896.33,21.680368
1354.4039697837602,1354.4039697837602,30901.73,21.680124
1354.40535868721,1354.40535868721,30904.248,21.688004
1354.4067475911252,1354.4067475911252,30881.896,21.68216
1354.4081364945741,1354.4081364945741,30889.496,21.674742
1354.4095253980236,1354.4095253980236,30896.225,21.6844
1354.4109143019386,1354.4109143019386,30873.96,21.674511
1354.4123032053885,1354.4123032053885,30881.78,21.682184
1354.4136921088384,1354.4136921088384,30896.914,21.677181
1354.4150810127533,1354.4150810127533,30893.938,21.676334
1354.4164699162025,1354.4164699162025,30868.006,21.678568
1354.4178588196519,1354.4178588196519,30872.932,21.674126
1354.4192477231018,1354.4192477231018,30875.502,21.673311
1354.4206366270168,1354.4206366270168,30952.857,21.691088
1354.4220255304654,1354.4220255304654,30862.434,21.677437
1354.4234144339152,1354.4234144339152,30854.8,21.664362
1354.4248033373651,1354.4248033373651,30904.799,21.691704
1354.426192240815,1354.426192240815,30919.723,21.68785
1354.4275811442644,1354.4275811442644,30903.133,21.68579
1354.4289700481786,1354.4289700481786,30858.273,21.67182
1354.4303589516285,1354.4303589516285,30877.93,21.681902
1354.4317478550784,1354.4317478550784,30920.93,21.688488
1354.4331367585269,1354.4331367585269,30908.117,21.685398
1354.4345256619763,1354.4345256619763,30881.463,21.67735
1354.4359145654262,1354.4359145654262,30893.629,21.6807
1354.437303468876,1354.437303468876,30891.488,21.681133
1354.438692372326,1354.438692372326,30874.492,21.676216
1354.4400812757744,1354.4400812757744,30889.828,21.6845
1354.4414701792239,1354.4414701792239,30947.117,21.696955
1354.4428590826737,1354.4428590826737,30908.928,21.681747
1354.4442479861232,1354.4442479861232,30912.627,21.686316
1354.4456368895724,1354.4456368895724,30888.469,21.67443
1354.4470257930216,1354.4470257930216,30882.805,21.67685
1354.4484146960058,1354.4484146960058,30885.191,21.675882
1354.4498035994557,1354.4498035994557,30893.076,21.685383
1354.451192502905,1354.451192502905,30904.516,21.680168
1354.4525814063545,1354.4525814063545,30897.99,21.680525
1354.4539703098035,1354.4539703098035,30883.07,21.679014
1354.455359213253,1354.455359213253,30888.299,21.681389
1354.4567481162371,1354.4567481162371,30896.531,21.68519
1354.458137019687,1354.458137019687,30893.217,21.679829
1354.4595259231364,1354.4595259231364,30888.986,21.688723
1354.4609148265856,1354.4609148265856,30882.234,21.673265
1354.4623037295692,1354.4623037295692,30902.088,21.679874
1354.463692633019,1354.463692633019,30869.19,21.670038
1354.4650815364685,1354.4650815364685,30868.047,21.672745
1354.466470439917,1354.466470439917,30893.865,21.680723
1354.4678593429012,1354.4678593429012,30891.855,21.68536
1354.469248246351,1354.469248246351,30899.182,21.681324
1354.4706371493353,1354.4706371493353,30900.828,21.685673
1354.4720260527847,1354.4720260527847,30888.773,21.668983
1354.4734149562332,1354.4734149562332,30880.494,21.68529
1354.4748038592174,1354.4748038592174,30851.553,21.668705
1354.4761927626673,1354.4761927626673,30884.338,21.677444
1354.4775816656504,1354.4775816656504,30872.988,21.678396
1354.4789705690996,1354.4789705690996,30874.297,21.669525
1354.4803594720838,1354.4803594720838,30883.842,21.67696
1354.481748375534,1354.481748375534,30912.705,21.685953
1354.4831372785184,1354.4831372785184,30892.105,21.677975
1354.4845261819669,1354.4845261819669,30877.027,21.669867
1354.4859150849502,1354.4859150849502,30881.627,21.67597
1354.4873039884003,1354.4873039884003,30883.29,21.673769
1354.4886928913838,1354.4886928913838,30878.67,21.676605
1354.4900817948333,1354.4900817948333,30891.947,21.674963
1354.4914706978166,1354.4914706978166,30881.795,21.679184
1354.492859600801,1354.492859600801,30871.375,21.67176
1354.4942485042511,1354.4942485042511,30928.938,21.683834
1354.4956374072344,1354.4956374072344,30900.742,21.681814
1354.4970263102182,1354.4970263102182,30858.412,21.671757
1354.4984152136674,1354.4984152136674,30903.07,21.678848
1354.499804116651,1354.499804116651,30921.146,21.697
1354.5011930196351,1354.5011930196351,30945.633,21.689741
1354.5025819226196,1354.5025819226196,30892.014,21.674212
1354.5039708260688,1354.5039708260688,30922.682,21.685102
1354.5053597290525,1354.5053597290525,30910.082,21.6912
1354.5067486320359,1354.5067486320359,30860.506,21.678934
1354.5081375350203,1354.5081375350203,30906.387,21.678505
1354.5095264380038,1354.5095264380038,30893.234,21.68481
1354.5109153414523,1354.5109153414523,30930.629,21.692062
1354.5123042444366,1354.5123042444366,30886.46,21.676945
1354.513693147421,1354.513693147421,30883.062,21.678858
1354.5150820504055,1354.5150820504055,30887.781,21.67503
1354.5164709533888,1354.5164709533888,30875.97,21.679441
1354.5178598563716,1354.5178598563716,30883.35,21.674223
1354.519248759356,1354.519248759356,30891.816,21.682234
1354.5206376623405,1354.5206376623405,30922.033,21.691174
1354.5220265653234,1354.5220265653234,30894.787,21.677057
1354.523415468307,1354.523415468307,30878.16,21.678604
1354.5248043712913,1354.5248043712913,30894.5,21.680082
1354.5261932742756,1354.5261932742756,30888.219,21.671549
1354.5275821772598,1354.5275821772598,30879.879,21.67388
1354.5289710802426,1354.5289710802426,30910.738,21.683104
1354.5303599832264,1354.5303599832264,30850.385,21.66532
1354.5317488862106,1354.5317488862106,30887.152,21.678968
1354.533137789194,1354.533137789194,30911.12,21.671278
1354.5345266921777,1354.5345266921777,30852.217,21.669964
1354.5359155951614,1354.5359155951614,30865.809,21.672709
1354.5373044981457,1354.5373044981457,30916.268,21.693436
1354.5386934011299,1354.5386934011299,30859.943,21.670956
1354.5400823041136,1354.5400823041136,30891.037,21.681892
1354.5414712066313,1354.5414712066313,30900.688,21.684391
1354.542860109615,1354.542860109615,30891.686,21.677223
1354.5442490125986,1354.5442490125986,30881.518,21.677433
1354.545637915583,1354.545637915583,30901.623,21.680822
1354.5470268181016,1354.5470268181016,30907.777,21.685331
1354.548415721085,1354.548415721085,30910.975,21.681784
1354.5498046240687,1354.5498046240687,30889.88,21.67353
1354.5511935270524,1354.5511935270524,30909.838,21.688559
1354.552582429571,1354.552582429571,30849.918,21.662035
1354.5539713325543,1354.5539713325543,30878.95,21.679504
1354.5553602355374,1354.5553602355374,30888.602,21.678148
1354.5567491380561,1354.5567491380561,30907.303,21.67931
1354.5581380410404,1354.5581380410404,30885.996,21.676554
1354.5595269440246,1354.5595269440246,30928.338,21.687057
1354.5609158465427,1354.5609158465427,30921.89,21.686457
1354.5623047495255,1354.5623047495255,30864.312,21.667423
1354.563693652044,1354.563693652044,30861.385,21.666199
1354.5650825550283,1354.5650825550283,30824.725,21.66294
1354.5664714580112,1354.5664714580112,30892.488,21.67319
1354.5678603605293,1354.5678603605293,30902.008,21.681679
1354.5692492635135,1354.5692492635135,30886.984,21.672989
1354.570638166032,1354.570638166032,30897.373,21.682352
1354.5720270690163,1354.5720270690163,30902.402,21.676754
1354.5734159715334,1354.5734159715334,30926.646,21.68508
1354.5748048745172,1354.5748048745172,30915.756,21.685007
1354.5761937770358,1354.5761937770358,30902.262,21.68016
1354.5775826795539,1354.5775826795539,30897.492,21.677435
1354.5789715825372,1354.5789715825372,30864.312,21.673206
1354.5803604850553,1354.5803604850553,30876.078,21.678282
1354.5817493880395,1354.5817493880395,30898.43,21.674389
1354.583138290558,1354.583138290558,30943.229,21.69888
1354.5845271930762,1354.5845271930762,30881.24,21.67462
1354.5859160960597,1354.5859160960597,30878.674,21.667664
1354.5873049985776,1354.5873049985776,30890.846,21.680593
1354.5886939010957,1354.5886939010957,30876.873,21.67243
1354.5900828040799,1354.5900828040799,30886.148,21.675745
1354.5914717065984,1354.5914717065984,30903.385,21.683146
1354.5928606091165,1354.5928606091165,30874.957,21.671755
1354.5942495120999,1354.5942495120999,30881.203,21.66586
1354.595638414618,1354.595638414618,30901.562,21.689592
1354.5970273171365,1354.5970273171365,30927.822,21.68766
1354.5984162196546,1354.5984162196546,30885.984,21.67324
1354.5998051221718,1354.5998051221718,30897.328,21.688282
