time,time,flux,flux_err
1325.2994969935191,1325.2994969935191,1.000162598537742,0.00029727139776898837
1325.3078302541273,1325.3078302541273,0.9999668395979068,0.00029731506156444547
1325.3161635149984,1325.3161635149984,0.9996096455886958,0.0002972863844430808
1325.3238023376985,1325.3238023376985,1.000019335656854,0.0002714495440440205
1325.3307467221625,1325.3307467221625,0.999964007082513,0.00027145699344856706
1325.3376911068133,1325.3376911068133,1.0002599429728014,0.0002715519340928584
1325.3446354916387,1325.3446354916387,1.0000227437037863,0.00027154529894597457
1325.35157987665,1325.35157987665,1.000198481666595,0.00027160422422480815
1325.3585242618417,1325.3585242618417,0.9998805984592604,0.00027162945507689534
1325.365468647191,1325.365468647191,0.9998525094437405,0.0002717357748849378
1325.3724130327319,1325.3724130327319,1.000038589707994,0.00027179075673687634
1325.379357418442,1325.379357418442,1.0000802699303193,0.00027186514616382035
1325.3863018043207,1325.3863018043207,1.00011033564286,0.0002719377121901428
1325.393246190368,1325.393246190368,0.999867906634074,0.00027199555078481817
1325.4001905765842,1325.4001905765842,0.9999728665170432,0.00027207055831937306
1325.4071349629637,1325.4071349629637,1.0003177674312167,0.0002721896022087247
1325.4140793495176,1325.4140793495176,0.9998580876858874,0.0002721916857237761
1325.4210237362345,1325.4210237362345,0.9997705449502062,0.00027225840193581806
1325.4279681231026,1325.4279681231026,0.9996108036453849,0.00027228667285008115
1325.4349125101455,1325.4349125101455,1.0003492866420178,0.00027244344712304316
1325.44185689734,1325.44185689734,0.9998291732823075,0.00027242999164619585
1325.448801284697,1325.448801284697,1.0003806273662448,0.0002725615288007075
1325.4557456722116,1325.4557456722116,0.9999748789330523,0.0002725867442668601
1325.4626900598769,1325.4626900598769,0.9998355547888996,0.0002726257617510257
1325.4696344477,1325.4696344477,0.9998641362738097,0.00027269705913018666
1325.47657883568,1325.47657883568,1.0002173690956297,0.0002728045526218222
1325.4835232237936,1325.4835232237936,1.0001297560169566,0.000272843006205281
1325.4904676120764,1325.4904676120764,0.9998290662576167,0.00027289644226504773
1325.4974120004931,1325.4974120004931,1.000106542231802,0.00027302124260244283
1325.504356389067,1325.504356389067,1.0003713856951704,0.00027315441976746163
1325.5113007777866,1325.5113007777866,1.000001310152059,0.0002731771964929523
1325.5182451666392,1325.5182451666392,0.9995735671588524,0.0002731902115600481
1325.5251895556496,1325.5251895556496,1.0000028694187777,0.00027331426252197983
1325.5321339447878,1325.5321339447878,1.0000014382335618,0.0002733996534049717
1325.5390783340658,1325.5390783340658,0.9998894025815147,0.0002734697784422591
1325.5460227234896,1325.5460227234896,0.999633282113656,0.0002735233058113678
1325.5529671130525,1325.5529671130525,1.000258338271531,0.0002736679466360916
1325.55991150275,1325.55991150275,0.9999984738480435,0.00027372649198199357
1325.566855892575,1325.566855892575,1.000500077548669,0.000273865046793867
1325.5738002825342,1325.5738002825342,1.0001184417835458,0.00027388914887499125
1325.580744672639,1325.580744672639,1.0001227805229924,0.00027394842646441515
1325.5876890628538,1325.5876890628538,0.9996306781001734,0.0002739581147951468
1325.5946334532086,1325.5946334532086,0.9999188843049087,0.0002740426760055526
1325.6015778436974,1325.6015778436974,0.9995362117491962,0.0002740649174777922
1325.608522234297,1325.608522234297,0.9998946862360233,0.0002741347237003118
1325.6154666250304,1325.6154666250304,1.0003622198249689,0.0002742109957964488
1325.6224110158914,1325.6224110158914,1.0001257704986626,0.00027423693890493955
1325.629355406875,1325.629355406875,1.0000528886274247,0.0002742190888338837
1325.636299797975,1325.636299797975,0.9999158776158186,0.00027422036444329123
1325.6432441892027,1325.6432441892027,1.000037070165714,0.0002742617764166952
1325.6501885805415,1325.6501885805415,0.9999382916851026,0.0002742694194143783
1325.6571329720023,1325.6571329720023,1.0004046066350791,0.00027432597979768
1325.6640773635795,1325.6640773635795,0.9993824572585399,0.0002742353536198601
1325.6710217552788,1325.6710217552788,1.0001483137906175,0.00027432374078912366
1325.6779661470891,1325.6779661470891,1.0002681018775235,0.00027437379651428423
1325.6849105389983,1325.6849105389983,0.9999451312678364,0.0002743469532316471
1325.6918549310353,1325.6918549310353,1.0001015402853501,0.00027438512314713104
1325.6987993231714,1325.6987993231714,0.9997817111889905,0.00027440054845898775
1325.7057437154358,1325.7057437154358,0.9999834902967027,0.0002744527270599815
1325.7126881077984,1325.7126881077984,0.9999719565334303,0.00027448940219215485
1325.7196325002665,1325.7196325002665,1.000012274596107,0.00027451499247691316
1325.726576892839,1325.726576892839,1.000214559186879,0.00027458154660109835
1325.7335212855278,1325.7335212855278,0.9999295746905685,0.0002745737030230474
1325.7404656783103,1325.7404656783103,1.0000061189500586,0.00027464566777242976
1325.7474100711968,1325.7474100711968,1.0000476332731059,0.0002746604604228548
1325.7543544641887,1325.7543544641887,0.9996195100509467,0.0002746837910212771
1325.7612988572853,1325.7612988572853,0.9998061581188329,0.00027476881549125915
1325.7682432504691,1325.7682432504691,1.0004681490686607,0.0002748892164856699
1325.7751876437574,1325.7751876437574,1.0003376354285791,0.0002749216845964326
1325.7821320371452,1325.7821320371452,0.9995951605167495,0.00027489270081152757
1325.7890764306376,1325.7890764306376,0.9998294022477762,0.0002749654659783687
1325.796020824217,1325.796020824217,0.9997804575117077,0.00027501794420308
1325.8029652178955,1325.8029652178955,1.0004123988490767,0.00027510432671491475
1325.8099096116616,1325.8099096116616,0.9998917861273876,0.0002751041778714066
1325.8168540055262,1325.8168540055262,1.0004129446183803,0.00027519033634259253
1325.8237983994843,1325.8237983994843,1.0000307717180017,0.0002751738946463392
1325.8307427935292,1325.8307427935292,1.000081218064793,0.0002752109652364428
1325.8376871876735,1325.8376871876735,0.9999088410317887,0.0002752225773607386
1325.8446315818994,1325.8446315818994,0.9994428335967852,0.00027516053554744937
1325.8515759762176,1325.8515759762176,1.0011651119624063,0.0002753572639256362
1325.858520370607,1325.858520370607,1.0000142671154275,0.00027521084234642483
1325.8654647650942,1325.8654647650942,1.0000213749562854,0.00027519896631640416
1325.8724091596812,1325.8724091596812,0.9999986620910546,0.000275170009068223
1325.8793535543316,1325.8793535543316,0.9998017443443405,0.0002750913399623218
1325.8862979490636,1325.8862979490636,1.0000638835901274,0.0002750899906115892
1325.8932423438948,1325.8932423438948,1.000018919372617,0.0002750616280055597
1325.9001867388017,1325.9001867388017,0.9995441977806451,0.00027499015984980795
1325.9071311337898,1325.9071311337898,1.0000903589229453,0.0002750120164742071
1325.9140755288595,1325.9140755288595,1.000383618621131,0.00027502312308116375
1325.9210199240101,1325.9210199240101,1.0006112332571042,0.0002750312440945385
1325.927964319232,1325.927964319232,0.9997238313159746,0.00027494576512355963
1325.9349087145342,1325.9349087145342,0.999645382468249,0.00027490326417530474
1325.9418531099125,1325.9418531099125,1.0004980695231622,0.0002749905170571961
1325.9487975053664,1325.9487975053664,0.9994810615083223,0.0002748748769785559
1325.9557419009075,1325.9557419009075,0.9999373464386979,0.0002749097893635985
1325.9635196239972,1325.9635196239972,0.9999590448781295,0.00027490524917819965
1325.9710195713355,1325.9710195713355,0.9998771080692375,0.00027488237074347894
1325.9779639670983,1325.9779639670983,1.0000407187652507,0.00027492342730997326
1325.9849083629476,1325.9849083629476,1.000192146800288,0.0002749537800607508
1325.9918527588613,1325.9918527588613,0.9999449308028241,0.00027492757204525503
1325.9987971548333,1325.9987971548333,1.0002343708265724,0.0002749939716437286
1326.0057415508984,1326.0057415508984,1.000073617274429,0.0002750120205944135
1326.0126859470101,1326.0126859470101,1.00000622041727,0.00027507140144625856
1326.0196303431917,1326.0196303431917,1.0001912276616238,0.0002751245053171398
1326.0265747394549,1326.0265747394549,0.9996470649182587,0.0002751334242722647
1326.0335191357817,1326.0335191357817,1.0004081015352433,0.0002752108855229977
1326.0404635321663,1326.0404635321663,0.9994307627258088,0.00027512148186989503
1326.0474079286278,1326.0474079286278,0.9997995656562291,0.00027516921813559
1326.0543523251467,1326.0543523251467,0.9997845275108179,0.0002751664070964337
1326.0612967217298,1326.0612967217298,1.0003814126541546,0.00027524689682911416
1326.0682411183711,1326.0682411183711,1.0002749505696973,0.00027526878062919595
1326.0751855150877,1326.0751855150877,0.9995923693770438,0.00027519612299925944
1326.0821299118577,1326.0821299118577,1.0004399614458845,0.00027529702186057767
1326.089074308691,1326.089074308691,1.0003309732762287,0.0002753023783145537
1326.0960187055884,1326.0960187055884,0.9999250872818013,0.0002752763533347262
1326.1029631025444,1326.1029631025444,0.9993557408688998,0.0002752303868854936
1326.1099074995577,1326.1099074995577,1.0002910984977667,0.0002753440631224463
1326.1168518966356,1326.1168518966356,0.9998172827881942,0.0002752972445976871
1326.1237962937657,1326.1237962937657,0.9997183405336051,0.0002752684965401528
1326.1307406909548,1326.1307406909548,1.0004525444556918,0.00027534108346389375
1326.1376850882011,1326.1376850882011,1.000329173472392,0.0002753536030767919
1326.1446294855064,1326.1446294855064,0.9996324394446031,0.00027529213274173823
1326.1515738828691,1326.1515738828691,0.9998638308749742,0.00027530619789251987
1326.1585182802787,1326.1585182802787,0.9998707800297956,0.0002752808695435741
1326.1654626777527,1326.1654626777527,0.9998780519941354,0.0002752938170286315
1326.1724070752725,1326.1724070752725,1.000526181665088,0.00027535719926093355
1326.1793514728513,1326.1793514728513,0.9997894418534476,0.0002752644429185206
1326.1862958704821,1326.1862958704821,1.0000633390940084,0.00027528407093446196
1326.193240268165,1326.193240268165,1.0004096007030132,0.00027532469747594817
1326.2001846659011,1326.2001846659011,0.999711278454736,0.0002752884050057911
1326.2071290636889,1326.2071290636889,0.999865874147031,0.00027528722784959556
1326.2140734615298,1326.2140734615298,0.9999360722954567,0.000275266401535818
1326.2210178594164,1326.2210178594164,1.000034273513117,0.00027530989592936087
1326.2279622573615,1326.2279622573615,1.0000482364457395,0.00027528490261942976
1326.2349066553415,1326.2349066553415,1.0001952560723144,0.0002753258660948073
1326.2418510533737,1326.2418510533737,0.9998610375666438,0.0002752843745241746
1326.248795451459,1326.248795451459,0.9999795648895816,0.00027526750155475177
1326.25573984959,1326.25573984959,0.9999985458676723,0.00027529499337127655
1326.2626842477687,1326.2626842477687,0.9997374131515262,0.0002752534977435829
1326.2696286459989,1326.2696286459989,1.000131375228766,0.0002752571258611355
1326.2765730442698,1326.2765730442698,1.0001747434504344,0.0002752748638280937
1326.2835174425877,1326.2835174425877,0.999731096508752,0.0002752499177557443
1326.2904618409461,1326.2904618409461,1.000123203924129,0.00027528683468593893
1326.297406239351,1326.297406239351,0.9998393376167657,0.00027525436995786247
1326.3043506378085,1326.3043506378085,1.000223146629596,0.0002752930042258494
1326.3112950363068,1326.3112950363068,0.9999979258277746,0.00027528341479444817
1326.3182394348514,1326.3182394348514,0.999941153420427,0.0002752852582104604
1326.3251838334306,1326.3251838334306,1.0001768666747828,0.000275334630707508
1326.3321282320517,1326.3321282320517,0.9998266660218116,0.00027530144354537674
1326.3390726307184,1326.3390726307184,0.9997522570111211,0.0002753259811570174
1326.3465725813287,1326.3465725813287,0.9998433321683112,0.0002753281868694955
1326.3557391876866,1326.3557391876866,1.0000041246700637,0.0002753754379698224
1326.362683586499,1326.362683586499,0.9997457906018845,0.0002753598188494341
1326.3696279853407,1326.3696279853407,0.9998191176126463,0.00027538342440653225
1326.376572384223,1326.376572384223,1.0001502115029584,0.0002754423178936155
1326.3835167831576,1326.3835167831576,1.0000597029871492,0.00027545720595813716
1326.3904611821158,1326.3904611821158,1.000332866877939,0.0002754899888583613
1326.3974055811202,1326.3974055811202,1.0001338054095157,0.00027553356248496974
1326.4043499801655,1326.4043499801655,1.0004102567845714,0.00027553610186031505
1326.4112943792402,1326.4112943792402,0.9996835883413594,0.00027549926754360425
1326.4182387783494,1326.4182387783494,0.999855270780402,0.00027555961343356
1326.4251831775055,1326.4251831775055,0.9995125986253506,0.0002755292402066036
1326.432127576696,1326.432127576696,0.9999855284204612,0.00027560367163194924
1326.4390719759217,1326.4390719759217,1.0001688739654582,0.00027561839699380983
1326.4460163751826,1326.4460163751826,1.0000792278277515,0.00027565229601867006
1326.452960774478,1326.452960774478,0.9999994066382382,0.0002756539539517964
1326.4599051738085,1326.4599051738085,1.0002055261144418,0.0002757275789542965
1326.4668495731798,1326.4668495731798,0.9999870220092937,0.00027569292831381673
1326.4737939725742,1326.4737939725742,0.9998164068508363,0.0002756879399191653
1326.4807383720097,1326.4807383720097,1.0000804842875424,0.0002757638998517653
1326.4876827714738,1326.4876827714738,1.0004224290202455,0.00027576835726963957
1326.4946271709734,1326.4946271709734,0.9998525951228634,0.00027575280995246646
1326.5015715705074,1326.5015715705074,0.9996955464049165,0.00027573737730991803
1326.5085159700711,1326.5085159700711,0.9998620625201285,0.0002757834468144917
1326.5154603696692,1326.5154603696692,0.9996041829365747,0.00027575509572221794
1326.5224047692966,1326.5224047692966,1.000145679519706,0.00027584814115775685
1326.5293491689592,1326.5293491689592,1.0001285277532015,0.00027587511323311475
1326.536293568656,1326.536293568656,0.9998719887064288,0.00027587292880391033
1326.5432379683828,1326.5432379683828,1.0006145674308438,0.00027599018693069054
1326.5501823681266,1326.5501823681266,1.0001313097097722,0.0002759825868011448
1326.557126767905,1326.557126767905,1.0000127020184366,0.0002759946864952214
1326.5640711677188,1326.5640711677188,1.000034514255918,0.00027598127631399026
1326.5710155675556,1326.5710155675556,0.9997411085615848,0.00027597064748236054
1326.5779599674274,1326.5779599674274,0.9996850693302959,0.00027595031446664506
1326.584904367334,1326.584904367334,0.9998319407641428,0.0002759825490508727
1326.5918487672586,1326.5918487672586,1.000021750615057,0.0002760275706371225
1326.5987931672116,1326.5987931672116,1.00033548186363,0.0002760994831941384
1326.6057375672,1326.6057375672,0.9996809174403957,0.00027602042388025336
1326.6126819672177,1326.6126819672177,1.0003979116605897,0.0002761239159701053
1326.6196263672464,1326.6196263672464,1.0001489542851054,0.0002760986633327324
1326.6265707673106,1326.6265707673106,1.0001078272840722,0.0002761136168287151
1326.6335151674034,1326.6335151674034,0.999614420792575,0.0002760298673667612
1326.6404595675258,1326.6404595675258,0.9999916540859424,0.00027610268048980596
1326.6474039676593,1326.6474039676593,0.9999368408289755,0.0002760618508129796
1326.6543483678397,1326.6543483678397,0.9998255187991237,0.0002760415331598579
1326.661292768026,1326.661292768026,1.0005265536977936,0.0002761293941747589
1326.6682371682527,1326.6682371682527,0.9998682663941768,0.00027602740685410567
1326.6751815684972,1326.6751815684972,0.9997833723676811,0.00027600739275372943
1326.6821259687708,1326.6821259687708,1.0003079610401255,0.00027602975231334054
1326.6901814731168,1326.6901814731168,0.9998895661158583,0.0002759555827791942
1326.6974036494491,1326.6974036494491,0.9999795483656527,0.0002759231601045198
1326.7043480497925,1326.7043480497925,0.9998994384849131,0.00027587466568218966
1326.7118480022016,1326.7118480022016,0.9997327291258827,0.00027582568535790785
1326.71962573064,1326.71962573064,1.0002274366752577,0.0002758996913773832
1326.7265701310648,1326.7265701310648,0.9998240680913193,0.0002758004929790032
1326.733514531507,1326.733514531507,1.0002756193259712,0.0002758328421482915
1326.7404589319726,1326.7404589319726,1.0002777018134565,0.0002757940329775083
1326.7474033324613,1326.7474033324613,0.9995175022597111,0.0002757417787352614
1326.7543477329793,1326.7543477329793,1.0001686172176059,0.00027577314742816645
1326.761292133509,1326.761292133509,1.0003146117730035,0.00027577544623453687
1326.7682365340618,1326.7682365340618,0.9999051320577836,0.00027572611965337364
1326.7751809346378,1326.7751809346378,0.999855858290784,0.0002757146824300219
1326.7821253352377,1326.7821253352377,1.0000125477353747,0.00027574743921852685
1326.7890697358484,1326.7890697358484,0.9996639502918603,0.0002756929627581661
1326.796014136483,1326.796014136483,0.9999583280839875,0.0002757272627473897
1326.8029585371467,1326.8029585371467,1.000293502835069,0.00027580323923530147
1326.8099029378218,1326.8099029378218,0.9999407432178616,0.00027574916851914346
1326.8168473385138,1326.8168473385138,0.999846133825091,0.0002757349341156697
1326.8237917392416,1326.8237917392416,1.0001384911483826,0.0002757561311075758
1326.8307361399575,1326.8307361399575,1.000053701765896,0.0002757722373397138
1326.8376805407318,1326.8376805407318,1.0001274440461712,0.0002757674229891128
1326.8446249414997,1326.8446249414997,1.000062927919732,0.0002757391186373872
1326.8515693422912,1326.8515693422912,0.9999848729231264,0.0002757474129523697
1326.858513743106,1326.858513743106,1.0001340910743983,0.0002757368524582292
1326.865458143933,1326.865458143933,0.9995704466138327,0.00027563594742721056
1326.8724025447827,1326.8724025447827,1.0001592718919448,0.00027566052269658496
1326.879346945638,1326.879346945638,0.9999026457255402,0.00027560091808315445
1326.8862913465287,1326.8862913465287,0.9999507129178322,0.0002755456081413077
1326.8932357474246,1326.8932357474246,0.999826766381896,0.0002755031093152463
1326.9001801483446,1326.9001801483446,1.0000685881515132,0.00027543098976516686
1326.9071245492755,1326.9071245492755,0.9998959739368463,0.0002753545971321937
1326.9140689502303,1326.9140689502303,1.0000759955818173,0.0002753001626666483
1326.9210133511963,1326.9210133511963,1.0007227476544112,0.0002753160137208385
1326.92795775218,1326.92795775218,0.9997821877472004,0.0002751798231114699
1326.9349021531812,1326.9349021531812,0.9996420129634525,0.00027509816945163435
1326.9418465542053,1326.9418465542053,1.000188243172685,0.0002750853861833809
1326.9487909552356,1326.9487909552356,0.9998387302212949,0.0002750342656283206
1326.9557353562773,1326.9557353562773,1.0002438917155732,0.0002750070264550986
1326.962679757337,1326.962679757337,1.0001865364677556,0.0002749483820253749
1326.9696241584195,1326.9696241584195,0.9997470000019699,0.0002748687949630233
1326.9765685595073,1326.9765685595073,1.0002201614059432,0.00027490629983697534
1326.9835129606195,1326.9835129606195,0.9998284503911421,0.00027479671606072314
1326.9904573617368,1326.9904573617368,0.9998140162797602,0.0002747738921182466
1326.997401762878,1326.997401762878,0.9998556551476157,0.00027476547538435845
1327.0043461640244,1327.0043461640244,0.9999579655729814,0.0002747521259372454
1327.0112905651883,1327.0112905651883,0.9996404562642253,0.00027472124193459775
1327.018234966358,1327.018234966358,1.0004917433034193,0.000274772068004514
1327.0251793675689,1327.0251793675689,1.0001085831144583,0.0002747367866622677
1327.032123768768,1327.032123768768,1.0000746865630832,0.0002747493993351121
1327.0390681699898,1327.0390681699898,1.0001281470879024,0.00027473432212453267
1327.0460125712184,1327.0460125712184,0.9998494139912875,0.0002747050170390345
1327.0529569724638,1327.0529569724638,0.999933931572426,0.0002747121508284203
1327.0607347018745,1327.0607347018745,0.9998856292710359,0.0002747103067478095
