time,time,flux,flux_err
1468.2775381291312,1468.2775381291312,0.9997936983307334,0.00018656201492484446
1468.2844827328556,1468.2844827328556,0.9996516551445518,0.00018650131553956715
1468.2914273364865,1468.2914273364865,0.9998489591961015,0.00018653100389006498
1468.2983719400713,1468.2983719400713,1.000149372371474,0.0001865550322445547
1468.3053165434699,1468.3053165434699,0.9999987486756818,0.00018655809057300916
1468.3122611468684,1468.3122611468684,0.9999585632890046,0.00018651262540852855
1468.3192057502667,1468.3192057502667,1.00002391817054,0.00018654188125127774
1468.326150353665,1468.326150353665,1.0001128932882541,0.00018657641494524235
1468.3330949568306,1468.3330949568306,1.0001127621971349,0.00018657167715408358
1468.340039560043,1468.340039560043,1.0000945643663353,0.0001865171044756188
1468.3469841630683,1468.3469841630683,0.9999838519576075,0.00018652174958114258
1468.3539287660944,1468.3539287660944,0.9999905376046792,0.00018656725400302353
1468.360873369074,1468.360873369074,0.9999010262051147,0.00018650334108963584
1468.36781797196,1468.36781797196,1.000341337439266,0.00018651332304932578
1468.3747625747533,1468.3747625747533,0.9998934110028351,0.00018657232555029826
1468.3894851325135,1468.3894851325135,0.9998883752456788,0.00018651659409171312
1468.3983742237929,1468.3983742237929,1.0001337298261563,0.00018654100753657678
1468.4053188263067,1468.4053188263067,1.0000592896274823,0.00018651286780756328
1468.41226342882,1468.41226342882,0.9998177683116463,0.00018654204362613392
1468.4192080311473,1468.4192080311473,1.00018038693988,0.00018654988222599546
1468.4261526335217,1468.4261526335217,1.0000366787050783,0.00018655769011451318
1468.433097235756,1468.433097235756,1.0001504503279217,0.0001865546089033048
1468.440041837897,1468.440041837897,0.9994988231780013,0.00018648841199126687
1468.4469864399914,1468.4469864399914,1.0000094303012868,0.00018656863590492024
1468.4539310419927,1468.4539310419927,1.0001484651530528,0.00018659560134825433
1468.4608756439477,1468.4608756439477,1.0000003326240117,0.00018659951997625955
1468.4678202458558,1468.4678202458558,1.0002880509185714,0.00018652434144043206
1468.4747648476714,1468.4747648476714,0.9999949454130265,0.00018654162664326555
1468.481709449486,1468.481709449486,0.9997383198187931,0.00018649921692997774
1468.488654051115,1468.488654051115,1.0003065871212133,0.00018656187163341913
1468.495598652791,1468.495598652791,1.0000436150736634,0.00018654485970922804
1468.5025432543266,1468.5025432543266,1.0001181714218028,0.0001864983407297122
1468.5094878558157,1468.5094878558157,1.0000068063127148,0.00018655107738276255
1468.5164324572584,1468.5164324572584,0.9999453739560382,0.0001864887639563101
1468.5233770586078,1468.5233770586078,1.0001775955823504,0.00018652033714383826
1468.530321659864,1468.530321659864,0.9998396226233689,0.0001865245187573299
1468.5372662611203,1468.5372662611203,1.0001540114713727,0.00018652360799166856
1468.5442108621905,1468.5442108621905,1.000061392427297,0.00018652459730696122
1468.5511554632603,1468.5511554632603,0.9999072492123245,0.00018647951833128542
1468.5581000643308,1468.5581000643308,0.9997669053019946,0.00018657312999501076
1468.5650446652614,1468.5650446652614,0.9999077333235235,0.00018652012697920978
1468.571989266145,1468.571989266145,1.0000853263786975,0.0001865164038082761
1468.5789338669354,1468.5789338669354,0.999917715882189,0.00018657748444883226
1468.5858784676795,1468.5858784676795,1.0000480307853679,0.0001865427493873273
1468.5928230683305,1468.5928230683305,0.999770428374163,0.00018653594907846164
1468.5997676689353,1468.5997676689353,0.9999255956591423,0.0001865333572714582
1468.6067122694465,1468.6067122694465,1.0001508663658343,0.00018655965006887594
1468.613656869911,1468.613656869911,1.000190447418721,0.00018649728142737678
1468.6206014703291,1468.6206014703291,1.000026804854233,0.00018654963850243814
1468.627546070701,1468.627546070701,1.000115962406764,0.0001865595950287508
1468.6344906708866,1468.6344906708866,1.0000620717362365,0.0001865953983666262
1468.6414352710713,1468.6414352710713,0.9999279912759022,0.00018647250184010853
1468.6483798712568,1468.6483798712568,0.9998191529433569,0.00018658211129244444
1468.6553244712559,1468.6553244712559,0.9999372165216256,0.00018652880264572336
1468.6622690713018,1468.6622690713018,0.9999690787843182,0.00018649446299959084
1468.669213671208,1468.669213671208,1.0000515584275025,0.00018653453213297218
1468.6761582710667,1468.6761582710667,1.000059649210772,0.00018655961341634958
1468.6831028707863,1468.6831028707863,0.9997906286292089,0.00018653305639527242
1468.6900474705064,1468.6900474705064,0.9998765273186525,0.00018652947553691714
1468.6969920701797,1468.6969920701797,1.0001352186789927,0.00018652407211775895
1468.7039366697127,1468.7039366697127,1.000318408284556,0.0001865684158700474
1468.7108812692463,1468.7108812692463,0.9999715468474759,0.00018653785416150283
1468.7178258686865,1468.7178258686865,0.9999142029463084,0.00018652233354834736
1468.7247704680801,1468.7247704680801,0.9999899295618107,0.00018650649003843444
1468.7317150673346,1468.7317150673346,0.9999122093629003,0.00018648377577328235
1468.738659666588,1468.738659666588,0.999926437630186,0.00018647727939105125
1468.745604265749,1468.745604265749,1.0001751452814265,0.00018652967470988508
1468.7525488648635,1468.7525488648635,0.9998529914820805,0.00018651662803347967
1468.7594934638846,1468.7594934638846,1.0001544727444105,0.00018657397377661497
1468.7664380628596,1468.7664380628596,0.9996326600017141,0.00018650673700640612
1468.7733826616477,1468.7733826616477,0.9999379954079901,0.00018654821945213645
1468.780327260622,1468.780327260622,1.000390789457494,0.00018655381591372078
1468.787271859364,1468.787271859364,0.9998812811024977,0.0001865037135314056
1468.7942164580131,1468.7942164580131,0.9997397710006364,0.00018651060576310377
1468.801161056615,1468.801161056615,0.9997691909697111,0.0001865421786201151
1468.80810565517,1468.80810565517,1.0001278997396965,0.0001865282983493692
1468.815050253679,1468.815050253679,1.0000127902270015,0.00018653648718840087
1468.8219948520486,1468.8219948520486,1.000256846622637,0.00018653367872175315
1468.828939450418,1468.828939450418,0.999958997979576,0.00018648812844743217
1468.835884048694,1468.835884048694,0.9998332359533411,0.00018650097746643029
1468.8428286469234,1468.8428286469234,1.0000197862635898,0.00018655548629876371
1468.84977324506,1468.84977324506,1.000101074260548,0.00018657911632608692
1468.8567178431035,1468.8567178431035,0.9998486787665819,0.0001864762592907246
1468.8636624411,1468.8636624411,1.0000202496715989,0.00018653132033170884
1468.8706070390504,1468.8706070390504,1.0001125455159634,0.000186517956738987
1468.8775516369074,1468.8775516369074,1.0000119203891227,0.00018650019188446522
1468.8844962347177,1468.8844962347177,1.0001167064156256,0.00018659436180709237
1468.8914408324351,1468.8914408324351,1.0001309024532783,0.00018651760706916295
1468.8983854301528,1468.8983854301528,0.9998306330089536,0.00018650666623098395
1468.90533002773,1468.90533002773,0.9998613947683186,0.0001865679224806359
1468.9122746253076,1468.9122746253076,0.9998923851119228,0.0001865330263888579
1468.9192192226524,1468.9192192226524,0.9998684575099916,0.00018646743489211776
1468.9261638200908,1468.9261638200908,1.000327896320818,0.00018660306169827862
1468.9331084174355,1468.9331084174355,1.0004358282898511,0.0001865574685679137
1468.940053014687,1468.940053014687,0.9998249996675617,0.0001865188563269681
1468.9469976118917,1468.9469976118917,1.0002323664391402,0.00018656138278833737
1468.9539422089574,1468.9539422089574,0.9999218186089948,0.0001865176082586992
1468.9619979415888,1468.9619979415888,0.9999442179167086,0.00018654565603490404
1468.9692203224179,1468.9692203224179,1.0000331538495189,0.0001865419227604476
1468.9761649192965,1468.9761649192965,0.9998478319094313,0.0001865268816734844
1468.9831095161292,1468.9831095161292,1.0001005138772165,0.00018653161519480857
1468.990054112915,1468.990054112915,1.0000895147805995,0.00018654601027728878
1468.996998709608,1468.996998709608,1.0002078230207772,0.0001865700515582227
1469.0039433062543,1469.0039433062543,0.9999504361053585,0.00018654612098673712
1469.0108879027607,1469.0108879027607,0.999783510309104,0.00018650951934512302
1469.0178324992676,1469.0178324992676,0.9998701625902529,0.00018654075960408489
1469.0247770957744,1469.0247770957744,1.0000656223005353,0.00018654534297009648
1469.0317216920016,1469.0317216920016,1.0001785198847721,0.000186556025116608
1469.0386662883684,1469.0386662883684,0.9997154490233815,0.0001865729040477042
1469.045610884549,1469.045610884549,1.0001994405714083,0.00018657694423157963
1469.0525554807296,1469.0525554807296,0.9995925013267628,0.00018649898644192684
1469.0595000768171,1469.0595000768171,1.000280667206265,0.00018651802166322334
1469.0664446728117,1469.0664446728117,1.0001541409057206,0.00018656804265555364
1469.0733892687597,1469.0733892687597,0.999989200871355,0.00018651507720583344
1469.0803338646142,1469.0803338646142,1.0000021456536894,0.00018651250198054346
1469.087278460469,1469.087278460469,1.000113770473968,0.0001865238241463812
1469.0942230562305,1469.0942230562305,0.9998646057406951,0.00018649610289794965
1469.1011676518526,1469.1011676518526,0.9998208463495424,0.00018651543721975096
1469.108112247521,1469.108112247521,0.9999440082492767,0.00018648426107572901
1469.1150568430494,1469.1150568430494,1.0002185598333124,0.0001865760798513915
1469.1220014384849,1469.1220014384849,0.9999321911399883,0.00018650858349066147
1469.1289460338742,1469.1289460338742,1.0002590362313357,0.00018656576616774367
1469.1358906292166,1469.1358906292166,0.9999394764313545,0.00018651932706221678
1469.1428352245593,1469.1428352245593,0.9999553455319721,0.00018646252851140218
1469.1497798196222,1469.1497798196222,0.9998303642168826,0.0001865051778751161
1469.1567244148714,1469.1567244148714,1.0002669657728092,0.0001866056714110705
1469.163669009888,1469.163669009888,0.9999680646400021,0.0001865979044580668
1469.1706136048579,1469.1706136048579,0.999849252497994,0.00018653886658535053
1469.1775581998286,1469.1775581998286,1.000213197790592,0.00018655505406088788
1469.1845027946583,1469.1845027946583,0.999962005767449,0.0001865172632573754
1469.191447389442,1469.191447389442,1.0001637876583684,0.00018652188441053036
1469.1983919842255,1469.1983919842255,1.0000061026822742,0.00018648675096246374
1469.2053365788229,1469.2053365788229,1.0001063272676332,0.0001865483909013778
1469.2122811734207,1469.2122811734207,0.9999659293917539,0.00018654217992857585
1469.2192257679249,1469.2192257679249,1.0000282089967916,0.0001865355788311596
1469.2261703623822,1469.2261703623822,0.9998498620844906,0.00018652062070319432
1469.2331149567467,1469.2331149567467,0.9999833470675334,0.00018645800404344664
1469.2400595510649,1469.2400595510649,1.0000987000225572,0.000186572254896052
1469.2470041453366,1469.2470041453366,0.999888679102536,0.00018652731215944613
1469.2539487395147,1469.2539487395147,1.0002006560521566,0.0001865240676894905
1469.2608933335996,1469.2608933335996,1.0000261443728284,0.00018654026843875068
1469.267837927685,1469.267837927685,0.9999904242301436,0.0001865823130903353
1469.274782521584,1469.274782521584,1.0000609020369544,0.00018653687676530408
1469.2817271155295,1469.2817271155295,1.0001220632314207,0.00018656025565060014
1469.2886717093356,1469.2886717093356,1.0001771590824975,0.00018648416271357913
1469.2956163031408,1469.2956163031408,0.9997817673221713,0.0001864671286330247
1469.3025608968069,1469.3025608968069,0.9998280513895074,0.00018648204156176794
1469.309505490473,1469.309505490473,1.0000558932905577,0.00018649096127922003
1469.3164500839998,1469.3164500839998,0.9999121926159077,0.00018650033738928164
1469.323394677526,1469.323394677526,1.0000759034506959,0.00018656462031748847
1469.330339270959,1469.330339270959,1.0000959285335624,0.00018654668457628447
1469.3372838642524,1469.3372838642524,1.0000662808936096,0.00018655365695688492
1469.344228457593,1469.344228457593,1.000047722524234,0.00018653386574502708
1469.3511730507937,1469.3511730507937,0.9998882471505037,0.00018649805490651993
1469.3581176439936,1469.3581176439936,1.0000085583899077,0.00018659428032176382
1469.3650622370546,1469.3650622370546,0.9998771025573306,0.00018653612851290085
1469.3720068301147,1469.3720068301147,1.0000045181705375,0.00018650811258192368
1469.3789514230364,1469.3789514230364,0.9999207874187288,0.00018652679676155686
1469.3858960159573,1469.3858960159573,1.0000346567256964,0.00018654592747871913
1469.392840608692,1469.392840608692,1.0001655231060853,0.00018655743782571103
1469.3997852014738,1469.3997852014738,1.000115456428326,0.00018652774537160138
1469.4067297941615,1469.4067297941615,1.0001026448518886,0.0001864967471572109
1469.4136743867564,1469.4136743867564,1.0002031778470521,0.0001865469298342509
1469.4206189793051,1469.4206189793051,0.9999606328263461,0.00018654574374084775
1469.4275635717609,1469.4275635717609,1.0000010007592337,0.00018652324617453794
1469.4345081641234,1469.4345081641234,0.9996533413755391,0.00018654764970176858
1469.441452756485,1469.441452756485,1.0000073930714146,0.00018651862678192445
1469.4483973488009,1469.4483973488009,1.0003002858216736,0.00018655993229795207
1469.4553419409767,1469.4553419409767,0.9999251651387322,0.00018653596800510526
1469.4622865331062,1469.4622865331062,0.9998444949328584,0.00018652285115980266
1469.4692311251426,1469.4692311251426,1.000279668930355,0.00018652227525172931
1469.4761757171786,1469.4761757171786,1.0003722138526252,0.00018657052040694377
1469.4831203091217,1469.4831203091217,0.9999836627628793,0.00018650987343157618
1469.4900649009255,1469.4900649009255,0.9999860188369685,0.00018655375697318384
1469.4970094926819,1469.4970094926819,0.9998781953396717,0.00018654760773160196
1469.503954084439,1469.503954084439,0.9997732378555391,0.00018654537261563324
1469.5108986761495,1469.5108986761495,1.000047885594875,0.0001865558207506852
1469.5178432677199,1469.5178432677199,0.9998105632675326,0.00018650235000430926
1469.524787859244,1469.524787859244,0.9998136585117325,0.00018649403431372742
1469.531732450675,1469.531732450675,1.000330508074351,0.0001865129669192216
1469.5386770420596,1469.5386770420596,1.000141384164376,0.0001865465137264254
1469.5456216333973,1469.5456216333973,1.0000896932177885,0.00018653306384973345
1469.5525662246414,1469.5525662246414,0.9999869946994524,0.00018651608180743242
1469.55951081584,1469.55951081584,1.0000913516271617,0.00018656019722983864
1469.566455406945,1469.566455406945,0.9999900453391473,0.0001865627229898946
1469.5733999979566,1469.5733999979566,1.0000466622398334,0.00018653277959291856
1469.5803445889685,1469.5803445889685,0.9998708308704934,0.00018653739021504262
1469.5872891798406,1469.5872891798406,0.9997883183235231,0.00018652805964551437
1469.5942337707124,1469.5942337707124,0.9998194288088372,0.000186566753699286
1469.6011783614454,1469.6011783614454,1.000228917135278,0.00018655058388518543
1469.6081229521776,1469.6081229521776,0.9999179656777668,0.0001865657469656131
1469.61506754277,1469.61506754277,0.9999925577515427,0.00018652895551011576
1469.6220121333633,1469.6220121333633,1.0002022443864347,0.0001865949376057161
1469.6289567238625,1469.6289567238625,1.000026179198302,0.00018655447731963606
1469.6359013143156,1469.6359013143156,1.000010432702319,0.00018653504653168743
1469.6428459046288,1469.6428459046288,0.999835338998205,0.0001864931640468323
1469.6497904949424,1469.6497904949424,0.9998500058710761,0.00018650830518090257
1469.6567350851628,1469.6567350851628,1.0003458651305634,0.0001865346401387766
1469.6636796753362,1469.6636796753362,0.9999130845838196,0.00018650435863117666
1469.6706242654163,1469.6706242654163,0.9999340527989535,0.0001865884455511274
1469.6775688554505,1469.6775688554505,1.000180583579382,0.00018654486283373916
1469.6845134453915,1469.6845134453915,0.999985323323968,0.0001865335906818079
1469.6914580352393,1469.6914580352393,0.9999263842217203,0.00018655734955237157
1469.698402625087,1469.698402625087,0.999906321831791,0.00018652784863212152
1469.705347214841,1469.705347214841,0.9999596944448828,0.00018657544757201848
1469.7122918045027,1469.7122918045027,0.9999133075656095,0.00018651229296102572
1469.7192363941642,1469.7192363941642,1.0002216571318436,0.00018659137725715095
1469.7261809836393,1469.7261809836393,0.999783925204523,0.0001865884184230714
1469.7331255730678,1469.7331255730678,0.9997904024326669,0.00018651346600623801
1469.7400701624963,1469.7400701624963,1.0001345310538103,0.0001864978777861541
1469.7470147519248,1469.7470147519248,1.0002508922855824,0.0001865370345475814
1469.753959341121,1469.753959341121,1.0001132360645237,0.00018651139512446387
1469.760903930363,1469.760903930363,0.9999144198005802,0.00018652577516039382
1469.7678485194658,1469.7678485194658,0.9999908561597632,0.0001865135875361535
1469.7747931085682,1469.7747931085682,1.000158987357498,0.00018654138274758233
1469.7817376975775,1469.7817376975775,0.999858750982255,0.00018655530153225533
1469.7886822864477,1469.7886822864477,0.9998489170471678,0.00018652929590664834
1469.7956268753173,1469.7956268753173,0.9998363740324929,0.00018653329565042128
1469.8025714641406,1469.8025714641406,1.000032509036683,0.000186598672502822
1469.8095160528708,1469.8095160528708,1.000200993379797,0.00018652028217888515
1469.8164606415078,1469.8164606415078,1.000067831066388,0.00018651762786421218
1469.823405230098,1469.823405230098,0.9997733615951091,0.00018656909608561807
1469.8303498186417,1469.8303498186417,1.000262348601981,0.00018654357550946117
1469.8372944070456,1469.8372944070456,0.9999925246027928,0.00018647906413870712
1469.8442389954969,1469.8442389954969,0.9999793179168209,0.0001865232194371926
1469.8511835838078,1469.8511835838078,0.9997786641458262,0.0001865149341027806
1469.858128172072,1469.858128172072,1.000009883004135,0.00018653682856292712
1469.8650727601967,1469.8650727601967,1.0000426152556396,0.00018658790283802184
1469.8720173483212,1469.8720173483212,1.0002040357056359,0.00018659368661390577
1469.8789619363533,1469.8789619363533,1.0000113843508338,0.0001865112945489604
1469.8859065243382,1469.8859065243382,0.9997935223152459,0.00018653800028329946
1469.89285111223,1469.89285111223,1.0001417314363126,0.00018651376932415643
1469.8997957000752,1469.8997957000752,0.9996511659546549,0.0001865637019293985
1469.9067402878275,1469.9067402878275,0.9998653989444957,0.00018650247418571718
1469.91368487558,1469.91368487558,1.0003378584007578,0.00018653075436554694
1469.9206294631458,1469.9206294631458,1.0000115041137265,0.00018653679790979328
1469.9275740507583,1469.9275740507583,1.0000175120875707,0.0001865835508737709
1469.9345186382313,1469.9345186382313,0.9998509606035402,0.00018656982861433492
1469.9414632256107,1469.9414632256107,0.999829480693929,0.00018648945599297065
1469.9484078129904,1469.9484078129904,0.999892909025794,0.00018649729162339214
1469.9553524003234,1469.9553524003234,1.000155853929189,0.00018653096897182077
1469.9622969875168,1469.9622969875168,1.0002123106135365,0.00018652032339312288
1469.9692415747572,1469.9692415747572,0.9999440116401027,0.0001865290197158778
1469.9761861618106,1469.9761861618106,0.9998542721897316,0.0001865464076970092
1469.9831307487243,1469.9831307487243,0.999979710384516,0.00018652091773919816
1469.9900753357313,1469.9900753357313,1.0001252581820368,0.00018653905513178745
1469.997019922599,1469.997019922599,1.0000066272295718,0.00018656365994547324
1470.0039645094198,1470.0039645094198,0.9999230265948006,0.00018652595108052775
1470.0109090961946,1470.0109090961946,1.000009344448268,0.0001865929566752078
1470.0178536828287,1470.0178536828287,1.0002241785455626,0.00018655880005425752
1470.0247982694168,1470.0247982694168,0.9997276060347632,0.00018654731357234822
1470.031742856005,1470.031742856005,1.0001412827758216,0.000186546053601453
1470.0386874424535,1470.0386874424535,1.0000035518600883,0.00018654628947819708
