time,time,flux,flux_err
1325.298672162722,1325.298672162722,0.9996930651191093,0.00027298807010056017
1325.3070054997181,1325.3070054997181,1.0002141134622482,0.000273147927499721
1325.3153388369963,1325.3153388369963,1.0002112227495992,0.00027324083982043044
1325.322977729763,1325.322977729763,1.0000502988144668,0.0002494814640768461
1325.3299221779293,1325.3299221779293,1.0000125130396218,0.0002495381855206449
1325.336866626329,1325.336866626329,1.00029669247633,0.000249653066345412
1325.34381107488,1325.34381107488,0.9996358416866217,0.00024963118119783164
1325.3507555236638,1325.3507555236638,0.9999199815020665,0.0002497525966904123
1325.3576999726106,1325.3576999726106,1.0003360403162413,0.000249849063238104
1325.364644421767,1325.364644421767,0.9994342371001139,0.000249839752228991
1325.3715888710976,1325.3715888710976,1.0001593157867121,0.0002499811052746177
1325.3785333206033,1325.3785333206033,1.0001493486157391,0.000250048286876836
1325.3854777703068,1325.3854777703068,0.9997370332246787,0.0002500999928634497
1325.3924222201847,1325.3924222201847,0.9999172778006272,0.00025016642065153586
1325.3993666702488,1325.3993666702488,1.0002440075262877,0.0002502641140105562
1325.4063111204882,1325.4063111204882,0.9997666415925908,0.0002502555188744645
1325.4132555709014,1325.4132555709014,1.000274942261544,0.0002503818988162189
1325.4202000215014,1325.4202000215014,1.0002283247193582,0.00025046860721599553
1325.427144472264,1325.427144472264,1.0005304646668716,0.00025056495712332493
1325.4340889231898,1325.4340889231898,0.999919732604894,0.0002505380857821437
1325.441033374302,1325.441033374302,1.000231145128128,0.00025063747857108094
1325.4479778255536,1325.4479778255536,0.9999503759461772,0.0002506549164424985
1325.454922277003,1325.454922277003,0.9996725721732614,0.00025070602444368943
1325.4618667285808,1325.4618667285808,0.9999291785880912,0.0002507951734934333
1325.4688111803564,1325.4688111803564,1.0000322187167476,0.0002508670847832759
1325.4757556322602,1325.4757556322602,0.9996637781861862,0.00025089837036129534
1325.48270008435,1325.48270008435,1.0004306973420996,0.00025107709778126133
1325.4896445365798,1325.4896445365798,1.0006029911116396,0.0002511795209277882
1325.4965889889609,1325.4965889889609,0.9998440119474747,0.0002511807294244346
1325.5035334415047,1325.5035334415047,0.9999438082640288,0.000251276032786069
1325.5104778941884,1325.5104778941884,0.9998783469428807,0.0002513646293541644
1325.5174223470349,1325.5174223470349,0.9997238878464184,0.0002514397332557585
1325.5243668000214,1325.5243668000214,1.0003070872206612,0.00025158680798029453
1325.5313112531471,1325.5313112531471,0.9998518073134747,0.0002516283012713013
1325.5382557064245,1325.5382557064245,1.0001002164172663,0.00025174982294151187
1325.5452001598537,1325.5452001598537,1.000031539584505,0.0002518084076758294
1325.55214461341,1325.55214461341,1.0001258834978894,0.0002519392958976818
1325.559089067107,1325.559089067107,1.0001141211105082,0.0002519913115723551
1325.5660335209545,1325.5660335209545,0.999680500589105,0.00025203483077804135
1325.5729779749304,1325.5729779749304,0.9998947109557825,0.00025215665619432144
1325.5799224290345,1325.5799224290345,0.9997050678302681,0.0002522190915899048
1325.5868668832777,1325.5868668832777,1.0003698981348785,0.00025234833226893286
1325.593811337661,1325.593811337661,1.0001414145307717,0.00025240813125342813
1325.600755792161,1325.600755792161,1.0002084761487409,0.0002524584346574266
1325.6077002467887,1325.6077002467887,0.9995298561664352,0.0002524484063031077
1325.6146447015678,1325.6146447015678,1.0002999261524281,0.00025258525764682715
1325.6215891564516,1325.6215891564516,1.0000325435011057,0.00025257647126673854
1325.6285336114638,1325.6285336114638,1.0002308403066578,0.0002526109104785294
1325.6354780666038,1325.6354780666038,0.9997586676854094,0.000252616273726712
1325.6424225218484,1325.6424225218484,0.9995544576203361,0.0002526046126499114
1325.649366977233,1325.649366977233,1.0001823827017189,0.000252739437159988
1325.656311432734,1325.656311432734,0.9997873192132195,0.0002527101543750018
1325.6632558883514,1325.6632558883514,0.9999894869965553,0.00025272783367360856
1325.6702003440846,1325.6702003440846,1.0003775958946766,0.000252802877005991
1325.6771447999233,1325.6771447999233,0.9998819233726779,0.00025275726424034666
1325.6840892558898,1325.6840892558898,1.000495268036974,0.00025288485554004754
1325.6910337119612,1325.6910337119612,0.9999888857793067,0.000252851431953051
1325.6979781681493,1325.6979781681493,0.9998186189118607,0.00025287817647312344
1325.7049226244303,1325.7049226244303,0.9999493131514532,0.0002529122087356414
1325.7118670808504,1325.7118670808504,0.999623698201215,0.00025295541464875524
1325.7188115373526,1325.7188115373526,1.000144656669151,0.000253046258353604
1325.7257559939594,1325.7257559939594,0.999865367424347,0.00025307946786244374
1325.7327004507058,1325.7327004507058,0.9999006967352269,0.00025311530578970865
1325.7396449074993,1325.7396449074993,0.9999926130030362,0.00025321263978245905
1325.7465893644317,1325.7465893644317,1.000268456177272,0.0002532908083790779
1325.753533821458,1325.753533821458,1.0001815677141348,0.0002533175987187612
1325.7604782785886,1325.7604782785886,1.0001395856838204,0.00025341443295715714
1325.7674227358007,1325.7674227358007,0.9996614331204435,0.00025340783396548335
1325.7743671931294,1325.7743671931294,1.0002828284293006,0.00025353725637037835
1325.7813116505392,1325.7813116505392,0.9997238411542014,0.00025352541193017725
1325.788256108066,1325.788256108066,0.9997184012385381,0.00025357955435532795
1325.795200565651,1325.795200565651,0.9999837827813775,0.0002536384600803346
1325.8021450233753,1325.8021450233753,1.0002453945555199,0.00025373292532854773
1325.8090894811698,1325.8090894811698,1.0007455336266196,0.0002538211974796614
1325.8160339390452,1325.8160339390452,0.9997579026352229,0.0002537410500872752
1325.8229783970141,1325.8229783970141,0.999943002600762,0.00025376382344165026
1325.829922855088,1325.829922855088,0.9999745708389096,0.000253809343052168
1325.8368673132547,1325.8368673132547,1.0002639731868634,0.0002538676792488218
1325.84381177148,1325.84381177148,0.9996780371098476,0.00025379985311443486
1325.8507562298091,1325.8507562298091,0.9999912308555363,0.0002538488299747636
1325.857700688221,1325.857700688221,1.0000854219269657,0.00025380141661761476
1325.8646451467018,1325.8646451467018,1.0000842028117394,0.00025378947443684314
1325.871589605288,1325.871589605288,1.0001881835872921,0.00025374925881726287
1325.8785340639438,1325.8785340639438,0.9998754646745166,0.0002536729191328681
1325.8854785226927,1325.8854785226927,0.999909800938355,0.00025360848328605115
1325.8924229815111,1325.8924229815111,0.9999452269411953,0.0002535580520117328
1325.8993674404117,1325.8993674404117,1.0001592148831584,0.0002535481309427879
1325.9063118993813,1325.9063118993813,0.9998108608267829,0.00025346439577904757
1325.9132563584449,1325.9132563584449,0.9998036800990695,0.00025343843011097763
1325.920200817566,1325.920200817566,0.9998554689815489,0.00025343362449811187
1325.9271452767694,1325.9271452767694,1.0003424036854245,0.00025344873915818044
1325.9340897360532,1325.9340897360532,1.0001070338730156,0.0002534197004486859
1325.9410341954194,1325.9410341954194,1.00025333771217,0.00025338649506719506
1325.9479786548436,1325.9479786548436,0.9996923010738875,0.0002533253706600673
1325.954923114361,1325.954923114361,1.0000448604998078,0.0002533757444870451
1325.9627009090632,1325.9627009090632,0.9997299105297885,0.0002533598138752749
1325.9702009254943,1325.9702009254943,0.9999440051425342,0.00025337623512290393
1325.977145385233,1325.977145385233,1.000405584015764,0.00025341337369508304
1325.9840898450175,1325.9840898450175,1.000334881951007,0.00025341226896999846
1325.9910343048955,1325.9910343048955,0.9999205902174191,0.0002533761622624979
1325.997978764809,1325.997978764809,0.9996575012169433,0.0002534280774374049
1326.0049232248264,1326.0049232248264,1.0002660969837098,0.00025351521065019797
1326.0118676848795,1326.0118676848795,0.9995747922038409,0.00025350843197598726
1326.0188121450253,1326.0188121450253,1.0000770106642496,0.00025358972584337805
1326.0257566052064,1326.0257566052064,0.9999178371589087,0.00025362660567610385
1326.0327010654685,1326.0327010654685,1.000024371937783,0.00025367423525783563
1326.0396455257887,1326.0396455257887,0.9998166260378527,0.0002536081095007259
1326.046589986156,1326.046589986156,0.9998690812599346,0.0002536223038806418
1326.0535344466161,1326.0535344466161,1.000275539964035,0.0002536854297563223
1326.0604789070997,1326.0604789070997,1.0000163578496801,0.00025368867727542483
1326.0674233676648,1326.0674233676648,1.0001939112126181,0.00025372319877231666
1326.074367828299,1326.074367828299,1.0002208197833882,0.00025372921258395696
1326.0813122889813,1326.0813122889813,0.9998816864145639,0.0002536840084065727
1326.0882567497204,1326.0882567497204,1.0001011823611714,0.0002537316751947404
1326.0952012105067,1326.0952012105067,0.9999958623573992,0.000253735243607644
1326.102145671363,1326.102145671363,0.9997847293371983,0.00025370756975891587
1326.1090901322768,1326.1090901322768,0.9998374897653909,0.0002537194961912047
1326.1160345932494,1326.1160345932494,0.9999627353840996,0.0002537302802704867
1326.1229790542563,1326.1229790542563,0.9997320969535469,0.00025371541959607057
1326.1299235153342,1326.1299235153342,1.0000803044834699,0.0002537159711192255
1326.136867976446,1326.136867976446,1.000153813578329,0.0002537705639447107
1326.1438124376514,1326.1438124376514,1.0002296506430493,0.00025377083368973785
1326.1507568988798,1326.1507568988798,1.0000093994566561,0.00025375665688862883
1326.1577013601664,1326.1577013601664,1.0004914823682267,0.0002538075295040891
1326.1646458215,1326.1646458215,0.9999558801181161,0.0002537621717703023
1326.1715902828796,1326.1715902828796,1.0000395977861332,0.00025377955303445854
1326.1785347443179,1326.1785347443179,0.9997611553041688,0.00025376978430118795
1326.185479205814,1326.185479205814,1.0000555650713463,0.00025382191883287897
1326.1924236673449,1326.1924236673449,0.9996635560459944,0.0002537276361541846
1326.1993681289234,1326.1993681289234,0.9997935062293919,0.00025375314563261193
1326.206312590559,1326.206312590559,0.9999384888770297,0.0002537965452405289
1326.2132570522535,1326.2132570522535,0.999764549168483,0.00025377185186077356
1326.2202015139708,1326.2202015139708,1.0000853769817766,0.00025375530746047053
1326.2271459757233,1326.2271459757233,1.0001411118068748,0.0002537639062891462
1326.2340904375455,1326.2340904375455,1.0000032324625363,0.0002537559580216196
1326.2410348994022,1326.2410348994022,1.0002089111612453,0.0002537775116609946
1326.2479793613184,1326.2479793613184,0.9999508508036208,0.0002537107115324961
1326.2549238232564,1326.2549238232564,1.0005728799728386,0.00025380549229281314
1326.2618682852656,1326.2618682852656,0.9996058059188295,0.00025369658253681087
1326.268812747297,1326.268812747297,0.999943482656646,0.00025373245146910115
1326.2757572093753,1326.2757572093753,1.0000187989105702,0.00025372709732276484
1326.2827016715123,1326.2827016715123,1.0000941052551944,0.00025375511568807716
1326.2896461336718,1326.2896461336718,1.0002557339841491,0.0002537836903841355
1326.2965905958667,1326.2965905958667,0.9998326820272396,0.0002537226310391521
1326.303535058131,1326.303535058131,0.9998705693354685,0.00025377060599766405
1326.3104795204308,1326.3104795204308,0.9999395443321785,0.00025378349834773894
1326.3174239827306,1326.3174239827306,0.9997446902591438,0.0002537859468984299
1326.3243684450995,1326.3243684450995,0.9998989091785451,0.00025383027752523475
1326.3313129075045,1326.3313129075045,1.0004170746823013,0.00025389833225877986
1326.3382573699437,1326.3382573699437,0.9996991904397126,0.00025388372926773333
1326.3457573894368,1326.3457573894368,1.0001921341796032,0.00025393984167983375
1326.354924079963,1326.354924079963,1.000307855613818,0.000254002901324077
1326.3618685425536,1326.3618685425536,0.9999545730668385,0.00025400672409922473
1326.3688130051444,1326.3688130051444,0.9997485836115991,0.0002539828572449949
1326.3757574678045,1326.3757574678045,1.000176545638082,0.00025408787753181057
1326.3827019304767,1326.3827019304767,0.9994224181326977,0.0002540123515684376
1326.3896463931956,1326.3896463931956,1.0002785930789682,0.0002541648345161871
1326.3965908559373,1326.3965908559373,1.000084240306427,0.0002541600545126482
1326.4035353187257,1326.4035353187257,1.00020613363982,0.00025417580729097304
1326.4104797815612,1326.4104797815612,0.9999108762238507,0.00025420690644776595
1326.4174242443846,1326.4174242443846,0.9998962934595944,0.0002542276019016034
1326.4243687072892,1326.4243687072892,0.9998580025833992,0.000254250318288234
1326.4313131702174,1326.4313131702174,1.0004560289461861,0.0002543458741970753
1326.4382576331689,1326.4382576331689,0.9998935924891648,0.00025433273546975125
1326.4452020961555,1326.4452020961555,1.0000913299022307,0.00025436849867651126
1326.4521465591883,1326.4521465591883,1.0000555629945431,0.0002544011550241608
1326.4590910222214,1326.4590910222214,0.9994475819434724,0.00025437897572835763
1326.4660354853008,1326.4660354853008,0.9997265539532407,0.0002544473509461856
1326.472979948427,1326.472979948427,1.0002023426263524,0.0002545068458455109
1326.4799244115534,1326.4799244115534,1.0001607354570616,0.0002545465179127852
1326.4868688747374,1326.4868688747374,1.0005752087271587,0.00025462417894006557
1326.4938133379453,1326.4938133379453,1.000060160923257,0.0002546188387943343
1326.5007578011875,1326.5007578011875,0.9996355559798576,0.0002546122085007298
1326.5077022644418,1326.5077022644418,1.0002448270131197,0.0002547145574956445
1326.5146467277425,1326.5146467277425,0.9993296273401407,0.00025466305511068156
1326.521591191055,1326.521591191055,1.000158781096719,0.0002547956473721984
1326.528535654414,1326.528535654414,1.000101161328655,0.00025483837316043795
1326.5354801177843,1326.5354801177843,1.0000866154906576,0.0002548819015470391
1326.5424245812017,1326.5424245812017,1.0000387222632223,0.00025496190154393917
1326.5493690446071,1326.5493690446071,0.999940841572089,0.0002550267856359622
1326.5563135080708,1326.5563135080708,0.9999206984767397,0.0002550544218223678
1326.563257971581,1326.563257971581,0.9998052346014029,0.0002550704078352866
1326.5702024350915,1326.5702024350915,1.0002062774857159,0.0002551137190451361
1326.577146898637,1326.577146898637,1.0000805549846474,0.00025512914913500956
1326.5840913621935,1326.5840913621935,1.0004194127643586,0.00025519272351480244
1326.5910358257856,1326.5910358257856,0.9995424601941123,0.00025513558834478216
1326.5979802894003,1326.5979802894003,1.0000561117284306,0.00025523299451748316
1326.6049247530505,1326.6049247530505,0.9997104199763104,0.0002551853178064163
1326.6118692167238,1326.6118692167238,0.9999053300672658,0.00025525433789016675
1326.6188136804085,1326.6188136804085,0.9999385048429398,0.0002552706198853212
1326.6257581441168,1326.6257581441168,1.0003162082637875,0.000255294093621012
1326.6327026078598,1326.6327026078598,0.9998759375153818,0.00025527055640339264
1326.6396470716147,1326.6396470716147,1.000091809841724,0.00025531560369894944
1326.6465915354277,1326.6465915354277,1.0002584613145944,0.00025531766859074144
1326.653535999229,1326.653535999229,1.0002333511989028,0.0002553044539607465
1326.6604804630654,1326.6604804630654,0.9998228219084533,0.00025527987007954104
1326.6674249269247,1326.6674249269247,1.000032378102194,0.0002552447473251003
1326.674369390808,1326.674369390808,0.9996634689480757,0.00025517282417711324
1326.6813138547022,1326.6813138547022,0.999948688297909,0.0002551944788056975
1326.689369432844,1326.689369432844,1.0002485299729307,0.0002552116328832542
1326.6965916753584,1326.6965916753584,1.0002112090482105,0.00025518113751879734
1326.7035361393341,1326.7035361393341,1.000172906479826,0.00025515518709223273
1326.7110361604457,1326.7110361604457,0.9998899162724308,0.0002550937561979807
1326.718813960142,1326.718813960142,0.9993862195053957,0.0002550174999016008
1326.725758424153,1326.725758424153,0.9996899826136817,0.0002550173686168498
1326.732702888245,1326.732702888245,1.0002151209487489,0.00025509365110734964
1326.7396473523145,1326.7396473523145,1.0000135655093783,0.00025500743347843925
1326.746591816418,1326.746591816418,1.0001784370769067,0.0002550113271324322
1326.7535362805338,1326.7535362805338,0.9999990752803598,0.0002549858340802673
1326.7604807446728,1326.7604807446728,1.000520572886028,0.00025502645540995426
1326.7674252088232,1326.7674252088232,1.0001688251534842,0.0002549898351237476
1326.774369673009,1326.774369673009,0.9996631047593171,0.0002549105742618196
1326.781314137206,1326.781314137206,0.9997885503872845,0.0002549364465976173
1326.7882586014032,1326.7882586014032,0.9998930214186463,0.0002549751412933835
1326.7952030656352,1326.7952030656352,0.9999929999672137,0.000255006370794282
1326.8021475298908,1326.8021475298908,1.000200775598808,0.00025505294524271144
1326.8090919941576,1326.8090919941576,0.9999387038685585,0.0002550358887753959
1326.816036458436,1326.816036458436,0.9999159977029926,0.00025504386167299385
1326.8229809227498,1326.8229809227498,0.9999175572944035,0.0002550513871453168
1326.8299253870514,1326.8299253870514,1.0002500246442099,0.000255102301771613
1326.8368698513887,1326.8368698513887,0.9996040971110467,0.0002550306691287452
1326.843814315772,1326.843814315772,0.999995243837587,0.0002550806240709985
1326.8507587801319,1326.8507587801319,1.0001129517898621,0.00025506620962380933
1326.8577032445269,1326.8577032445269,1.0002702011374744,0.0002551002578266092
1326.864647708934,1326.864647708934,1.0001374077448457,0.00025501698749123543
1326.8715921733408,1326.8715921733408,1.0000396598625292,0.00025500566340090847
1326.8785366377936,1326.8785366377936,1.0000049705781604,0.00025494205724773815
1326.8854811022356,1326.8854811022356,0.9998640034029076,0.0002548517052633894
1326.8924255667118,1326.8924255667118,0.9997510795248191,0.00025482545215049464
1326.8993700311885,1326.8993700311885,0.9998451088665057,0.0002547443592727029
1326.9063144957,1326.9063144957,1.0001567215538272,0.00025473827522768506
1326.9132589602116,1326.9132589602116,0.9999127718310131,0.0002546132668822041
1326.9202034247344,1326.9202034247344,1.0001267365129456,0.00025457407455007345
1326.9271478892927,1326.9271478892927,1.00024079325001,0.00025451351719363096
1326.934092353839,1326.934092353839,0.9998550954999275,0.0002543912203873122
1326.94103681842,1326.94103681842,0.9999998828080727,0.0002543395783644192
1326.9479812830016,1326.9479812830016,0.9997779124011419,0.00025422436071210027
1326.9549257476178,1326.9549257476178,1.0001265372808867,0.0002542227929333413
1326.9618702122457,1326.9618702122457,1.000011345661608,0.0002541408998224065
1326.9688146768738,1326.9688146768738,1.0000030760627567,0.0002540922320066254
1326.9757591415012,1326.9757591415012,1.0000200554305443,0.0002540803077430775
1326.9827036061529,1326.9827036061529,1.0004683413769448,0.0002540342309933859
1326.9896480708271,1326.9896480708271,0.9998432095134795,0.00025396089221459335
1326.9965925355134,1326.9965925355134,0.9995592682971457,0.0002538976429798165
1327.0035370002108,1327.0035370002108,1.000193557045061,0.0002539545789701429
1327.0104814649087,1327.0104814649087,1.0003554087327688,0.0002539616532676863
1327.0174259296414,1327.0174259296414,0.999783344483626,0.00025390850032833406
1327.0243703943738,1327.0243703943738,0.9998898053075826,0.0002539044784604567
1327.0313148591183,1327.0313148591183,0.9995273988975096,0.0002538817807205309
1327.0382593238737,1327.0382593238737,1.0002415689659703,0.00025395873674771994
1327.0452037886419,1327.0452037886419,1.0002803628048063,0.0002539562113983969
1327.0521482534325,1327.0521482534325,0.9998104003582533,0.00025392146025848974
1327.0599260540025,1327.0599260540025,0.9998045847731479,0.00025392769085259674
