time,time,flux,flux_err
1468.281178523043,1468.281178523043,1.0010825823704754,0.0038369348697568396
1468.2895118860024,1468.2895118860024,1.0047375634047377,0.003833954060544103
1468.297150801924,1468.297150801924,1.0035416130179549,0.0035122046557070586
1468.3040952708395,1468.3040952708395,1.0039249298388,0.003503078774028407
1468.311039739569,1468.311039739569,1.000505903879454,0.0035028529283551795
1468.317984208205,1468.317984208205,0.9999034025412635,0.0035046593452463227
1468.3249286765613,1468.3249286765613,0.9989218008434351,0.003505955592679305
1468.331873144918,1468.331873144918,0.9972922457849085,0.0035005562001814
1468.3388176132746,1468.3388176132746,0.995203024989322,0.0034990131745305923
1468.3457620811655,1468.3457620811655,0.9938100086401722,0.003504679583768079
1468.3527065492426,1468.3527065492426,1.00177210479788,0.0035041492899863815
1468.3596510170405,1468.3596510170405,0.9950430853252143,0.0035037334430397817
1468.3665954846524,1468.3665954846524,0.9982938935398338,0.003501891407600692
1468.373539952264,1468.373539952264,0.9984906617295163,0.0035066584507512807
1468.3824288705496,1468.3824288705496,0.9958941334530035,0.0035029064433196927
1468.3971511409507,1468.3971511409507,0.9995508851282386,0.0035025920834971516
1468.404095607911,1468.404095607911,1.0001596996499909,0.0035028857719875822
1468.4110400747775,1468.4110400747775,0.9978870311057285,0.003503426649599414
1468.4179845415504,1468.4179845415504,0.9992018057294253,0.0035039794641082652
1468.4249290081375,1468.4249290081375,0.9994786184279534,0.003499410665964038
1468.4318734745386,1468.4318734745386,0.999576514705165,0.003501629228432846
1468.438817940846,1468.438817940846,0.9987687004204412,0.0035028579416940993
1468.4457624070606,1468.4457624070606,1.0026518896056618,0.003505208928026959
1468.4527068733685,1468.4527068733685,1.0018285678819416,0.0034990673736616878
1468.459651338931,1468.459651338931,1.0005226188145855,0.003500643033462808
1468.4665958049595,1468.4665958049595,1.0041875425712856,0.003505625578724644
1468.4735402705223,1468.4735402705223,1.0001957935258479,0.00350100085871779
1468.480484736178,1468.480484736178,0.9968950488510606,0.0035036895792573365
1468.487429201554,1468.487429201554,1.0000930102047527,0.0035056086161498177
1468.4943736669306,1468.4943736669306,0.9993121198024278,0.003505901458162429
1468.5013181320278,1468.5013181320278,0.9924092277793927,0.003509349618868788
1468.5082625970315,1468.5082625970315,1.0039009067658102,0.0035053619014692484
1468.515207061942,1468.515207061942,1.0015939424240554,0.0035037949992168713
1468.52215152676,1468.52215152676,1.0008653402015273,0.003511099801012446
1468.5290959913912,1468.5290959913912,1.001498266350083,0.003507057333073408
1468.5360404559297,1468.5360404559297,1.0003730150471026,0.003512811088380569
1468.5429849202817,1468.5429849202817,0.9955946017666827,0.003504692277400088
1468.54992938454,1468.54992938454,1.0009584572933907,0.0035052156744062686
1468.5568738486127,1468.5568738486127,0.997511585931829,0.003505586715989574
1468.5638183125925,1468.5638183125925,1.0048679591613372,0.0035132902222630297
1468.5707627764784,1468.5707627764784,1.001205360558655,0.0035068702719962376
1468.5777072404578,1468.5777072404578,0.9961562346500749,0.0035101478172688424
1468.5846517037853,1468.5846517037853,1.002717963654438,0.0035061388399582625
1468.5915961673923,1468.5915961673923,1.0000975979421778,0.003512116693196392
1468.5985406307198,1468.5985406307198,1.0013422556283822,0.0035110290148841865
1468.6054850939543,1468.6054850939543,1.002051740587742,0.0035118261454558527
1468.612429557002,1468.612429557002,0.995079259626802,0.00351730718607872
1468.6193740200501,1468.6193740200501,1.0008839959206186,0.00350752320729749
1468.626318482819,1468.626318482819,0.9977732187418951,0.003514935939906463
1468.6332629454948,1468.6332629454948,1.0040876209276886,0.0035119404078897314
1468.6402074080765,1468.6402074080765,0.9984902278503753,0.0035130806868117494
1468.6471518705662,1468.6471518705662,0.9988481753339313,0.0035100598816035105
1468.6540963329626,1468.6540963329626,0.9978045944304155,0.00350865917775312
1468.661040795079,1468.661040795079,0.9997752589197285,0.0035034664505574956
1468.667985257196,1468.667985257196,1.0015772505646259,0.0035035522087540328
1468.6749297191263,1468.6749297191263,1.0037678073086735,0.003504153604263057
1468.6818741809636,1468.6818741809636,0.9996855206877525,0.0035011379184211925
1468.6888186426145,1468.6888186426145,0.9996321128857696,0.0035110229287386068
1468.6957631042658,1468.6957631042658,0.9967140911051372,0.0035089138490689105
1468.7027075656379,1468.7027075656379,1.0024467279658626,0.003513022439891705
1468.709652027009,1468.709652027009,1.001618877025735,0.0035099803265336202
1468.7165964880085,1468.7165964880085,1.0019371505115486,0.003504462689593144
1468.723540949194,1468.723540949194,0.9981920212214088,0.0035048445117953977
1468.730485410007,1468.730485410007,0.9964542281339932,0.003503598132068337
1468.73742987082,1468.73742987082,0.996847514720131,0.0035028664153060204
1468.7443743315393,1468.7443743315393,1.0022213199561172,0.0035115795882913795
1468.7513187920727,1468.7513187920727,1.0014221525951,0.0035081084873346477
1468.7582632525134,1468.7582632525134,0.9988913404282298,0.003504549964628573
1468.7652077127677,1468.7652077127677,1.0010907024399576,0.003503828688385731
1468.7721521729288,1468.7721521729288,1.0028184171791712,0.0035021509913588955
1468.7790966329035,1468.7790966329035,0.9983473234047849,0.0035024284540353472
1468.786041092785,1468.786041092785,0.9993345644592718,0.0034980838628516564
1468.7929855525736,1468.7929855525736,1.0006096696787097,0.0034987110417332773
1468.7999300121755,1468.7999300121755,1.0011890127566265,0.003502721361396137
1468.8068744717777,1468.8068744717777,0.9977474461815022,0.0035009663749640254
1468.8138189311935,1468.8138189311935,1.0044369089365672,0.003506675402279125
1468.82076339033,1468.82076339033,0.9969508253358164,0.003505688277812536
1468.8277078493736,1468.8277078493736,0.9969855717802606,0.0035047772638217645
1468.8346523084172,1468.8346523084172,1.000814862566121,0.0035115242875132847
1468.8415967674605,1468.8415967674605,1.0005371253906876,0.0035097236932031166
1468.8485412261311,1468.8485412261311,1.0017532293107128,0.0035105591005804826
1468.8554856848025,1468.8554856848025,0.9981228439423158,0.0035119786660885665
1468.86243014338,1468.86243014338,0.9992709370925794,0.003511725514636161
1468.8693746016786,1468.8693746016786,1.0055133020978144,0.003507864955279998
1468.8763190599766,1468.8763190599766,0.996255722858519,0.0035044048434060377
1468.8832635180886,1468.8832635180886,0.9984136604542094,0.003507318595364748
1468.8902079760146,1468.8902079760146,0.999801741353379,0.00351254734493327
1468.8971524338472,1468.8971524338472,0.9995062845324867,0.003508776185207581
1468.9040968916802,1468.9040968916802,1.0016115851847314,0.0035085318708514618
1468.9110413493265,1468.9110413493265,1.0015301477111975,0.0035082063911755722
1468.9179858068796,1468.9179858068796,1.0038867350949827,0.0035068439515915433
1468.9249302641538,1468.9249302641538,1.0014532598320915,0.0035133119133485434
1468.9318747214274,1468.9318747214274,0.9970521231564223,0.003505468762261734
1468.9388191785151,1468.9388191785151,1.0000386660713299,0.0035056530053970995
1468.9457636354164,1468.9457636354164,1.000438459280037,0.0035037762059055323
1468.9527080923176,1468.9527080923176,0.995152306703071,0.003501591906191103
1468.9599303274877,1468.9599303274877,1.0014907797162396,0.0035058612363826546
1468.967985896905,1468.967985896905,1.0005318343493728,0.003502125736504859
1468.9749303535268,1468.9749303535268,1.0015509595422565,0.003513702594887708
1468.9818748097764,1468.9818748097764,1.0016906073803977,0.003507997060645115
1468.9888192659325,1468.9888192659325,1.0047069631301884,0.0035052308403033814
1468.995763722089,1468.995763722089,0.9991890410821901,0.0035052553904572244
1469.0027081779658,1469.0027081779658,0.9947788595987985,0.0035067736394685687
1469.0096526338425,1469.0096526338425,0.9950075914978349,0.0035051747377302504
1469.0165970896262,1469.0165970896262,0.9995275055989392,0.0035034852479564386
1469.0235415451307,1469.0235415451307,1.0048450097846375,0.0035024256383435945
1469.0304860006352,1469.0304860006352,1.0016272272903537,0.003508077484869649
1469.0374304559537,1469.0374304559537,1.0027714524870308,0.0035090963054233517
1469.0443749111785,1469.0443749111785,1.000080377397168,0.003505355769454917
1469.0513193661236,1469.0513193661236,0.9990303028622973,0.0035052857899431503
1469.0582638211627,1469.0582638211627,0.9988197873310252,0.0035101498528860527
1469.0652082760148,1469.0652082760148,0.997726234677798,0.003501979340001666
1469.0721527306812,1469.0721527306812,1.0025210623206298,0.0035063652152855693
1469.0790971852543,1469.0790971852543,1.0000817924710539,0.0035048532660256282
1469.086041639641,1469.086041639641,0.9999365493787522,0.0035114930795085175
1469.092986094028,1469.092986094028,1.0007089522551094,0.003510546109610685
1469.0999305482287,1469.0999305482287,1.0002454256009012,0.0035026811349012825
1469.106875002336,1469.106875002336,1.0008290980022287,0.003506652273857825
1469.113819456164,1469.113819456164,1.0009386498050337,0.003503669149925584
1469.1207639099919,1469.1207639099919,1.0004060743576337,0.003500740986510793
1469.12770836382,1469.12770836382,0.9986278376306823,0.003499258789926349
1469.1346528172753,1469.1346528172753,1.0039709096121514,0.0035001417620264138
1469.1415972707307,1469.1415972707307,0.9972375262879764,0.0035028684059919754
1469.1485417240933,1469.1485417240933,0.9970030322384685,0.0034993043036369597
1469.1554861773625,1469.1554861773625,1.0010763699800025,0.0034999803823132667
1469.1624306303518,1469.1624306303518,1.0020192009854156,0.0034997485473123326
1469.169375083249,1469.169375083249,0.9990469085515212,0.0035017926647871534
1469.1763195361457,1469.1763195361457,1.0019423585652247,0.003498726205663834
1469.183263988763,1469.183263988763,0.9955668908496416,0.0034966386301319673
1469.1902084413803,1469.1902084413803,0.9971459229805337,0.0034950326298405438
1469.197152893904,1469.197152893904,1.0014218915241462,0.0034977811216298227
1469.2040973460557,1469.2040973460557,1.0020251363247372,0.003504978780148823
1469.211041798487,1469.211041798487,0.9980821388925198,0.003497274700150874
1469.2179862506384,1469.2179862506384,0.9998559360968526,0.0034997552839107935
1469.2249307023244,1469.2249307023244,1.0002502541575649,0.003504400840504926
1469.2318751542898,1469.2318751542898,1.0033589918054273,0.003506544027514093
1469.2388196058828,1469.2388196058828,0.9972020359657279,0.003509698652170673
1469.245764057569,1469.245764057569,1.0063981068469274,0.0035141097684335243
1469.2527085089755,1469.2527085089755,0.9963433640664958,0.003506504847259292
1469.2596529603818,1469.2596529603818,0.9983555578322785,0.0035071976523259355
1469.2665974115084,1469.2665974115084,0.996068470489862,0.0035173589988524235
1469.2735418625427,1469.2735418625427,0.9991904280936682,0.0035124767798379135
1469.280486313484,1469.280486313484,0.9980866575500972,0.0035055940324908086
1469.2874307643317,1469.2874307643317,1.0018543713069223,0.003507900261696028
1469.2943752150866,1469.2943752150866,0.9993799899684394,0.0035127996061987015
1469.3013196657478,1469.3013196657478,1.0040821534986664,0.003514533319701755
1469.3082641161297,1469.3082641161297,1.0040793855370906,0.0035070438522629014
1469.3152085665122,1469.3152085665122,1.0000019121160832,0.0035109696580673277
1469.322153016708,1469.322153016708,0.9995840309413568,0.0035098833539040997
1469.3290974668105,1469.3290974668105,0.9990999541507144,0.0035049518745644817
1469.336041916727,1469.336041916727,0.9958142820674467,0.0035025348426344443
1469.3429863667366,1469.3429863667366,0.9978839634861221,0.0035006790002894716
1469.349930816467,1469.349930816467,1.0025355896516295,0.0035051928322438067
1469.3568752658246,1469.3568752658246,0.998578386024916,0.0035036501954723563
1469.3638197154617,1469.3638197154617,0.9977323627488583,0.0034996042446173168
1469.3707641647263,1469.3707641647263,1.0009759703770862,0.0034998080942293544
1469.3777086138975,1469.3777086138975,1.0042163921250622,0.003504320903435459
1469.384653063069,1469.384653063069,1.000199049153589,0.0035059635800971135
1469.391597512054,1469.391597512054,1.0023204097873213,0.003500877687395284
1469.398541960853,1469.398541960853,0.9994709769388628,0.003506763594608167
1469.4054864095585,1469.4054864095585,1.002045868097237,0.003506120559048865
1469.4124308582643,1469.4124308582643,1.001127174249641,0.003509383336197171
1469.4193753066907,1469.4193753066907,0.9965775191783669,0.003510949941878225
1469.426319755117,1469.426319755117,1.0016979032289344,0.0035103599347673445
1469.4332642032641,1469.4332642032641,0.9961707469823875,0.0035097105371719355
1469.440208651504,1469.440208651504,0.9961787721132869,0.00350952114423242
1469.4471530994647,1469.4471530994647,0.9999078459506603,0.0035086404327110366
1469.4540975473321,1469.4540975473321,1.0012379214769502,0.0035089967834695105
1469.4610419949202,1469.4610419949202,0.9972592530223657,0.0035087041872975274
1469.467986442788,1469.467986442788,1.0038041828315918,0.003508721851544184
1469.4749308901899,1469.4749308901899,1.000245860613031,0.0035041162816961124
1469.4818753375916,1469.4818753375916,0.9996600090756326,0.003505282899799496
1469.4888197848072,1469.4888197848072,1.0001185213849724,0.0035023260781395214
1469.4957642319298,1469.4957642319298,1.003729212989405,0.0035010896425032695
1469.5027086788664,1469.5027086788664,1.0018255411550032,0.0035060339720561647
1469.5096531257093,1469.5096531257093,0.9974546192348029,0.0035030460513070906
1469.5165975725522,1469.5165975725522,1.0008561265362699,0.003506025729341856
1469.523542019209,1469.523542019209,1.0011116894289678,0.003505531657299191
1469.5304864656794,1469.5304864656794,1.0008173002745466,0.00350199755984284
1469.537430912057,1469.537430912057,0.9927892934046822,0.003501197375459358
1469.5443753582483,1469.5443753582483,1.003329200118534,0.003504756270499003
1469.5513198045323,1469.5513198045323,0.9975987865006047,0.0035057990163163003
1469.5582642505374,1469.5582642505374,0.9971217139226475,0.0035013422984308804
1469.565208696449,1469.565208696449,0.9998191197677724,0.0034988400708644064
1469.5721531422678,1469.5721531422678,0.9994706874547964,0.003506261814738233
1469.5790975879002,1469.5790975879002,1.0075361576761694,0.0035018102566491995
1469.5860420334393,1469.5860420334393,1.0011654639954253,0.0035030719487619496
1469.5929864787925,1469.5929864787925,1.0035080231835245,0.0035034771778358785
1469.5999309241452,1469.5999309241452,0.996884071724866,0.0035004205486364737
1469.606875369405,1469.606875369405,0.9990692678581375,0.0034968181606338097
1469.6138198144788,1469.6138198144788,0.9991975395091066,0.003501271639301414
1469.6207642591799,1469.6207642591799,0.9979006828508817,0.0035064416695218745
1469.6277087040673,1469.6277087040673,0.9977892575965536,0.0035074717822694912
1469.6346531487682,1469.6346531487682,0.999153381043787,0.00350276181097038
1469.6415975932828,1469.6415975932828,0.99910801453807,0.0035019095454523613
1469.6485420377046,1469.6485420377046,1.0023101350126522,0.003507473759255459
1469.65548648194,1469.65548648194,1.0005766548996629,0.003501151332464459
1469.6624309261754,1469.6624309261754,1.0066416347205283,0.003505518213016503
1469.6693753703178,1469.6693753703178,0.9965198807057705,0.0034980143205143657
1469.6763198141803,1469.6763198141803,0.99727773947094,0.00350781423995498
1469.6832642580434,1469.6832642580434,0.9989279825423159,0.0034997106408635008
1469.6902087017202,1469.6902087017202,1.0018737588232696,0.0035074110101292097
1469.6971531453037,1469.6971531453037,1.0019416556272955,0.003503859548479215
1469.7040975887937,1469.7040975887937,0.9982579551875357,0.0035088800739760404
1469.7110420320973,1469.7110420320973,0.9986173423519519,0.003505109138931057
1469.7179864753084,1469.7179864753084,1.005190606828786,0.0035059765935515734
1469.7249309184265,1469.7249309184265,0.9965279655629201,0.0035063932720747573
1469.731875361358,1469.731875361358,0.998316883181289,0.003506419824340081
1469.738819804383,1469.738819804383,0.9975085170425189,0.0035151132443751454
1469.745764247128,1469.745764247128,1.003393785271067,0.003509362827131049
1469.7527086894074,1469.7527086894074,1.0016555021642746,0.003510237146696615
1469.75965313206,1469.75965313206,0.9988540895051272,0.003511492214554525
1469.7665975744326,1469.7665975744326,1.0002200990009327,0.0035116109252516124
1469.7735420166189,1469.7735420166189,0.9955704662836553,0.0035097458211215903
1469.7804864587122,1469.7804864587122,1.004278774168448,0.0035052778587789553
1469.7874309008055,1469.7874309008055,0.9997896978874221,0.003509049781976469
1469.7943753426193,1469.7943753426193,1.0006973815616858,0.003502691953996834
1469.8013197843406,1469.8013197843406,0.9962583843894418,0.003500651955810369
1469.8082642258753,1469.8082642258753,1.001340043599008,0.003499744325455599
1469.815208667503,1469.815208667503,1.0001450341257052,0.0035057503266106857
1469.822153108851,1469.822153108851,1.0039159584560293,0.00350223587737688
1469.8290975501059,1469.8290975501059,1.0016780601042308,0.0035019574845115155
1469.836041991361,1469.836041991361,0.9990894907319238,0.0035050421572843235
1469.842986432337,1469.842986432337,0.9991586860948196,0.0035044357699220083
1469.8499308732198,1469.8499308732198,0.9984898741494638,0.0035154960564694774
1469.8568753139164,1469.8568753139164,0.9972412540072823,0.0035061101610175823
1469.8638197547052,1469.8638197547052,1.0017792153237153,0.003510588526171666
1469.8707641951225,1469.8707641951225,0.9997793950492195,0.003505910771275607
1469.8777086355394,1469.8777086355394,0.9994150691594289,0.0035095820854049407
1469.8846530759565,1469.8846530759565,0.9996638169492726,0.003511394257702894
1469.891597516001,1469.891597516001,0.9996884497567642,0.0035106908495151946
1469.8985419561384,1469.8985419561384,1.0030391720785754,0.0035134860540743376
1469.9054863959964,1469.9054863959964,0.9993968958333816,0.0035145810767647986
1469.9124308358548,1469.9124308358548,1.0012022324517715,0.0035168950293873805
1469.9193752755266,1469.9193752755266,1.001637616201705,0.0035105303619379228
1469.9263197151056,1469.9263197151056,0.9979025866612495,0.0035097760758848887
1469.9332641545911,1469.9332641545911,0.9980836801336537,0.003516803878733622
1469.9402085937975,1469.9402085937975,0.9980399141109633,0.003515184874783542
1469.9471530330968,1469.9471530330968,1.0018139460386064,0.0035107899673475678
1469.9540974721165,1469.9540974721165,0.9977602026430356,0.0035116530337228036
1469.9610419110436,1469.9610419110436,1.001823593586745,0.003511971324518145
1469.9679863499707,1469.9679863499707,1.0007250211469618,0.003512500919652711
1469.974930788618,1469.974930788618,1.0022890125097237,0.0035103685826155828
1469.9818752272654,1469.9818752272654,1.0025490065812803,0.0035110072232761103
1469.9888196657264,1469.9888196657264,0.9954119794748596,0.0035041785281514316
1469.9957641040014,1469.9957641040014,0.9959562868567741,0.0035032875757198415
1470.0027085423699,1470.0027085423699,1.001922761494128,0.0035046178354700397
1470.0096529806447,1470.0096529806447,1.0002832433451123,0.0035045198747451997
1470.0165974182678,1470.0165974182678,1.0011152562265542,0.0035072592760130314
1470.0235418563557,1470.0235418563557,1.0007513945156172,0.0035034457283378588
1470.030486294072,1470.030486294072,1.0024140402710404,0.0034993172458673513
1470.0374307316954,1470.0374307316954,0.9985843006823993,0.0035034939436143207
1470.044375169225,1470.044375169225,1.0012872988346206,0.0035026722302849353
1470.0513196065688,1470.0513196065688,0.9992066791585728,0.0035016444226223463
1470.0582640438197,1470.0582640438197,0.9994312685437967,0.0035008420146473416
1470.0652084810695,1470.0652084810695,0.9988962869523268,0.0035013764804104814
