time,time,flux,flux_err
1325.2991638182095,1325.2991638182095,0.9998035876294455,0.00036506990943347187
1325.307497109273,1325.307497109273,0.9999335553347414,0.00036523857832703344
1325.3158304006158,1325.3158304006158,1.0001081932775033,0.0003653426645608503
1325.323469251252,1325.323469251252,1.0006789600993504,0.00033359284702251166
1325.3304136611246,1325.3304136611246,0.9997273901598145,0.00033350875229449015
1325.3373580711864,1325.3373580711864,1.000014294652076,0.0003336526618721521
1325.3443024814353,1325.3443024814353,0.9999793391379127,0.0003337184926388281
1325.3512468918675,1325.3512468918675,1.0001671114297586,0.0003338309958616034
1325.358191302486,1325.358191302486,1.0000329285587568,0.0003339213379620531
1325.3651357132844,1325.3651357132844,0.9997349185677631,0.0003339932293799499
1325.372080124263,1325.372080124263,0.9996896080951727,0.0003341215609587699
1325.3790245354216,1325.3790245354216,1.0001319334015506,0.0003342954722220817
1325.3859689467577,1325.3859689467577,0.9998973512146699,0.00033438281440862147
1325.3929133582665,1325.3929133582665,0.9997936983738602,0.00033446599010702956
1325.3998577699508,1325.3998577699508,1.0003050878671267,0.0003345991496874277
1325.4068021818057,1325.4068021818057,1.0001308673700693,0.0003347076551429509
1325.4137465938322,1325.4137465938322,1.0003317773742026,0.0003348738262683051
1325.4206910060277,1325.4206910060277,0.9997059070794121,0.0003348315381146534
1325.427635418388,1325.427635418388,0.9995661480795951,0.0003349476946587268
1325.4345798309162,1325.4345798309162,1.0001466488469224,0.0003351088861976125
1325.4415242436085,1325.4415242436085,1.0003765900099828,0.0003352342368740105
1325.448468656461,1325.448468656461,1.000148393243824,0.00033531104681431455
1325.4554130694764,1325.4554130694764,0.9998689876642233,0.0003354429356052321
1325.4623574826498,1325.4623574826498,1.0000080079497926,0.00033552739382432364
1325.4693018959808,1325.4693018959808,1.0001949604429496,0.0003357134279646791
1325.476246309467,1325.476246309467,0.9998156919504861,0.000335767475562212
1325.4831907231078,1325.4831907231078,1.0000704974149666,0.00033589224756689517
1325.4901351369037,1325.4901351369037,0.9991581194545587,0.00033593425888394426
1325.497079550848,1325.497079550848,1.0003349926285843,0.00033620785241495437
1325.5040239649431,1325.5040239649431,1.0002532649590445,0.0003363551643542468
1325.5109683791868,1325.5109683791868,1.000293006936169,0.00033644355808399597
1325.5179127935771,1325.5179127935771,0.9998880770994927,0.0003365392649164067
1325.5248572081114,1325.5248572081114,0.999717370193966,0.0003366790294625134
1325.531801622791,1325.531801622791,0.9998376565065513,0.00033686060641078505
1325.5387460376112,1325.5387460376112,1.0002791617020743,0.0003370555294800031
1325.5456904525745,1325.5456904525745,1.0001367610570628,0.00033715980240296364
1325.5526348676754,1325.5526348676754,1.000320646952429,0.0003373037652386504
1325.5595792829167,1325.5595792829167,0.9996465745307919,0.00033735285459248116
1325.5665236982918,1325.5665236982918,0.9999543475308353,0.000337572531097448
1325.5734681138026,1325.5734681138026,0.9999441083117399,0.00033768815856417215
1325.580412529446,1325.580412529446,1.000008120349431,0.0003377678813888263
1325.5873569452228,1325.5873569452228,0.9999218619401962,0.00033786570100959647
1325.5943013611281,1325.5943013611281,0.9997813861417754,0.0003379124070787683
1325.6012457771656,1325.6012457771656,0.9997250725956077,0.0003379749370899028
1325.6081901933296,1325.6081901933296,1.0005204712619722,0.00033819056893209586
1325.6151346096221,1325.6151346096221,1.000212981450003,0.0003382071563447843
1325.6220790260377,1325.6220790260377,0.9994817474435598,0.00033811447920873284
1325.6290234425803,1325.6290234425803,1.0002438466436012,0.000338238205253378
1325.6359678592453,1325.6359678592453,1.000327311322139,0.0003383188781245289
1325.6429122760278,1325.6429122760278,1.0000616204151784,0.0003382965658837857
1325.6498566929345,1325.6498566929345,1.000075483537739,0.00033832923812489524
1325.6568011099566,1325.6568011099566,0.9994751605104909,0.00033828070999148785
1325.6637455271016,1325.6637455271016,1.000418795484849,0.00033844257050702226
1325.6706899443602,1325.6706899443602,1.0001267177130397,0.0003384333610042988
1325.677634361734,1325.677634361734,1.0006373191442115,0.0003385078936637805
1325.6845787792192,1325.6845787792192,0.9996214106164002,0.0003384094575934424
1325.6915231968196,1325.6915231968196,0.9995828730554861,0.0003384452027523182
1325.6984676145294,1325.6984676145294,0.9999756738925253,0.00033849676756114646
1325.7054120323508,1325.7054120323508,0.9998770631102811,0.0003385042488766983
1325.7123564502817,1325.7123564502817,0.9996506702810267,0.0003385585209558904
1325.719300868317,1325.719300868317,0.9999876366691257,0.00033860176943249244
1325.726245286462,1325.726245286462,1.0008020028456566,0.000338795359526951
1325.7331897047097,1325.7331897047097,1.0001737629601546,0.00033875923981820485
1325.7401341230654,1325.7401341230654,1.000432786534782,0.0003389102891899822
1325.7470785415244,1325.7470785415244,0.9999144952794863,0.00033886581183747186
1325.7540229600827,1325.7540229600827,0.9999685724510936,0.0003389563051502055
1325.7609673787438,1325.7609673787438,0.9994473664571075,0.00033896141472718525
1325.7679117975038,1325.7679117975038,0.9996087136758449,0.0003390776370102175
1325.7748562163615,1325.7748562163615,0.9998838206382403,0.0003391910239040303
1325.7818006353195,1325.7818006353195,1.0001129739827914,0.0003393136324944995
1325.788745054374,1325.788745054374,1.0004911485707353,0.00033942200974583037
1325.7956894735228,1325.7956894735228,1.000047416901463,0.0003394771537375863
1325.8026338927662,1325.8026338927662,1.0001893994904085,0.00033950318773737014
1325.8095783121043,1325.8095783121043,1.0000933857355898,0.000339570165495186
1325.8165227315335,1325.8165227315335,0.9995927926912369,0.0003395405586459715
1325.8234671510565,1325.8234671510565,0.9998519457395689,0.00033958054243199464
1325.830411570668,1325.830411570668,1.0000559247663259,0.00033963003117673085
1325.8373559903698,1325.8373559903698,0.9997298600056617,0.00033961025598456786
1325.8443004101587,1325.8443004101587,1.0002455700704813,0.0003397386155821588
1325.8512448300376,1325.8512448300376,1.0000653424507153,0.00033969310637564567
1325.858189250003,1325.858189250003,1.0004068139622473,0.00033971130365231095
1325.8651336700525,1325.8651336700525,1.000331558062975,0.0003396497843840505
1325.872078090188,1325.872078090188,0.9997966364314831,0.00033953323211683816
1325.8790225104094,1325.8790225104094,0.9997499584672205,0.00033944371023214104
1325.8859669307092,1325.8859669307092,0.9996571399878453,0.0003393349554873995
1325.8929113510933,1325.8929113510933,0.9999032904392948,0.0003393763298013511
1325.899855771559,1325.899855771559,0.9999353691048531,0.0003393307479721247
1325.9068001921048,1325.9068001921048,1.000102657165797,0.0003392662170422947
1325.9137446127306,1325.9137446127306,1.0002871611229343,0.0003392311675081283
1325.9206890334333,1325.9206890334333,0.9998070819728623,0.0003391498087518827
1325.9276334542137,1325.9276334542137,0.9999602626361547,0.00033914216882990905
1325.934577875072,1325.934577875072,1.0000973079115523,0.0003391562666506706
1325.9415222960065,1325.9415222960065,1.0000234231522924,0.00033906687434843866
1325.9484667170166,1325.9484667170166,1.0002352844838487,0.00033911317550588895
1325.955411138102,1325.955411138102,1.0002256339992985,0.00033907722869622815
1325.9631888898034,1325.9631888898034,1.0005266615792605,0.0003391812318683374
1325.9706888647456,1325.9706888647456,0.9998003190822422,0.00033905149429507627
1325.9776332860597,1325.9776332860597,1.0001910664894003,0.0003390867377408169
1325.9845777074465,1325.9845777074465,0.999500222075705,0.0003390535387898098
1325.9915221289045,1325.9915221289045,0.999792640653693,0.0003390858433310141
1325.9984665504314,1325.9984665504314,1.000192024241961,0.0003391528347072104
1326.0054109720274,1326.0054109720274,0.999936704799075,0.0003391781057690825
1326.0123553936912,1326.0123553936912,1.0000704915774574,0.00033925080176800115
1326.0192998154241,1326.0192998154241,1.000032867565246,0.00033938675400730517
1326.026244237223,1326.026244237223,0.9998033020038394,0.00033940147763506423
1326.0331886590843,1326.0331886590843,0.9999850972484579,0.0003394441805890628
1326.0401330810123,1326.0401330810123,1.0002986484651801,0.0003394826719618841
1326.0470775030076,1326.0470775030076,1.0001490903407528,0.0003394241257421497
1326.054021925065,1326.054021925065,0.9999387937005043,0.0003393921251958918
1326.060966347184,1326.060966347184,0.9996183946552168,0.00033939688797596354
1326.067910769367,1326.067910769367,0.999965457171727,0.00033946659584070356
1326.074855191609,1326.074855191609,0.9999983967859933,0.0003394698378966643
1326.0817996139147,1326.0817996139147,1.0002906118692931,0.00033951654768148084
1326.088744036279,1326.088744036279,0.9999570381379886,0.00033947354435297976
1326.0956884587067,1326.0956884587067,1.0004949778639374,0.00033964307248512347
1326.1026328811877,1326.1026328811877,1.0000564316231988,0.00033953973356145743
1326.1095773037312,1326.1095773037312,0.9995095477679193,0.0003394846440146847
1326.1165217263333,1326.1165217263333,0.9998025939040088,0.00033952913532182816
1326.1234661489889,1326.1234661489889,0.9998360352103383,0.00033959292044803105
1326.1304105717034,1326.1304105717034,1.0006526225511774,0.0003396628641622022
1326.1373549944708,1326.1373549944708,0.9995439771723491,0.00033955585508534315
1326.1442994172983,1326.1442994172983,0.9999006075622809,0.0003395725554853933
1326.151243840177,1326.151243840177,0.9999904747782977,0.0003395815622709125
1326.1581882631106,1326.1581882631106,0.9999617458342958,0.0003395551971213394
1326.1651326860997,1326.1651326860997,1.0001694073070013,0.00033959608177309335
1326.1720771091382,1326.1720771091382,0.9998701391288783,0.00033956729039578477
1326.1790215322303,1326.1790215322303,1.000282187279146,0.0003395703004137916
1326.1859659553763,1326.1859659553763,0.9998421963737438,0.00033955148636417723
1326.1929103785703,1326.1929103785703,0.9999780166440944,0.0003395759586554984
1326.1998548018175,1326.1998548018175,1.0004721110764556,0.00033965710408449915
1326.2067992251134,1326.2067992251134,0.9999520453336018,0.0003395062604409049
1326.2137436484604,1326.2137436484604,1.0004729987436949,0.0003395955198843679
1326.2206880718568,1326.2206880718568,0.9992217235488396,0.00033943942724895136
1326.2276324952986,1326.2276324952986,0.9999307725206472,0.0003395814244960018
1326.2345769187925,1326.2345769187925,0.9997746876835034,0.0003395357522906703
1326.2415213423326,1326.2415213423326,0.9998249747399972,0.0003395184159352053
1326.2484657659174,1326.2484657659174,1.0003194017490142,0.00033961349837693965
1326.255410189552,1326.255410189552,0.9997534441244114,0.0003395530917267308
1326.2623546132297,1326.2623546132297,1.000231894863147,0.0003395699142608598
1326.2692990369535,1326.2692990369535,1.0004727645036793,0.000339611709846113
1326.2762434607225,1326.2762434607225,0.9999848275427551,0.00033948574240102606
1326.2831878845368,1326.2831878845368,0.9995807507661614,0.00033945089577670594
1326.2901323083959,1326.2901323083959,1.0001248571846615,0.00033955169664033223
1326.2970767322943,1326.2970767322943,0.9996188252930613,0.00033948317589327983
1326.3040211562422,1326.3040211562422,1.000040763267854,0.0003395803810841735
1326.3109655802282,1326.3109655802282,1.0005621447630524,0.00033959642685511024
1326.3179100042578,1326.3179100042578,1.000219161042615,0.00033960267573313784
1326.3248544283279,1326.3248544283279,0.9997370446535971,0.0003394867071964873
1326.331798852441,1326.331798852441,0.9999104243755932,0.0003395923367255324
1326.338743276592,1326.338743276592,0.9998056355679139,0.0003396009084271604
1326.3462432547271,1326.3462432547271,0.9998106515530478,0.0003396381267262954
1326.3554098947247,1326.3554098947247,0.9998773485371958,0.00033970202204286205
1326.3623543190138,1326.3623543190138,1.000325746488792,0.00033979260348430913
1326.3692987433428,1326.3692987433428,0.9997868102918568,0.0003397115065813561
1326.3762431677067,1326.3762431677067,1.000556322727269,0.00033988675261076106
1326.3831875921119,1326.3831875921119,0.9999267165112382,0.00033986776585783043
1326.3901320165546,1326.3901320165546,0.9997358394568747,0.0003398069998890191
1326.3970764410337,1326.3970764410337,1.0003498504634816,0.0003399573758321992
1326.4040208655492,1326.4040208655492,0.9995246144405897,0.0003398911284503944
1326.4109652901013,1326.4109652901013,1.0003175592915499,0.00034000219059933726
1326.4179097146896,1326.4179097146896,1.0000879995024448,0.00034002595558786815
1326.424854139314,1326.424854139314,0.9997285500236858,0.0003399837353905796
1326.431798563975,1326.431798563975,1.000380849718626,0.00034011065639559675
1326.4387429886667,1326.4387429886667,0.9997670390091153,0.0003400034657987151
1326.4456874133994,1326.4456874133994,0.9994636278675078,0.00034007716314494443
1326.4526318381618,1326.4526318381618,1.0003280406658581,0.0003401811911622176
1326.4595762629583,1326.4595762629583,0.9999791812271663,0.0003401654159884039
1326.4665206877867,1326.4665206877867,1.0003495622832326,0.0003402586484139116
1326.4734651126514,1326.4734651126514,1.0003680095601584,0.00034025458170766404
1326.4804095375487,1326.4804095375487,1.0002783780953883,0.0003402633713658067
1326.4873539624784,1326.4873539624784,0.9997055196878171,0.0003402611426314572
1326.4942983874366,1326.4942983874366,0.9999344752208881,0.0003402878089818801
1326.5012428124292,1326.5012428124292,0.9997578843112013,0.0003403290130095058
1326.5081872374526,1326.5081872374526,1.000085179507136,0.0003403710204025787
1326.5151316625065,1326.5151316625065,1.0000634753062798,0.0003404655675659667
1326.5220760875927,1326.5220760875927,1.0002055217029908,0.00034047881780895
1326.5290205127076,1326.5290205127076,0.9998234878150564,0.00034050397888730664
1326.5359649378547,1326.5359649378547,1.000275424029573,0.00034059259808210285
1326.542909363028,1326.542909363028,0.9996194073599268,0.00034058174904933185
1326.5498537882333,1326.5498537882333,1.0003320073430275,0.0003406974366732902
1326.556798213466,1326.556798213466,1.0001316095175121,0.00034071873852332724
1326.5637426387282,1326.5637426387282,0.9995573081866922,0.0003406497859287337
1326.5706870640195,1326.5706870640195,1.000343217769118,0.000340751391040702
1326.577631489337,1326.577631489337,1.0002918943872108,0.0003408037460657437
1326.5845759146828,1326.5845759146828,0.9995991104910822,0.00034075885751532045
1326.5915203400573,1326.5915203400573,0.9993546522577523,0.0003406634194393334
1326.5984647654575,1326.5984647654575,1.0003351011395716,0.0003408663578063495
1326.6054091908857,1326.6054091908857,1.0001390338240574,0.00034090048537901047
1326.6123536163414,1326.6123536163414,1.0000130077707532,0.0003408761113998826
1326.6192980418211,1326.6192980418211,1.0002844363848065,0.0003409178121627649
1326.626242467328,1326.626242467328,0.9999315779199508,0.00034088525367005244
1326.6331868928603,1326.6331868928603,0.9999695346295973,0.00034087583057190724
1326.640131318418,1326.640131318418,0.9998188093164464,0.00034089764157457184
1326.647075744,1326.647075744,0.9998948155621037,0.0003408771764820138
1326.6540201696087,1326.6540201696087,0.9999876500627447,0.00034082531341846675
1326.6609645952403,1326.6609645952403,1.0000000794303054,0.0003408073221906987
1326.667909020895,1326.667909020895,1.0000233966126786,0.0003408075191703007
1326.6748534465764,1326.6748534465764,1.0000407216758804,0.0003408063728706636
1326.6817978722806,1326.6817978722806,1.0005722134763597,0.0003408133309783856
1326.689853406128,1326.689853406128,1.0000154940728685,0.00034075325291585347
1326.697075608914,1326.697075608914,0.9998662034905033,0.0003406393385069549
1326.7040200346928,1326.7040200346928,0.9997274715082838,0.00034058877859214156
1326.7115200145581,1326.7115200145581,0.9997284794306728,0.00034055855769226566
1326.7192977714851,1326.7192977714851,1.0000738359687154,0.0003405724441554854
1326.726242197335,1326.726242197335,0.9997908265777415,0.00034053072850632007
1326.7331866232082,1326.7331866232082,1.000351210278684,0.00034056655798553385
1326.7401310491007,1326.7401310491007,1.0002005089855006,0.00034049242454755306
1326.747075475014,1326.747075475014,0.9999154882096338,0.00034044620989591553
1326.7540199009495,1326.7540199009495,1.0001004080891218,0.00034046092142932905
1326.7609643269093,1326.7609643269093,0.9996162160264758,0.0003403085242149049
1326.7679087528873,1326.7679087528873,0.999773147109343,0.0003402837466226145
1326.7748531788852,1326.7748531788852,0.999715105196205,0.00034025632716470005
1326.7817976049014,1326.7817976049014,1.0005976967601127,0.0003403917867968372
1326.7887420309419,1326.7887420309419,0.9996830490317326,0.000340299694289839
1326.7956864569983,1326.7956864569983,1.0001461329336103,0.0003403386288948722
1326.8026308830783,1326.8026308830783,1.000665023574441,0.00034043224420163737
1326.8095753091725,1326.8095753091725,0.9998816199768642,0.00034037012567817
1326.8165197352887,1326.8165197352887,1.0005366261591475,0.00034041946321718836
1326.8234641614254,1326.8234641614254,0.9992969654483256,0.00034020659551563617
1326.8304085875793,1326.8304085875793,0.9997909027340839,0.00034031429445616944
1326.837353013751,1326.837353013751,0.9999143208084421,0.00034035107834043003
1326.84429743994,1326.84429743994,0.999867205984464,0.0003403001377822109
1326.851241866148,1326.851241866148,1.0005230505872602,0.0003403977463119272
1326.858186292375,1326.858186292375,0.9997721361682288,0.00034024951270033
1326.8651307186178,1326.8651307186178,0.9999633887667164,0.00034027115398732783
1326.872075144878,1326.872075144878,0.9994813674949512,0.0003402040421328012
1326.8790195711556,1326.8790195711556,1.0005871573104255,0.0003402944170409128
1326.885963997451,1326.885963997451,0.9998792579099032,0.00034011547743726495
1326.8929084237648,1326.8929084237648,1.0005177021598552,0.0003401848098756963
1326.899852850091,1326.899852850091,1.0002791829764013,0.00034005612554318147
1326.9067972764356,1326.9067972764356,0.9996795124966729,0.0003399052252221827
1326.9137417027976,1326.9137417027976,0.9994314314335435,0.00033970443557821984
1326.9206861291746,1326.9206861291746,1.0003730976272551,0.00033974177068112125
1326.9276305555657,1326.9276305555657,0.9991402498014399,0.0003394920188523008
1326.9345749819745,1326.9345749819745,1.0003943730908864,0.0003395877122879708
1326.9415194083977,1326.9415194083977,1.0000538500396792,0.0003394343367473191
1326.9484638348385,1326.9484638348385,1.000257687896727,0.0003393941963421981
1326.9554082612924,1326.9554082612924,1.0001376624166336,0.0003393079752229227
1326.9623526877608,1326.9623526877608,1.0004608979556482,0.00033929501767472186
1326.9692971142451,1326.9692971142451,1.0001028946838026,0.000339125899963411
1326.9762415407408,1326.9762415407408,1.0002666968417526,0.0003391284816074402
1326.983185967255,1326.983185967255,0.9998201402243243,0.00033893628228671936
1326.990130393781,1326.990130393781,0.9998362155666968,0.0003389446231511882
1326.9970748203211,1326.9970748203211,0.9989642566428133,0.0003387748697075371
1327.0040192468766,1327.0040192468766,1.000108691958217,0.000338945051262831
1327.0109636734455,1327.0109636734455,1.0002012118311345,0.00033891369859057686
1327.017908100026,1327.017908100026,0.9999371060324853,0.00033888642860554845
1327.0248525266193,1327.0248525266193,1.0003073585063504,0.000338912612658804
1327.0317969532277,1327.0317969532277,0.9998149547306374,0.00033887525620902636
1327.0387413798485,1327.0387413798485,1.0001517578929289,0.00033893837446300347
1327.045685806483,1327.045685806483,0.999829788922393,0.0003388880079191771
1327.0526302331289,1327.0526302331289,0.999458964557878,0.00033883410648480333
1327.0604079909888,1327.0604079909888,0.9999846482760525,0.00033894138997386027
