time,time,flux,flux_err
1325.2988195170308,1325.2988195170308,1.0000169937237173,0.00025083242861474264
1325.3071528449757,1325.3071528449757,1.0000180368616232,0.00025091272670899875
1325.3154861732219,1325.3154861732219,1.0000294890308232,0.00025096852536864053
1325.323125057695,1325.323125057695,0.9999254492437878,0.0002291305116215686
1325.3300694983295,1325.3300694983295,0.9997697058126196,0.0002291423401247268
1325.337013939162,1325.337013939162,1.0003083055692084,0.0002292523716379856
1325.343958380187,1325.343958380187,0.9997827772720933,0.00022923991367373287
1325.3509028213978,1325.3509028213978,1.000421328776119,0.00022934311979470176
1325.3578472627948,1325.3578472627948,0.9999681410434273,0.00022937568568444188
1325.3647917043843,1325.3647917043843,0.9997795630327317,0.00022941900933380594
1325.3717361461481,1325.3717361461481,0.9998898044903995,0.00022947842943455806
1325.3786805880925,1325.3786805880925,1.0003357997811173,0.00022960099635862177
1325.385625030229,1325.385625030229,0.9998972528748045,0.00022962446551908923
1325.3925694725342,1325.3925694725342,0.9999403539983447,0.0002296582036119315
1325.3995139150254,1325.3995139150254,0.999842835383651,0.00022971130359772298
1325.406458357692,1325.406458357692,0.999917134204423,0.0002297429249208352
1325.4134028005205,1325.4134028005205,1.000147737081208,0.00022986092257380186
1325.4203472435304,1325.4203472435304,0.9999697805398531,0.0002299092517544108
1325.4272916867026,1325.4272916867026,0.9999858643726964,0.0002299592205281662
1325.4342361300558,1325.4342361300558,1.000062734384196,0.0002300180722322901
1325.4411805735658,1325.4411805735658,1.000077289035187,0.00023006728921032816
1325.448125017239,1325.448125017239,1.0001225850620892,0.00023014178473929498
1325.4550694610748,1325.4550694610748,0.9998512862543041,0.0002301651847668597
1325.462013905068,1325.462013905068,1.0000468461874426,0.00023022541820468486
1325.468958349236,1325.468958349236,1.0000423666515177,0.0002303122949948186
1325.4759027935438,1325.4759027935438,0.9996764766487793,0.00023031774216825335
1325.482847238014,1325.482847238014,1.0003145650575487,0.00023046028949677013
1325.4897916826421,1325.4897916826421,0.9998236484704222,0.0002304805432567645
1325.4967361274212,1325.4967361274212,0.999964848359012,0.00023055069916453312
1325.5036805723455,1325.5036805723455,1.0000897472651586,0.00023064965570618163
1325.5106250174217,1325.5106250174217,0.9999248071548568,0.00023070422613750136
1325.5175694626546,1325.5175694626546,1.0001355863429948,0.0002307956260477783
1325.5245139080216,1325.5245139080216,0.9996884697493618,0.0002308255405822621
1325.531458353534,1325.531458353534,1.0003521859392626,0.00023096355704947544
1325.5384027992034,1325.5384027992034,0.999990326551203,0.0002309922612293834
1325.5453472450015,1325.5453472450015,0.9999101695100862,0.0002310688827681635
1325.5522916909445,1325.5522916909445,0.9998492369127462,0.00023114726473643407
1325.5592361370102,1325.5592361370102,1.0003759427099423,0.00023123431651361046
1325.5661805832267,1325.5661805832267,0.9998485826688114,0.00023128053245885706
1325.5731250295717,1325.5731250295717,1.0000340002731876,0.00023136874509650608
1325.5800694760624,1325.5800694760624,0.9997235790655326,0.0002313996255481889
1325.5870139226745,1325.5870139226745,0.9999528631765202,0.00023148712562401182
1325.593958369415,1325.593958369415,1.0004196991704823,0.0002316018516019397
1325.6009028162898,1325.6009028162898,0.999743066687525,0.00023157680192623212
1325.607847263298,1325.607847263298,1.0002648900846214,0.00023167393264680712
1325.614791710423,1325.614791710423,1.000178808892049,0.00023170208504009977
1325.6217361576814,1325.6217361576814,0.9997559562072784,0.00023169004934840386
1325.628680605051,1325.628680605051,0.9998597308385604,0.00023174641836578455
1325.6356250525482,1325.6356250525482,1.0000192732181692,0.0002317882367023518
1325.642569500162,1325.642569500162,0.9997743303204807,0.0002317720315459767
1325.649513947898,1325.649513947898,1.0001845735657795,0.00023184683798831363
1325.6564583957563,1325.6564583957563,0.999498623725839,0.00023180055136091206
1325.663402843731,1325.663402843731,1.0002895654420807,0.00023189037637076412
1325.670347291816,1325.670347291816,1.0000731629083537,0.00023187561644605692
1325.6772917400294,1325.6772917400294,1.0001006107248736,0.00023191501896539798
1325.684236188336,1325.684236188336,1.0002613664080653,0.00023195836126913686
1325.6911806367586,1325.6911806367586,1.0002153166664836,0.0002320082345763052
1325.6981250852982,1325.6981250852982,0.9998691510561539,0.00023201185005343903
1325.7050695339365,1325.7050695339365,1.000052438758443,0.00023205871762453658
1325.7120139826907,1325.7120139826907,0.9999600266111063,0.00023211609756417702
1325.718958431562,1325.718958431562,0.9997193217330939,0.0002321266476202951
1325.7259028805145,1325.7259028805145,0.99997650086818,0.00023219999067509737
1325.7328473295834,1325.7328473295834,0.9995677679153465,0.00023217936380085197
1325.7397917787632,1325.7397917787632,1.0000818074375362,0.00023228168838892923
1325.7467362280295,1325.7467362280295,1.0000612433121083,0.00023231849416774017
1325.7536806773956,1325.7536806773956,1.0001832910469615,0.0002323743118273795
1325.7606251268721,1325.7606251268721,0.9999832606703254,0.00023242210454802646
1325.7675695764472,1325.7675695764472,1.0000236383801338,0.00023245095324907634
1325.77451402611,1325.77451402611,1.0000063913867225,0.00023249252292781522
1325.7814584758773,1325.7814584758773,1.0005674523947983,0.00023260094053865224
1325.7884029257264,1325.7884029257264,1.0001208673633686,0.00023259990414356563
1325.7953473756802,1325.7953473756802,0.9999923811706106,0.0002326297322505376
1325.802291825727,1325.802291825727,0.9995687003896376,0.0002326273882224797
1325.8092362758614,1325.8092362758614,1.000298673403004,0.00023273637403256972
1325.8161807260883,1325.8161807260883,0.9998682687320806,0.00023271753233330012
1325.8231251764148,1325.8231251764148,1.000277557273795,0.00023276661129931485
1325.8300696268109,1325.8300696268109,0.9997585309609933,0.00023273225672903065
1325.8370140773,1325.8370140773,0.9998883967056692,0.00023277793219955785
1325.8439585278825,1325.8439585278825,0.9999210667515696,0.00023276615455815542
1325.850902978546,1325.850902978546,1.0000356476528305,0.00023279799738845742
1325.8578474292976,1325.8578474292976,1.0002475681889327,0.00023280290544955233
1325.8647918801241,1325.8647918801241,0.999906477011794,0.0002327360175797535
1325.8717363310502,1325.8717363310502,0.999969347954187,0.00023269148272320257
1325.87868078204,1325.87868078204,0.9998596330312454,0.00023263438896347906
1325.885625233123,1325.885625233123,1.0001822325747871,0.0002326234894640115
1325.8925696842812,1325.8925696842812,1.0007767377151044,0.0002326703692338775
1325.8995141355217,1325.8995141355217,0.9998417883954607,0.00023255266619213525
1325.9064585868255,1325.9064585868255,0.9997143787268585,0.0002325127173000277
1325.913403038223,1325.913403038223,1.000123434862904,0.00023251493990302758
1325.92034748969,1325.92034748969,0.9996757281734354,0.00023247274770980066
1325.9272919412388,1325.9272919412388,1.0002747724048255,0.00023250551533486515
1325.934236392851,1325.934236392851,0.9998408730339307,0.00023244080815045405
1325.9411808445454,1325.9411808445454,0.9999585634553776,0.0002324336096274899
1325.9481252963094,1325.9481252963094,1.0001836534465038,0.00023244876663357857
1325.9550697481493,1325.9550697481493,0.9999517913518977,0.00023242514973125162
1325.962847534295,1325.962847534295,1.0000072700451408,0.0002324312600380751
1325.9703475424371,1325.9703475424371,1.000049193990651,0.00023241738309762584
1325.9772919944983,1325.9772919944983,1.0000887597610753,0.00023241700949109263
1325.9842364466344,1325.9842364466344,0.9997635446288784,0.00023237599126731462
1325.991180898829,1325.991180898829,1.0001058842244155,0.00023243551156082858
1325.9981253510998,1325.9981253510998,1.0001901403087576,0.00023246156550438073
1326.005069803428,1326.005069803428,0.9996025091918804,0.00023242667539826256
1326.0120142558267,1326.0120142558267,0.9999492553556181,0.00023251178884038187
1326.018958708295,1326.018958708295,0.9999834423664267,0.00023254706235999273
1326.025903160816,1326.025903160816,1.0000914346355216,0.00023260925408552486
1326.0328476134061,1326.0328476134061,1.0004595039606083,0.00023266962146317028
1326.0397920660548,1326.0397920660548,1.0000048528456806,0.00023259793511521795
1326.0467365187794,1326.0467365187794,0.9998435410475157,0.00023259674891217057
1326.053680971556,1326.053680971556,0.9999197352978187,0.00023262094422370653
1326.060625424397,1326.060625424397,1.0001678449621247,0.00023265350752589196
1326.0675698772902,1326.0675698772902,0.999823702263793,0.00023263802396081808
1326.0745143302527,1326.0745143302527,0.9996741627724465,0.0002326347469156552
1326.0814587832633,1326.0814587832633,1.0002681451933912,0.0002327001663218915
1326.0884032363306,1326.0884032363306,0.9997463397171031,0.00023265519239117072
1326.095347689457,1326.095347689457,1.0001284191314515,0.00023272621329905582
1326.102292142647,1326.102292142647,1.0002093312352516,0.00023272525722095694
1326.1092365958834,1326.1092365958834,1.000324255800126,0.00023273012793562916
1326.11618104919,1326.11618104919,0.9993540381423897,0.00023267557537041814
1326.1231255025368,1326.1231255025368,0.9998877015194558,0.0002327356753455641
1326.1300699559486,1326.1300699559486,1.0001024291756841,0.00023273388944729535
1326.137014409406,1326.137014409406,0.999994162753201,0.00023272482934891454
1326.1439588629223,1326.1439588629223,0.9998760139019491,0.00023272205812182312
1326.1509033164848,1326.1509033164848,0.9997450679010302,0.00023271324668322203
1326.1578477700996,1326.1578477700996,1.0002093865175048,0.00023275076105005454
1326.1647922237673,1326.1647922237673,1.0003388437169192,0.00023276044992477505
1326.1717366774867,1326.1717366774867,0.9999592263542201,0.00023272986526904366
1326.178681131259,1326.178681131259,0.9994721336778289,0.00023268393153917698
1326.1856255850776,1326.1856255850776,1.0001259108916887,0.00023272762583984242
1326.1925700389484,1326.1925700389484,1.0003859789668264,0.00023273894864160707
1326.199514492861,1326.199514492861,1.0000022417508585,0.0002326976475899842
1326.2064589468305,1326.2064589468305,0.9999589506583157,0.00023271086665978703
1326.213403400836,1326.213403400836,0.9998668628683601,0.00023270084644395582
1326.2203478548931,1326.2203478548931,1.0001691764123533,0.00023272131993303815
1326.227292308997,1326.227292308997,0.9998685971302856,0.00023270181066211391
1326.2342367631475,1326.2342367631475,1.00000349065614,0.00023271026714168086
1326.241181217344,1326.241181217344,1.0000352838415794,0.0002327195161442285
1326.2481256715769,1326.2481256715769,1.000025590888015,0.00023268673448098107
1326.2550701258606,1326.2550701258606,1.0000310057581814,0.00023273202308059015
1326.262014580192,1326.262014580192,0.9997465028973009,0.00023269886304915283
1326.2689590345635,1326.2689590345635,0.9998746955828377,0.0002326980760832728
1326.2759034889757,1326.2759034889757,1.0004495255553678,0.00023273572551099544
1326.2828479434293,1326.2828479434293,0.9997205285157695,0.00023268712030830624
1326.289792397923,1326.289792397923,0.9998229963015127,0.00023268709073498775
1326.2967368524635,1326.2967368524635,1.0003167603562801,0.000232718129923491
1326.3036813070387,1326.3036813070387,0.9999617240701122,0.0002327098767089151
1326.3106257616607,1326.3106257616607,1.000177230157331,0.00023275724424564015
1326.3175702163237,1326.3175702163237,0.9999164790830241,0.00023273038162139
1326.3245146710267,1326.3245146710267,1.000213264306266,0.0002327745157617672
1326.33145912576,1326.33145912576,1.0000023728295315,0.00023277090721435129
1326.3384035805389,1326.3384035805389,0.9999132560704105,0.00023278200258141412
1326.3459035917433,1326.3459035917433,0.9996536718087737,0.0002327826190021719
1326.355070272153,1326.355070272153,0.9999024642591079,0.00023283767952114926
1326.3620147270601,1326.3620147270601,0.9998343500868433,0.000232858138732402
1326.3689591820082,1326.3689591820082,1.0002644707729056,0.0002328938966200139
1326.3759036369852,1326.3759036369852,0.9999897238665995,0.0002329269718913458
1326.382848092003,1326.382848092003,1.0003460878624024,0.0002329595597280498
1326.3897925470442,1326.3897925470442,1.00002508407263,0.0002329487187030199
1326.3967370021317,1326.3967370021317,0.999959884261029,0.00023295663166346837
1326.4036814572542,1326.4036814572542,0.9998843816081964,0.00023295506905722415
1326.4106259124005,1326.4106259124005,0.9995567594239929,0.0002329560703645093
1326.4175703675926,1326.4175703675926,1.0000733486712303,0.00023300689632957944
1326.424514822808,1326.424514822808,1.0001904296972315,0.0002330424971929341
1326.4314592780704,1326.4314592780704,1.000152247789506,0.00023305719845624948
1326.438403733356,1326.438403733356,0.9999070266995886,0.00023305715028143812
1326.4453481886708,1326.4453481886708,1.0000932637304634,0.0002330947861979643
1326.452292644026,1326.452292644026,1.0000527333595262,0.00023311096024361392
1326.4592370994105,1326.4592370994105,0.999955719640688,0.00023310207877815203
1326.4661815548238,1326.4661815548238,1.000003803167372,0.00023312398655443486
1326.4731260102785,1326.4731260102785,1.0000191541250403,0.00023313625929184968
1326.4800704657505,1326.4800704657505,0.9998111406406831,0.00023314762790534632
1326.487014921257,1326.487014921257,0.9999205691942785,0.00023316810241521012
1326.493959376793,1326.493959376793,1.0001382148186992,0.00023321613571324483
1326.5009038323635,1326.5009038323635,1.0001788060676502,0.00023323941260043683
1326.5078482879576,1326.5078482879576,0.9998450754410628,0.00023323686419749208
1326.5147927435867,1326.5147927435867,0.9999769085005863,0.0002332937204365543
1326.521737199239,1326.521737199239,1.0001023338188826,0.00023332014388196108
1326.5286816549203,1326.5286816549203,1.0000717547408204,0.00023335858495445298
1326.5356261106365,1326.5356261106365,1.0000746536544072,0.00023337495034820064
1326.5425705663645,1326.5425705663645,0.9996905508342093,0.0002333880791862493
1326.5495150221448,1326.5495150221448,0.9998917809689551,0.00023346966909163196
1326.5564594779366,1326.5564594779366,1.0003195444820372,0.0002335132024370174
1326.5634039337576,1326.5634039337576,1.0000597911632307,0.000233517785451941
1326.570348389608,1326.570348389608,0.9996990692648204,0.00023347622255961574
1326.57729284547,1326.57729284547,1.0000980644123652,0.00023350945718011236
1326.5842373013722,1326.5842373013722,0.9999024757967773,0.00023350467310739815
1326.5911817573042,1326.5911817573042,1.0000749721759985,0.00023356860988541718
1326.5981262132532,1326.5981262132532,0.9999621942011224,0.00023357325594285257
1326.6050706692256,1326.6050706692256,0.999873635069964,0.000233537165389413
1326.6120151252271,1326.6120151252271,1.0001252272607837,0.00023358362263228638
1326.6189595812575,1326.6189595812575,0.9998884555204747,0.00023358074572225667
1326.6259040373,1326.6259040373,1.0001652561945138,0.0002335860728733835
1326.632848493371,1326.632848493371,1.000119336814415,0.00023361197564199793
1326.6397929494658,1326.6397929494658,1.0000590686564026,0.0002335911731610755
1326.6467374055896,1326.6467374055896,0.9998258244698113,0.0002335650729265801
1326.6536818617365,1326.6536818617365,1.0001887849875652,0.00023358400722909675
1326.6606263178953,1326.6606263178953,1.0001479419343036,0.00023357634853194963
1326.6675707740828,1326.6675707740828,1.000002146213195,0.00023353737923475322
1326.6745152303001,1326.6745152303001,0.9997745665428095,0.00023350050711524198
1326.6814596865345,1326.6814596865345,0.9996504192577502,0.00023347242898823505
1326.6895152557936,1326.6895152557936,1.0002650625404217,0.00023349706355763403
1326.696737490322,1326.696737490322,0.999904205890239,0.00023344081580826953
1326.7036819466318,1326.7036819466318,1.0001162922473579,0.0002334441107880811
1326.7111819594604,1326.7111819594604,0.9995824804625114,0.00023335981793260398
1326.7189597505653,1326.7189597505653,1.0004259472224935,0.00023342188104585383
1326.7259042069393,1326.7259042069393,0.9999434765405754,0.00023335088203428335
1326.7328486633248,1326.7328486633248,1.0004436681086708,0.00023340458213496205
1326.7397931197343,1326.7397931197343,0.9998177795097372,0.00023328971230225176
1326.7467375761657,1326.7467375761657,0.9999642847622375,0.00023328098243169783
1326.7536820326156,1326.7536820326156,0.9996212838070576,0.00023324720100771079
1326.7606264890887,1326.7606264890887,0.9999151462666838,0.00023324981044332973
1326.7675709455732,1326.7675709455732,0.9998422861242673,0.0002332380501056316
1326.7745154020813,1326.7745154020813,1.00013369234496,0.00023324484467346715
1326.7814598586067,1326.7814598586067,1.0002045880257415,0.00023327041067027634
1326.7884043151553,1326.7884043151553,1.0004871605567622,0.00023330776805466005
1326.7953487717155,1326.7953487717155,1.0002037241519084,0.0002332747078291604
1326.8022932282936,1326.8022932282936,0.9997640850996111,0.00023324572053209165
1326.8092376849004,1326.8092376849004,0.9997720000263042,0.0002332916279711467
1326.816182141501,1326.816182141501,0.9998568080801403,0.00023329656523963247
1326.823126598149,1326.823126598149,0.9997003610683077,0.0002332327240640296
1326.8300710547962,1326.8300710547962,1.0002498767309718,0.0002333388700866256
1326.8370155114676,1326.8370155114676,0.9999112266738163,0.00023329650699528337
1326.84395996815,1326.84395996815,1.0000785810410386,0.0002333128922517776
1326.8509044248556,1326.8509044248556,1.0001256022499072,0.0002333075630434534
1326.8578488815788,1326.8578488815788,0.999758368747678,0.00023326616989085202
1326.8647933383083,1326.8647933383083,1.0000227820254315,0.00023325297758416022
1326.871737795055,1326.871737795055,1.0002190419789896,0.00023325536531060677
1326.8786822518184,1326.8786822518184,1.0000500716425704,0.00023319666150026404
1326.885626708612,1326.885626708612,0.9999967452876252,0.00023312832123498917
1326.892571165405,1326.892571165405,0.9997855821532294,0.0002330931026894939
1326.8995156222272,1326.8995156222272,1.0004156385797411,0.0002330885201165845
1326.9064600790493,1326.9064600790493,0.9995832600841194,0.0002329557756293683
1326.913404535895,1326.913404535895,1.0003957966478079,0.0002329647093765248
1326.920348992758,1326.920348992758,0.9997945838711351,0.00023287172485118287
1326.9272934496269,1326.9272934496269,1.0000770974323707,0.00023285899488729365
1326.9342379065133,1326.9342379065133,1.00020359837441,0.0002328229259434199
1326.9411823634164,1326.9411823634164,1.000006996755355,0.000232725405743619
1326.9481268203322,1326.9481268203322,1.0001747900837141,0.000232709823523612
1326.9550712772648,1326.9550712772648,0.9997714050673485,0.00023263468474198564
1326.9620157342094,1326.9620157342094,1.000104433777355,0.00023263691845865748
1326.9689601911657,1326.9689601911657,0.9999082856061887,0.00023254964909979822
1326.9759046481388,1326.9759046481388,0.9999658476649967,0.0002325313973428773
1326.9828491051187,1326.9828491051187,1.0001598775569378,0.00023249599950591896
1326.9897935621211,1326.9897935621211,1.0001893885784745,0.0002324847519702738
1326.99673801913,1326.99673801913,0.9999048577166573,0.00023243076502846793
1327.0036824761555,1327.0036824761555,0.9996591793217794,0.00023239262462900688
1327.0106269331875,1327.0106269331875,0.9997595934366388,0.0002323903651961657
1327.0175713902424,1327.0175713902424,1.0000144947909302,0.00023241410491648619
1327.0245158473033,1327.0245158473033,1.0002382072507898,0.00023242085380980378
1327.0314603043703,1327.0314603043703,1.0001388133409541,0.0002324297904249058
1327.0384047614596,1327.0384047614596,1.0001239001083906,0.00023242520971934673
1327.0453492185559,1327.0453492185559,0.9998379910802291,0.00023237534230397986
1327.0522936756631,1327.0522936756631,0.9999401017872407,0.00023242275638829085
1327.0600714676416,1327.0600714676416,1.0000554217105413,0.00023244991897927053
