time,time,flux,flux_err
1325.298882708742,1325.298882708742,1.0000086754635034,0.0002772958900860216
1325.3072160548816,1325.3072160548816,1.0002176629971953,0.0002773843163438452
1325.314854955757,1325.314854955757,0.9999274267076848,0.0002531921937949461
1325.321799411287,1325.321799411287,0.9998547505258444,0.00025323364026174223
1325.3287438670147,1325.3287438670147,0.9997083247576768,0.000253223830441174
1325.3356883229292,1325.3356883229292,1.0000286598038621,0.00025329533832553833
1325.342632779024,1325.342632779024,1.0000330596896532,0.0002533421519009784
1325.3495772353047,1325.3495772353047,1.0001934782275756,0.0002533882222233952
1325.3565216917718,1325.3565216917718,0.9998603132039955,0.0002534318991256609
1325.3634661484134,1325.3634661484134,1.0002237706000265,0.0002535291815973936
1325.37041060523,1325.37041060523,0.9999479608697314,0.00025355826515039494
1325.3773550622325,1325.3773550622325,0.999651159473343,0.0002535857315398995
1325.3842995193927,1325.3842995193927,1.0001487250013237,0.000253663444628117
1325.3912439767269,1325.3912439767269,1.0003544076496245,0.00025374451736512565
1325.3981884342415,1325.3981884342415,0.9999490441983132,0.00025378308618748954
1325.4051328919315,1325.4051328919315,0.9997046073135726,0.0002538211992488019
1325.4120773497775,1325.4120773497775,1.0000323090065626,0.0002539041023031187
1325.419021807776,1325.419021807776,1.000036479834084,0.0002539405455577168
1325.4259662659485,1325.4259662659485,0.9998528979612284,0.0002540220722642201
1325.4329107242897,1325.4329107242897,0.9998132225651972,0.00025404417596399043
1325.4398551827887,1325.4398551827887,1.0002387171181741,0.0002541501717980588
1325.4467996414444,1325.4467996414444,1.0000939154963278,0.00025422188567325983
1325.4537441002515,1325.4537441002515,0.9998769220216467,0.000254233889056372
1325.4606885592098,1325.4606885592098,1.00008699076804,0.00025430362234528137
1325.4676330183308,1325.4676330183308,1.0000496624776032,0.0002544071362434657
1325.4745774775984,1325.4745774775984,0.9997516104775956,0.00025440822407999124
1325.4815219370162,1325.4815219370162,1.0001899548745907,0.0002545435094521237
1325.4884663965804,1325.4884663965804,1.0000332729364374,0.0002545756072649821
1325.49541085629,1325.49541085629,1.0000434494659065,0.00025469482768274404
1325.502355316156,1325.502355316156,0.9998696854231083,0.00025476536806745515
1325.5092997761565,1325.5092997761565,1.0001840015088714,0.0002548829291316911
1325.5162442362905,1325.5162442362905,1.0001627895681189,0.0002549598847683219
1325.523188696582,1325.523188696582,1.0001433961047854,0.0002550671350755158
1325.5301331569954,1325.5301331569954,1.000007260982849,0.00025513744505807113
1325.5370776175548,1325.5370776175548,0.9997315656773464,0.00025518969189461827
1325.544022078248,1325.544022078248,0.9998171762143663,0.00025529606373222367
1325.5509665390687,1325.5509665390687,1.0001043194995705,0.0002553798958906524
1325.5579110000297,1325.5579110000297,0.9994101715178004,0.0002554051817550575
1325.5648554611184,1325.5648554611184,0.9999293548500736,0.0002555465319472513
1325.5717999223355,1325.5717999223355,1.0002807630662358,0.0002556253949436614
1325.5787443836807,1325.5787443836807,1.000315087641179,0.00025569890266176576
1325.5856888451476,1325.5856888451476,1.0001629144122322,0.0002557527254837686
1325.5926333067484,1325.5926333067484,0.9998771391337249,0.00025580868189631947
1325.5995777684718,1325.5995777684718,0.9999998202423693,0.00025587069168068517
1325.6065222303173,1325.6065222303173,1.0000029193616995,0.0002559365150090336
1325.6134666922676,1325.6134666922676,0.999992455070468,0.00025598886322805627
1325.620411154358,1325.620411154358,1.0003414782963105,0.00025608541866069105
1325.6273556165524,1325.6273556165524,1.0000188468839326,0.0002560596768646911
1325.6343000788752,1325.6343000788752,1.000089907884996,0.00025610739704744667
1325.6412445413032,1325.6412445413032,0.9996921625740345,0.0002561390112915293
1325.648189003847,1325.648189003847,0.9998348995987177,0.0002561549474223512
1325.6551334665076,1325.6551334665076,0.9996065617185593,0.0002561766517074712
1325.6620779292782,1325.6620779292782,1.0000523334936118,0.00025623140185920053
1325.6690223921546,1325.6690223921546,1.0000633042490696,0.00025623834329521636
1325.6759668551463,1325.6759668551463,1.000210164072638,0.00025629016742959737
1325.682911318238,1325.682911318238,1.0000622797305891,0.00025629799727604235
1325.6898557814452,1325.6898557814452,0.9999412554811675,0.00025634314110596656
1325.6968002447518,1325.6968002447518,1.0001514550173733,0.00025638672870561575
1325.7037447081518,1325.7037447081518,1.0000263334462085,0.0002563713431929519
1325.7106891716735,1325.7106891716735,0.9998062182938376,0.0002564077940827072
1325.7176336352827,1325.7176336352827,1.0002760643221225,0.00025649123721637
1325.7245780990083,1325.7245780990083,0.9998045381584483,0.00025650003178486565
1325.7315225628095,1325.7315225628095,0.9999697458269095,0.00025657526366511826
1325.7384670267215,1325.7384670267215,1.0000600448219876,0.00025662424035242124
1325.7454114907382,1325.7454114907382,0.9998720045632788,0.00025663705114783796
1325.7523559548247,1325.7523559548247,1.0002087264762534,0.0002567450006241486
1325.759300419028,1325.759300419028,0.9999862090435068,0.0002567781612110787
1325.7662448833119,1325.7662448833119,0.9997947020252947,0.00025682198971344354
1325.7731893477016,1325.7731893477016,0.9995110500472817,0.0002568559757306609
1325.7801338121717,1325.7801338121717,1.0004555290290544,0.00025699016120305065
1325.7870782767363,1325.7870782767363,1.0002358857850802,0.00025704562337838983
1325.794022741393,1325.794022741393,1.0002055103257146,0.00025708293579657576
1325.8009672061314,1325.8009672061314,0.9999757856055236,0.0002570758469942995
1325.8079116709573,1325.8079116709573,0.9999869396089058,0.00025712365570445975
1325.8148561358698,1325.8148561358698,0.9998413169297564,0.00025714224980754626
1325.8218006008651,1325.8218006008651,0.9997341331902275,0.00025717018630586877
1325.8287450659523,1325.8287450659523,1.0001152662754593,0.0002572239252014472
1325.8356895311158,1325.8356895311158,0.9999045099388532,0.0002571866641611906
1325.8426339963669,1325.8426339963669,0.999997056578845,0.00025721462934853273
1325.8495784616985,1325.8495784616985,1.0000682182547094,0.00025720212892942567
1325.8565229270948,1325.8565229270948,1.000193385006698,0.0002572050749647117
1325.86346739259,1325.86346739259,0.9996195516359825,0.0002571246328743822
1325.8704118581552,1325.8704118581552,1.000229441412759,0.00025715632615549863
1325.877356323796,1325.877356323796,1.0001498292297415,0.00025706136369724446
1325.884300789512,1325.884300789512,0.999871611133039,0.00025701168563469265
1325.8912452553045,1325.8912452553045,1.0001290760056576,0.0002569762413462657
1325.8981897211775,1325.8981897211775,0.999937023720044,0.00025691991905498303
1325.905134187115,1325.905134187115,1.0000694470022382,0.0002568941515858503
1325.9120786531341,1325.9120786531341,0.9998523343366932,0.00025686133840176504
1325.9190231192229,1325.9190231192229,1.0000032776746295,0.0002568230251360483
1325.9259675853878,1325.9259675853878,1.000265546054539,0.00025686469536464644
1325.9329120516163,1325.9329120516163,0.9997553789682125,0.00025676371433828787
1325.939856517909,1325.939856517909,0.9998008082996691,0.0002567917268760371
1325.9468009842772,1325.9468009842772,1.0002562007044298,0.000256778354491486
1325.9537454507154,1325.9537454507154,1.0005298955939324,0.0002567886203510601
1325.9612454745393,1325.9612454745393,0.99975759866741,0.00025675034174399685
1325.969023277105,1325.969023277105,0.9999494102767474,0.00025674424603054673
1325.9759677437469,1325.9759677437469,0.9999130161279339,0.0002567523525061091
1325.9829122104584,1325.9829122104584,1.000254311112052,0.0002567974164262608
1325.9898566772458,1325.9898566772458,0.9998960367747284,0.000256763075985265
1325.9968011440799,1325.9968011440799,1.0000900659284844,0.0002568161898185498
1326.0037456109778,1326.0037456109778,0.999980897496739,0.000256820379397254
1326.0106900779458,1326.0106900779458,1.0003532517010043,0.00025694316243823006
1326.0176345449659,1326.0176345449659,0.999692514851505,0.0002568771537674929
1326.024579012056,1326.024579012056,0.9998848438204313,0.0002569596567200007
1326.031523479187,1326.031523479187,0.9998880159233305,0.00025699304076030806
1326.0384679463873,1326.0384679463873,1.00014446906393,0.0002570270235009795
1326.0454124136522,1326.0454124136522,1.0000470627383362,0.0002570185078440284
1326.052356880969,1326.052356880969,0.999773915508604,0.0002570042666194269
1326.0593013483501,1326.0593013483501,1.0005244980725825,0.0002570908636540381
1326.0662458157663,1326.0662458157663,0.9996513519451259,0.0002570427632352289
1326.0731902832576,1326.0731902832576,1.000313612311643,0.00025708852541843894
1326.0801347507963,1326.0801347507963,0.9997843680580438,0.00025708248372922893
1326.0870792183928,1326.0870792183928,1.000030093923923,0.00025708480894112804
1326.0940236860417,1326.0940236860417,0.9995600627582025,0.000257086675908469
1326.1009681537369,1326.1009681537369,1.0000524792916192,0.0002571360673566898
1326.107912621496,1326.107912621496,1.0005200086694161,0.0002571653642987232
1326.1148570892965,1326.1148570892965,0.999671933261687,0.0002571164336613837
1326.1218015571546,1326.1218015571546,1.0000890571466239,0.0002571570523579613
1326.1287460250599,1326.1287460250599,0.9999414483374487,0.0002571236897269538
1326.1356904930171,1326.1356904930171,1.000180658961173,0.00025716463760116354
1326.142634961021,1326.142634961021,0.9998815523529861,0.0002571609983483092
1326.1495794290718,1326.1495794290718,1.0002050477130418,0.00025719687672568506
1326.156523897174,1326.156523897174,0.9994808706739933,0.00025709925795403487
1326.163468365336,1326.163468365336,1.0001906691676807,0.00025718933916532555
1326.1704128335314,1326.1704128335314,1.0001929475530613,0.00025719286222429885
1326.1773573017683,1326.1773573017683,1.0002030865566303,0.0002571667570002137
1326.1843017700635,1326.1843017700635,0.9998943589060811,0.00025714590075487213
1326.1912462383987,1326.1912462383987,0.9999340600293134,0.00025715517631674074
1326.1981907067698,1326.1981907067698,0.9994580919047967,0.00025712405575362477
1326.2051351751984,1326.2051351751984,1.0007936087619511,0.000257226369573822
1326.2120796436743,1326.2120796436743,1.0000632927148474,0.00025715989655941717
1326.2190241121782,1326.2190241121782,1.0000922358825732,0.00025716694114773545
1326.2259685807353,1326.2259685807353,0.9998409225933411,0.0002571326667561462
1326.2329130493329,1326.2329130493329,1.000103571361525,0.00025717633076850646
1326.239857517971,1326.239857517971,1.0000521372734426,0.0002571550691012693
1326.2468019866446,1326.2468019866446,1.0001458949813555,0.000257157026323179
1326.253746455376,1326.253746455376,0.999796844277264,0.00025714006330895475
1326.2606909241367,1326.2606909241367,1.0001739855881162,0.0002571687013556848
1326.2676353929323,1326.2676353929323,0.9999077323627878,0.00025713502612954213
1326.2745798617682,1326.2745798617682,0.9999153753970811,0.0002571472397717814
1326.2815243306572,1326.2815243306572,0.9999697648036736,0.00025715056435505346
1326.288468799575,1326.288468799575,0.9997523273201514,0.00025714400886334805
1326.2954132685277,1326.2954132685277,1.0001420191886345,0.0002571753064870511
1326.3023577375207,1326.3023577375207,1.0002313876495745,0.00025719250479560007
1326.3093022065555,1326.3093022065555,1.0000589516579463,0.00025716492806117
1326.3162466756244,1326.3162466756244,0.9997908587772493,0.00025716492868895933
1326.3231911447224,1326.3231911447224,0.9995365510124703,0.00025713534933363854
1326.330135613862,1326.330135613862,1.0005235685711193,0.0002572676065532817
1326.3370800830412,1326.3370800830412,1.0000918093406663,0.00025724530382324366
1326.3440245522556,1326.3440245522556,0.9995078284936966,0.0002571814216919428
1326.3537468092018,1326.3537468092018,1.0004659911568634,0.0002573424986552811
1326.3606912784976,1326.3606912784976,1.000033056340342,0.00025730520287251896
1326.367635747829,1326.367635747829,1.0000654685751367,0.0002572984003962043
1326.3745802171888,1326.3745802171888,0.9999737185655997,0.00025736813357816644
1326.3815246865784,1326.3815246865784,0.9997395277803957,0.00025733668942813295
1326.3884691560027,1326.3884691560027,1.0003336626061072,0.0002574408821245103
1326.3954136254674,1326.3954136254674,0.9998104758513303,0.0002574195100777509
1326.40235809495,1326.40235809495,0.9997310303617162,0.00025743085450598177
1326.4093025644731,1326.4093025644731,1.0000199498579927,0.0002574630845909316
1326.416247034037,1326.416247034037,0.9994156066426267,0.0002574345225059789
1326.4231915036125,1326.4231915036125,1.0001206426787508,0.0002575310317218824
1326.430135973229,1326.430135973229,1.0000778379419422,0.00025753506418756605
1326.4370804428738,1326.4370804428738,1.0003402483322847,0.00025757486727640206
1326.4440249125428,1326.4440249125428,1.0000839577372678,0.0002575682171039555
1326.4509693822347,1326.4509693822347,0.9997184971339784,0.0002575725655140533
1326.457913851979,1326.457913851979,1.0001624024574078,0.0002576426596555752
1326.464858321735,1326.464858321735,1.0000347655587656,0.000257632400591194
1326.47180279152,1326.47180279152,0.9999955499877095,0.00025769216195665925
1326.4787472613402,1326.4787472613402,1.0001214421169746,0.00025769477858511683
1326.4856917311893,1326.4856917311893,1.0001062218596657,0.00025773568936343215
1326.4926362010558,1326.4926362010558,0.9997812768623614,0.0002577211039102799
1326.4995806709517,1326.4995806709517,0.9997165511680395,0.00025772743572180344
1326.50652514087,1326.50652514087,0.9999573115354259,0.00025777178458884263
1326.51346961083,1326.51346961083,1.0000533399174192,0.000257798493869524
1326.5204140808014,1326.5204140808014,0.999921937205152,0.00025783190752739344
1326.5273585507962,1326.5273585507962,0.9997747767086309,0.00025784578204544466
1326.5343030208373,1326.5343030208373,1.0000161379917158,0.000257891458821608
1326.54124749089,1326.54124749089,1.0003183298349436,0.00025792299084228686
1326.5481919609604,1326.5481919609604,1.0002575402762082,0.00025797397939771575
1326.5551364310654,1326.5551364310654,0.9999798070745104,0.0002579869140814104
1326.5620809011882,1326.5620809011882,1.0003479100453487,0.00025806179725848283
1326.5690253713342,1326.5690253713342,1.0000983060101007,0.00025801639133052605
1326.5759698415154,1326.5759698415154,0.9998766270242117,0.0002580036807389698
1326.5829143117073,1326.5829143117073,0.9994486901371038,0.00025796228722324414
1326.5898587819295,1326.5898587819295,0.9999480150720395,0.0002580069056760893
1326.59680325218,1326.59680325218,0.9996718194231147,0.0002579978226909257
1326.6037477224424,1326.6037477224424,1.0002136145984317,0.00025808169354393806
1326.6106921927164,1326.6106921927164,1.0001438169967822,0.0002580876690592781
1326.6176366630368,1326.6176366630368,0.9999517840580335,0.0002580739062658469
1326.624581133369,1326.624581133369,1.0003078028542745,0.0002581330948381187
1326.6315256037187,1326.6315256037187,1.00011974297234,0.0002581032262342603
1326.6384700740975,1326.6384700740975,1.0001531387257507,0.00025809552082665276
1326.6454145444882,1326.6454145444882,0.9997737142429249,0.00025804623284250347
1326.6523590149077,1326.6523590149077,0.9994858829959081,0.0002580255204332347
1326.6593034853333,1326.6593034853333,1.0004424820685733,0.00025808149866822906
1326.666247955793,1326.666247955793,0.999870136262679,0.0002580001645985897
1326.6731924262713,1326.6731924262713,1.0002473392547726,0.00025805234435919154
1326.6801368967663,1326.6801368967663,0.9999596392400623,0.00025795344263138733
1326.6879147037444,1326.6879147037444,0.9999801564709834,0.00025796570243945006
1326.6954147319277,1326.6954147319277,0.9995670983772301,0.0002578717562703452
1326.7023592024811,1326.7023592024811,0.9999895543430137,0.00025788822941601674
1326.709581451882,1326.709581451882,1.0000118291781217,0.0002578523062223831
1326.717637037771,1326.717637037771,1.000267878622723,0.00025786902710102345
1326.7245815083884,1326.7245815083884,0.9999959578383942,0.0002577995130301249
1326.7315259790234,1326.7315259790234,1.0002224781534466,0.0002577693849322212
1326.7384704496758,1326.7384704496758,0.999896925068259,0.0002577480716386222
1326.7454149203456,1326.7454149203456,0.9999746674480494,0.00025770060614169286
1326.7523593910269,1326.7523593910269,0.9999686086938138,0.00025770524688597315
1326.759303861732,1326.759303861732,1.00001854926959,0.0002576975689468823
1326.7662483324536,1326.7662483324536,1.0000044339055292,0.00025768841324285937
1326.773192803194,1326.773192803194,1.0000243075873823,0.00025767559472294826
1326.780137273939,1326.780137273939,1.0001705553434896,0.00025770346945794216
1326.7870817447138,1326.7870817447138,0.9997931043063373,0.0002576499604757418
1326.7940262154941,1326.7940262154941,0.9998807530098699,0.00025762980263490526
1326.8009706862922,1326.8009706862922,0.9999004543833314,0.0002576354832136423
1326.8079151571133,1326.8079151571133,0.9997058620372578,0.0002576537656033994
1326.81485962794,1326.81485962794,1.0000716194724177,0.000257649709766304
1326.8218040987906,1326.8218040987906,1.0001297249573065,0.00025767454035603493
1326.8287485696642,1326.8287485696642,1.0001601409647232,0.00025765408143194036
1326.83569304052,1326.83569304052,1.0002620085462628,0.0002577003761847257
1326.8426375114288,1326.8426375114288,1.0003678248638626,0.0002576601528219989
1326.8495819823313,1326.8495819823313,0.9995705387476622,0.0002575925829163465
1326.8565264532513,1326.8565264532513,0.9999645096006893,0.00025765220851888947
1326.8634709241892,1326.8634709241892,1.0003838754011554,0.0002576348321124336
1326.8704153951326,1326.8704153951326,0.9999413887485232,0.00025758909011659243
1326.8773598660991,1326.8773598660991,0.9999838486172541,0.0002575645638611413
1326.8843043370775,1326.8843043370775,0.9998391331948799,0.0002574955122719652
1326.8912488080616,1326.8912488080616,0.9996707760198905,0.00025745405345145805
1326.8981932790691,1326.8981932790691,0.9996812132314534,0.0002573978958675809
1326.9051377500705,1326.9051377500705,1.000476316504475,0.0002574252956516217
1326.9120822211014,1326.9120822211014,1.0000988327092908,0.0002572705529113776
1326.919026692144,1326.919026692144,0.999660181336376,0.00025722689643232864
1326.9259711631978,1326.9259711631978,0.9998314464388462,0.0002571709206004076
1326.9329156342635,1326.9329156342635,1.0000198725200389,0.00025710571493623065
1326.9398601053406,1326.9398601053406,1.0000891794230964,0.0002570603480558772
1326.9468045764354,1326.9468045764354,1.0004518686413943,0.00025703718829827
1326.9537490475302,1326.9537490475302,1.0000587846247049,0.0002569635812348099
1326.9606935186484,1326.9606935186484,1.0000543916358309,0.00025691010068833213
1326.9676379897724,1326.9676379897724,1.00018676354349,0.000256870524020395
1326.9745824609076,1326.9745824609076,0.9996135001967653,0.00025673995094341404
1326.981526932049,1326.981526932049,0.9999670879766821,0.0002567595871527933
1326.9884714032075,1326.9884714032075,0.9996113816198381,0.00025668910283018143
1326.9954158743726,1326.9954158743726,0.9998847344684831,0.00025670153802162044
1327.0023603455486,1327.0023603455486,1.0002148268544615,0.00025675804611056746
1327.009304816754,1327.009304816754,1.0002729484169766,0.00025673266975143847
1327.0162492879476,1327.0162492879476,1.0001831620267327,0.0002567210824584728
1327.0231937591586,1327.0231937591586,1.0001280469703375,0.00025670824126783933
1327.030138230382,1327.030138230382,1.0001529210234796,0.0002567045766251195
1327.03708270161,1327.03708270161,0.999535554648674,0.00025662899225611615
1327.0440271728507,1327.0440271728507,0.999767572482576,0.00025667299672543445
1327.0509716441024,1327.0509716441024,1.000282597153128,0.00025672080970611037
1327.058471673066,1327.058471673066,0.9995695923845634,0.00025667284614574136
