time,time,flux,flux_err
1491.63734316668,1491.63734316668,1.0000859428661872,0.0007192856675887528
1491.6456767205243,1491.6456767205243,1.0007866799981524,0.0007183387501596391
1491.6533158116717,1491.6533158116717,0.999883049062787,0.0006550846664750787
1491.6602604400928,1491.6602604400928,0.9993750453389337,0.0006544583374901435
1491.6672050685138,1491.6672050685138,0.999326161654321,0.0006534233215013641
1491.674149697074,1491.674149697074,0.9989697066343947,0.0006525355334840283
1491.6810943257744,1491.6810943257744,1.0003366129192772,0.000652508009682194
1491.6880389544745,1491.6880389544745,0.9996500783746424,0.0006513756654477319
1491.6949835833145,1491.6949835833145,1.000461369444689,0.0006507915082410584
1491.7019282121541,1491.7019282121541,1.0007372999168893,0.0006502810604058216
1491.708872841134,1491.708872841134,1.0000252435333081,0.0006493283881006325
1491.7158174701606,1491.7158174701606,0.9996500489408346,0.000649467112173155
1491.722762099326,1491.722762099326,1.0002532588141182,0.0006482048062824234
1491.7297067284921,1491.7297067284921,1.0003675650242314,0.0006479733494590315
1491.7366513577047,1491.7366513577047,1.0001786132139316,0.0006473013433213112
1491.7435959870568,1491.7435959870568,0.9994725782215477,0.0006464834695816769
1491.7505406164087,1491.7505406164087,0.9998793233060056,0.0006463717901695421
1491.7574852458542,1491.7574852458542,1.0009947239447534,0.0006455656805663585
1491.7644298753457,1491.7644298753457,1.000167959452004,0.0006450519485506703
1491.771374504931,1491.771374504931,0.999870240364432,0.0006444888599437409
1491.7783191344693,1491.7783191344693,0.9993214084271577,0.0006445551235660359
1491.785263764147,1491.785263764147,1.000728975768993,0.0006443280161134852
1491.7922083938718,1491.7922083938718,1.000242504998231,0.0006435426039877682
1491.7991530235968,1491.7991530235968,0.9995631923619825,0.0006427379255039411
1491.8060976534143,1491.8060976534143,0.9998850185105945,0.0006425765222645536
1491.8130422832319,1491.8130422832319,1.000159227279705,0.0006421320067097106
1491.8199869130963,1491.8199869130963,0.9998382322432497,0.0006415384736866785
1491.8269315430537,1491.8269315430537,0.999772265236737,0.0006410777613743521
1491.8338761730115,1491.8338761730115,1.0007988941922021,0.0006408941669814208
1491.8408208030155,1491.8408208030155,1.0001396882984614,0.0006403922896391476
1491.8477654330657,1491.8477654330657,1.0007847411787698,0.0006399103883673433
1491.85471006321,1491.85471006321,1.0004770444213646,0.0006395944899425721
1491.861654693354,1491.861654693354,0.9999383816596417,0.0006396915184407783
1491.8685993234976,1491.8685993234976,0.9990279905208638,0.0006387093590053985
1491.8755439536412,1491.8755439536412,0.9997716886218994,0.0006390484997467811
1491.882488583785,1491.882488583785,0.9999099356579044,0.0006383700570016995
1491.889433214115,1491.889433214115,0.9996925318148844,0.0006382095941146191
1491.8963778443053,1491.8963778443053,0.9991452902896881,0.0006382796430695508
1491.9033224746818,1491.9033224746818,0.9996542969852925,0.0006376898929263761
1491.9102671049654,1491.9102671049654,1.0003728066521513,0.0006373721998585786
1491.9172117353419,1491.9172117353419,1.000584759281721,0.0006367254272195282
1491.9241563656717,1491.9241563656717,1.000202286883414,0.0006371578951352223
1491.9311009960952,1491.9311009960952,0.9999264406814298,0.0006366620568200519
1491.9380456265178,1491.9380456265178,1.0007728676314296,0.0006364614028088451
1491.944990256941,1491.944990256941,0.9998951894498518,0.0006361949240903615
1491.9519348874114,1491.9519348874114,1.0011688184683156,0.0006368176381921845
1491.9588795178338,1491.9588795178338,0.9991592253109427,0.0006356157824251073
1491.965824148397,1491.965824148397,0.9995581224834874,0.0006363188812621198
1491.9727687788204,1491.9727687788204,0.9998186753290603,0.0006358236372751562
1491.9797134093828,1491.9797134093828,1.0003720612008733,0.0006360185433767627
1491.986658039899,1491.986658039899,1.000251852316706,0.000635888551415392
1491.9936026704158,1491.9936026704158,1.0003556329323375,0.0006360860157308631
1492.0005473009787,1492.0005473009787,0.9996942295740207,0.0006356281759202852
1492.007491931588,1492.007491931588,0.9991901454970467,0.0006359144425628661
1492.0144365621043,1492.0144365621043,0.9999304082462498,0.0006358291058261308
1492.0213811927138,1492.0213811927138,0.999954669408147,0.0006355361537347957
1492.028325823323,1492.028325823323,1.000072612354525,0.0006359171993372984
1492.0352704538861,1492.0352704538861,1.000342607959523,0.0006361985320450039
1492.0422150844956,1492.0422150844956,1.0001377860621548,0.0006357135983654056
1492.0491597151045,1492.0491597151045,1.0004474887293546,0.0006359110084560915
1492.0561043457142,1492.0561043457142,1.0000993700026863,0.0006358849154885807
1492.0630489763237,1492.0630489763237,0.9998698445416322,0.0006357880865204506
1492.069993606933,1492.069993606933,1.0000930662573153,0.0006360203109668335
1492.0769382375422,1492.0769382375422,1.0001461905142635,0.0006360495258239112
1492.083882868152,1492.083882868152,1.0001139461104507,0.000635950160316902
1492.090827498761,1492.090827498761,0.9992543862490544,0.0006356761279035241
1492.0977721293707,1492.0977721293707,0.9992976871477911,0.0006357755521599648
1492.1047167599802,1492.1047167599802,1.0001083119367484,0.0006359385690387912
1492.1116613905892,1492.1116613905892,1.0007011279122096,0.0006363426664802393
1492.1186060211987,1492.1186060211987,1.0002846182871188,0.0006364961860605426
1492.1255506518082,1492.1255506518082,0.9996548002325915,0.0006358331438839508
1492.1324952824173,1492.1324952824173,1.0001230196747666,0.0006355991866411141
1492.1394399129806,1492.1394399129806,0.9999369526789291,0.0006357997511656809
1492.1463845435903,1492.1463845435903,1.0002896910643846,0.0006357107053623626
1492.153329174153,1492.153329174153,0.9995055047903204,0.0006357144671832225
1492.1602738047623,1492.1602738047623,1.0010959409808666,0.0006359113184021294
1492.1672184352788,1492.1672184352788,0.998919278671627,0.0006362027320463847
1492.1741630658883,1492.1741630658883,1.0001166026774548,0.0006356719827129412
1492.1811076964043,1492.1811076964043,1.000866039834878,0.0006362479760909989
1492.1880523269672,1492.1880523269672,0.999562400576915,0.000635666820580491
1492.1949969574835,1492.1949969574835,0.9994792931465589,0.0006358796545709192
1492.2019415879997,1492.2019415879997,1.0004577367112695,0.0006360082766599636
1492.2088862184694,1492.2088862184694,1.0001382022579033,0.0006356873023687582
1492.2158308489857,1492.2158308489857,0.999394371264852,0.0006358445915260788
1492.2227754794553,1492.2227754794553,1.0002869594192103,0.0006357586200150561
1492.229720109925,1492.229720109925,0.9993102104478199,0.0006353834349106534
1492.2366647403483,1492.2366647403483,1.0000799398694507,0.0006358670160014335
1492.2436093707713,1492.2436093707713,1.0000498707556011,0.0006356971248341113
1492.2505540012407,1492.2505540012407,1.0010926845433101,0.0006358390223734069
1492.2574986316642,1492.2574986316642,0.9996172448724522,0.0006361509741619885
1492.2644432620402,1492.2644432620402,1.0004208268801948,0.0006357321798078615
1492.2713878924171,1492.2713878924171,0.9994178602390169,0.0006360375109387438
1492.2783325227472,1492.2783325227472,1.0001316065030383,0.0006356030895973715
1492.2852771530775,1492.2852771530775,0.9990355962535945,0.0006355174953789222
1492.2922217834544,1492.2922217834544,1.0001261545183042,0.0006357954150575959
1492.2991664137376,1492.2991664137376,1.0004899572124957,0.0006361529334098737
1492.3061110439744,1492.3061110439744,0.9997287017847759,0.0006357398000843286
1492.3130556743047,1492.3130556743047,0.9997850861541743,0.000635409572597656
1492.320000304495,1492.320000304495,1.000736600887255,0.0006358728792875633
1492.3269449346851,1492.3269449346851,1.0013743973909979,0.0006357043744813846
1492.3338895650152,1492.3338895650152,1.0002633905952714,0.0006356832865489973
1492.3408341951588,1492.3408341951588,1.0007822965624074,0.0006359265589202133
1492.3477788253026,1492.3477788253026,0.9999200560654584,0.0006361878068212975
1492.3547234554462,1492.3547234554462,0.9998635909978633,0.0006355999775253089
1492.3616680855903,1492.3616680855903,1.0000180075090122,0.0006359457752185547
1492.3686127156873,1492.3686127156873,0.9988398055384943,0.0006356886328005081
1492.3755573456444,1492.3755573456444,0.9998180608925835,0.0006355833345391714
1492.3825019757885,1492.3825019757885,0.9995723158938141,0.0006358413110306283
1492.389446605746,1492.389446605746,1.000440769548665,0.0006362283352539886
1492.3963912357963,1492.3963912357963,1.0010318638610483,0.0006359517352937323
1492.403335865754,1492.403335865754,1.0001168271611076,0.0006359595055987733
1492.4102804956651,1492.4102804956651,0.9998126550709753,0.0006356294939962607
1492.4172251256223,1492.4172251256223,1.000391212122959,0.000635797079885068
1492.4241697555335,1492.4241697555335,1.0005719146689784,0.000635997991474489
1492.4311143853513,1492.4311143853513,0.9992803670792613,0.0006356027053407876
1492.4380590152155,1492.4380590152155,0.9994683287708428,0.0006359810199394673
1492.4450036450803,1492.4450036450803,0.9998862542575988,0.0006358029231089661
1492.4519482748049,1492.4519482748049,1.0006063196946868,0.000635731535967335
1492.4588929045758,1492.4588929045758,0.9994005080126133,0.0006354752898215783
1492.465837534347,1492.465837534347,1.0011629648997222,0.0006359884284514586
1492.472782164072,1492.472782164072,0.9997306626846241,0.0006360654919725895
1492.4797267937497,1492.4797267937497,0.9994317191289358,0.0006357345967997559
1492.4866714233813,1492.4866714233813,1.0005991854945584,0.000636055096647455
1492.493616053013,1492.493616053013,0.9995858702929843,0.0006357682032073688
1492.500560682598,1492.500560682598,1.000075504548244,0.0006356167424712808
1492.507505312136,1492.507505312136,0.9998293433031977,0.0006361393275444111
1492.5144499417213,1492.5144499417213,0.999788882619454,0.0006355254208065316
1492.521394571213,1492.521394571213,1.0004720088977443,0.0006362272896185915
1492.5283392006581,1492.5283392006581,0.9995796069885339,0.0006357800218425723
1492.5352838301035,1492.5352838301035,1.000007519613121,0.000635665611977335
1492.5422284595486,1492.5422284595486,1.0012072681496096,0.0006359007249074039
1492.5491730889003,1492.5491730889003,0.999416758845683,0.0006356261282523003
1492.5561177182528,1492.5561177182528,0.9996251877367172,0.0006356989013988676
1492.5630623475586,1492.5630623475586,0.9996632986090498,0.0006355419285128427
1492.5700069768175,1492.5700069768175,0.9993601601608655,0.0006359393299803448
1492.5769516061227,1492.5769516061227,1.0008516035671937,0.0006354682271242306
1492.5838962353355,1492.5838962353355,0.9998871064476387,0.0006356331998080154
1492.5908408645007,1492.5908408645007,0.9999115547258087,0.0006358292715054795
1492.5977854937141,1492.5977854937141,1.000256930831135,0.0006358032151953194
1492.6047301227404,1492.6047301227404,1.000792897921193,0.0006361849667367171
1492.6116747519059,1492.6116747519059,0.9996903803464484,0.0006362874191811847
1492.6186193808855,1492.6186193808855,0.9995902303990295,0.0006356516150430401
1492.6255640098652,1492.6255640098652,1.000059899718479,0.0006357509274146104
1492.6325086388447,1492.6325086388447,0.9994799094728121,0.0006354454725701471
1492.6394532678241,1492.6394532678241,0.999976562599568,0.0006356559239400776
1492.646397896804,1492.646397896804,0.9994112520068175,0.0006353908636836695
1492.6533425256905,1492.6533425256905,1.000039995040688,0.0006352449351207488
1492.66028715453,1492.66028715453,1.000313948914386,0.0006358661565281907
1492.6672317833236,1492.6672317833236,0.9999108473154112,0.0006353770624900002
1492.6741764121168,1492.6741764121168,1.0016498816922634,0.0006355755609149008
1492.6811210408637,1492.6811210408637,1.000229577512907,0.000635211358213578
1492.6880656695641,1492.6880656695641,0.999771865763473,0.0006350355554966198
1492.695010298171,1492.695010298171,1.0010260891155245,0.0006352098352676267
1492.701954926871,1492.701954926871,1.000201680887826,0.0006357096031744944
1492.7088995554318,1492.7088995554318,0.9997320091461337,0.0006350125897447181
1492.7158441839922,1492.7158441839922,0.9996258499148816,0.0006355405579059093
1492.7227888125058,1492.7227888125058,0.9999455052415647,0.0006357166838720442
1492.7297334410198,1492.7297334410198,1.0005003759695714,0.0006357812864241304
1492.7366780693942,1492.7366780693942,0.9996655100052422,0.0006355530676098251
1492.7436226978148,1492.7436226978148,1.0002990890952776,0.0006356559752510144
1492.750567326189,1492.750567326189,0.9993056700599533,0.0006357208941137271
1492.7575119545636,1492.7575119545636,1.0000348361625648,0.0006361332917632337
1492.764456582845,1492.764456582845,1.000201833844614,0.0006356280530348648
1492.7714012110791,1492.7714012110791,1.0004335555300066,0.0006360957203104575
1492.7783458393606,1492.7783458393606,0.9990268721833298,0.0006357709456769617
1492.785290467455,1492.785290467455,0.999692544748583,0.0006355966667294319
1492.792235095643,1492.792235095643,0.9999161095325866,0.0006356495957891044
1492.7991797237382,1492.7991797237382,1.0016010646965463,0.0006362802528270624
1492.8061243517864,1492.8061243517864,1.0001070691846918,0.0006357246872356565
1492.8130689798345,1492.8130689798345,1.0004422145024454,0.0006358583721531336
1492.8200136077899,1492.8200136077899,0.9998227244759621,0.0006356609886570613
1492.8269582357916,1492.8269582357916,0.9996417938421883,0.0006355428318387243
1492.8339028636533,1492.8339028636533,0.9999435318433954,0.0006353481159476853
1492.840847491469,1492.840847491469,0.9997546857718664,0.0006358631565689792
1492.8477921192843,1492.8477921192843,1.0001468318545663,0.0006355151587545536
1492.8547367470997,1492.8547367470997,0.99855283571322,0.0006351814276553485
1492.8616813749152,1492.8616813749152,1.0007978129928714,0.0006359582615393457
1492.8686260025443,1492.8686260025443,1.0007063056208483,0.0006358499706064026
1492.875570630266,1492.875570630266,1.0002991460506436,0.0006357410359479808
1492.8825152578954,1492.8825152578954,1.000932235457624,0.0006357809798729007
1492.889459885432,1492.889459885432,0.9999870227331528,0.0006359172909068489
1492.8964045129674,1492.8964045129674,0.9999501660911427,0.0006352971619164066
1492.9033491405037,1492.9033491405037,0.99836825649635,0.0006354079742469719
1492.9102937679468,1492.9102937679468,0.9995735382237859,0.0006358867145690646
1492.9172383953892,1492.9172383953892,0.9999900982158355,0.000635719681554284
1492.9241830227397,1492.9241830227397,0.9997637569954767,0.0006359665088088481
1492.9311276500898,1492.9311276500898,0.9998360456817679,0.0006356268775256736
1492.9380722773462,1492.9380722773462,0.9993864319949426,0.0006361882452660219
1492.9450169046959,1492.9450169046959,1.0014450543556528,0.0006359294877243067
1492.951961531813,1492.951961531813,1.0003605750077278,0.0006362892186979973
1492.958906159023,1492.958906159023,0.9987673269499266,0.0006353990178569936
1492.9658507861398,1492.9658507861398,1.0003547489388582,0.0006356163433542174
1492.9727954132104,1492.9727954132104,0.9993942177566748,0.0006358580132799876
1492.9797400402342,1492.9797400402342,1.0002396612191864,0.0006361728655323956
1492.9866846672576,1492.9866846672576,1.0005152298527316,0.0006353589339417217
1492.9936292942352,1492.9936292942352,0.999755221300141,0.0006354731731806701
1493.0005739211192,1493.0005739211192,1.0013349141161072,0.0006356218175033752
1493.0075185480032,1493.0075185480032,0.9993866819608568,0.0006359864865482691
1493.014463174794,1493.014463174794,0.9994583929944069,0.0006354113817414824
1493.021407801632,1493.021407801632,1.000382054641197,0.0006357541288815173
1493.028352428283,1493.028352428283,0.9992579844694083,0.0006352301206760346
1493.0352970550277,1493.0352970550277,1.0009513800828393,0.0006362741242113014
1493.0422416817255,1493.0422416817255,0.9997547212621966,0.0006357509931963514
1493.0491863082368,1493.0491863082368,1.0007249100009887,0.0006360380020635152
1493.0561309348882,1493.0561309348882,1.0003631856778286,0.0006356720051827466
1493.0630755614,1493.0630755614,0.9995777366197773,0.0006352941435198553
1493.0700201879113,1493.0700201879113,1.0008107818660836,0.0006359127831568644
1493.0769648143296,1493.0769648143296,0.9992499573075261,0.0006353530365607255
1493.0839094407015,1493.0839094407015,1.0007563007281743,0.0006358110363164562
1493.0908540670732,1493.0908540670732,0.9999047003016731,0.0006360633056481181
1493.0977986933526,1493.0977986933526,0.9992073120138658,0.0006351750448625301
1493.1047433196316,1493.1047433196316,0.999898594484524,0.0006356318112425218
1493.1116879458168,1493.1116879458168,0.9997322805388968,0.0006356084362843163
1493.1186325720025,1493.1186325720025,1.0003803819057886,0.0006356212643384768
1493.1255771981419,1493.1255771981419,1.0002992671468598,0.000635541333029998
1493.1325218242341,1493.1325218242341,0.9995620674917806,0.0006355186794115909
1493.1394664502336,1493.1394664502336,1.00043573676,0.0006355408258026724
1493.1464110762329,1493.1464110762329,1.000057016861239,0.0006359355605883013
1493.1533557021855,1493.1533557021855,0.9996401533467022,0.0006354692272501234
1493.1603003280452,1493.1603003280452,1.0011750790610918,0.0006362048604310921
1493.1672449539517,1493.1672449539517,0.9988815112017242,0.0006357818274272697
1493.1741895797647,1493.1741895797647,0.9995038417639295,0.0006352852113310288
1493.1811342055312,1493.1811342055312,0.9998307560776919,0.0006357169306356516
1493.1880788312512,1493.1880788312512,1.0009219419943074,0.0006362545503041367
1493.1950234569244,1493.1950234569244,0.9996855229644913,0.0006355058092324783
1493.201968082551,1493.201968082551,0.9995122276990756,0.0006353640374492573
1493.2089127081779,1493.2089127081779,1.0003198258561592,0.0006356555473360164
1493.2158573336656,1493.2158573336656,1.0009887691534767,0.000635607843325423
1493.222801959152,1493.222801959152,1.0002238783258763,0.0006353284402411219
1493.2297465846393,1493.2297465846393,1.000190922888343,0.0006353979769491956
1493.2366912100338,1493.2366912100338,0.9994744608341058,0.000635371200563325
1493.2436358353805,1493.2436358353805,0.9997340647137145,0.0006353183981377194
1493.2505804606817,1493.2505804606817,1.0000404033933337,0.0006354544661353017
1493.257525085936,1493.257525085936,0.9991390813633221,0.000635546979630394
1493.2644697111903,1493.2644697111903,0.9996820369332156,0.0006358067623759304
1493.271414336305,1493.271414336305,0.9997681996961569,0.0006353787891205129
1493.2783589614198,1493.2783589614198,1.0008369104747152,0.0006361955366676155
1493.2853035865344,1493.2853035865344,1.0005922636314024,0.0006357181458963632
1493.292248211556,1493.292248211556,0.9994641174613946,0.0006353622336534089
1493.2991928365311,1493.2991928365311,1.0000454170141913,0.000635237437801752
1493.3061374614595,1493.3061374614595,1.0005436029407047,0.0006358723954300337
1493.3130820863407,1493.3130820863407,1.000211820720081,0.0006354288262736292
1493.320026711223,1493.320026711223,1.0000712314412092,0.0006357723935803581
1493.3269713360114,1493.3269713360114,0.9997103965708701,0.0006351919320267629
1493.3339159608,1493.3339159608,0.9990456990586735,0.0006353961019053783
1493.3408605854952,1493.3408605854952,1.0001999398730363,0.0006359228939692383
1493.3478052101445,1493.3478052101445,1.0003962302771636,0.0006359819943085436
1493.3547498347466,1493.3547498347466,0.9995340696425412,0.0006354661260814241
1493.3616944593027,1493.3616944593027,1.0005764442907055,0.0006356677255403333
1493.3686390838584,1493.3686390838584,0.9998548602000165,0.0006356379868838282
1493.3755837082742,1493.3755837082742,0.9997383002005946,0.0006355232844680533
1493.3825283327837,1493.3825283327837,1.0004724683036539,0.0006356827565177779
1493.3894729571068,1493.3894729571068,0.9990357619941964,0.0006356269263530182
1493.3964175814294,1493.3964175814294,0.9996038181876308,0.0006354610306866533
1493.4033622057523,1493.4033622057523,1.0004194319577517,0.0006359230849271436
