time,time,flux,flux_err
1385.9550700854263,1385.9550700854263,0.9999539343671947,0.00038446293675228405
1385.9634036482291,1385.9634036482291,1.0000628073760542,0.0003844557680462388
1385.9717372109535,1385.9717372109535,0.9997668289203586,0.000384358194791391
1385.9793763100402,1385.9793763100402,0.9997250618514977,0.00035082202248686977
1385.9863209455204,1385.9863209455204,1.0001515438428812,0.000350864823393532
1385.9932655808602,1385.9932655808602,1.0004750057252167,0.0003509438968405588
1386.0002102161536,1386.0002102161536,1.0003869011884718,0.00035082378920714646
1386.0071548513545,1386.0071548513545,1.000275020821801,0.0003508591487506481
1386.014099486555,1386.014099486555,1.0000455209170158,0.0003508240974425153
1386.021044121615,1386.021044121615,0.9994224694331841,0.0003507040356702161
1386.0279887566298,1386.0279887566298,1.0001373019066535,0.00035082819934696805
1386.0349333916442,1386.0349333916442,0.9996043910019242,0.00035076404392737724
1386.041878026518,1386.041878026518,1.0002041644784565,0.0003508414545997667
1386.0488226613465,1386.0488226613465,1.0000822021744133,0.00035079658025042996
1386.055767296035,1386.055767296035,0.9998520170870397,0.000350769152528479
1386.0627119307223,1386.0627119307223,0.9998538463488819,0.0003507907479666599
1386.0696565653177,1386.0696565653177,1.0003456184983999,0.00035085290742422085
1386.0766011998667,1386.0766011998667,1.0001318775045496,0.0003508635382768493
1386.0835458343215,1386.0835458343215,0.9995827509998115,0.00035077128464897095
1386.09049046873,1386.09049046873,1.000143176539694,0.0003508163747556628
1386.097435103046,1386.097435103046,0.9999705207894056,0.0003508457827480628
1386.1043797373154,1386.1043797373154,1.000074435295792,0.00035086240792343696
1386.1113243714908,1386.1113243714908,1.00019137624132,0.0003509003392164949
1386.1182690055743,1386.1182690055743,0.9998035329087008,0.0003508066845353335
1386.1252136396572,1386.1252136396572,0.9998203483548214,0.00035081142047568186
1386.1321582735995,1386.1321582735995,1.000258729892736,0.0003508448562754222
1386.1391029075435,1386.1391029075435,0.9998274858642553,0.0003508432322604912
1386.1460475413937,1386.1460475413937,0.9998182932219525,0.00035083228520657985
1386.1529921751496,1386.1529921751496,0.9995698328540492,0.00035076972694866805
1386.159936808814,1386.159936808814,1.0003551575534335,0.00035089289142256126
1386.166881442478,1386.166881442478,1.0002747429006544,0.0003508506531164443
1386.173826076048,1386.173826076048,0.9999821895477258,0.00035081739837571904
1386.1807707095256,1386.1807707095256,1.000586492559433,0.00035091709482569234
1386.1877153429568,1386.1877153429568,0.9999702446231324,0.0003507685780746976
1386.1946599762944,1386.1946599762944,0.999510313799749,0.00035075963898104345
1386.2016046095855,1386.2016046095855,1.0003255478304418,0.0003508731077278819
1386.2085492428305,1386.2085492428305,0.9999179182443706,0.00035079789987164397
1386.215493875982,1386.215493875982,0.9994983921909029,0.00035071689507438825
1386.2224385090399,1386.2224385090399,0.9997483367890958,0.00035077269508939317
1386.2293831420525,1386.2293831420525,1.0001685584184057,0.00035078354628823255
1386.2363277750178,1386.2363277750178,0.9998586491269841,0.0003508433287796506
1386.2432724078424,1386.2432724078424,1.0002141592328035,0.0003508756827575381
1386.2502170406685,1386.2502170406685,1.0004394629828286,0.0003508563472246442
1386.2571616734015,1386.2571616734015,1.0001324090757215,0.0003508486118591498
1386.2641063060864,1386.2641063060864,1.000142069034317,0.0003508695415140135
1386.2710509385865,1386.2710509385865,1.0004337321261079,0.0003509016731177322
1386.2779955710862,1386.2779955710862,0.9992424373610722,0.0003507186867211153
1386.2849402035856,1386.2849402035856,1.0000749498450832,0.0003509200863830198
1386.291884836085,1386.291884836085,0.9994027073741846,0.0003507563795193624
1386.2988294683523,1386.2988294683523,0.9999184245100651,0.00035083616941168383
1386.3057741006191,1386.3057741006191,1.000079138901247,0.0003508660963811209
1386.3127187327918,1386.3127187327918,0.9999351728779938,0.00035087766213878145
1386.3196633649197,1386.3196633649197,1.0000248895015829,0.0003508507218988157
1386.326607996954,1386.326607996954,1.0005697165319147,0.0003508983570849799
1386.3335526289402,1386.3335526289402,1.0004557908713707,0.0003508714116682749
1386.3404972608353,1386.3404972608353,0.9995996677285472,0.0003507257037454972
1386.3474418927296,1386.3474418927296,0.9993956211596677,0.0003507217735913484
1386.3543865244835,1386.3543865244835,1.0002272590733257,0.0003508538127119664
1386.361331156192,1386.361331156192,1.0000134951328996,0.0003508345324093571
1386.3691091436606,1386.3691091436606,1.0001686916006949,0.0003509019401748563
1386.3766093456884,1386.3766093456884,1.0005977492617129,0.0003509107615332692
1386.383553977164,1386.383553977164,0.9999479286657916,0.0003508113411190337
1386.3904986085927,1386.3904986085927,0.9989264319932074,0.00035069757127006155
1386.3974432400678,1386.3974432400678,1.0007159170411168,0.0003509718390435768
1386.4043878711698,1386.4043878711698,0.9998312696737459,0.0003508253177680675
1386.4113325025057,1386.4113325025057,0.9992575050865622,0.00035076519977877887
1386.4182771336086,1386.4182771336086,1.000458870823326,0.0003509080721202531
1386.425221764664,1386.425221764664,1.0002590303976668,0.00035092262006839413
1386.4321663957203,1386.4321663957203,1.0000360325212907,0.00035085866532553556
1386.4391110266374,1386.4391110266374,1.0003275528937277,0.0003509352428740898
1386.4460556575063,1386.4460556575063,0.9994809405973353,0.00035077906305414834
1386.4530002883762,1386.4530002883762,1.000043669291926,0.00035090340287652827
1386.4599449191069,1386.4599449191069,1.0002213433533296,0.00035092168138096453
1386.4668895497437,1386.4668895497437,1.0000912146702219,0.00035085627496194143
1386.4738341803338,1386.4738341803338,1.000362581425011,0.00035088214295733293
1386.4807788108778,1386.4807788108778,0.9993831310495693,0.0003507451275907164
1386.4877234413289,1386.4877234413289,0.9999609237094651,0.0003508393860330189
1386.4946680717787,1386.4946680717787,1.000068775733407,0.00035088400950196365
1386.50161270209,1386.50161270209,0.9999956581192743,0.0003508425926225931
1386.5085573323547,1386.5085573323547,0.9999998615632075,0.00035081807834341447
1386.5155019625258,1386.5155019625258,1.0000833203676283,0.00035086998862717315
1386.522446592697,1386.522446592697,1.0000986221052506,0.0003508406672138347
1386.5293912227294,1386.5293912227294,0.9998880124730316,0.0003508058919184906
1386.5363358527607,1386.5363358527607,1.0004634027493853,0.0003509066505617411
1386.5432804826519,1386.5432804826519,0.9996240800273224,0.00035078743110325756
1386.5502251125447,1386.5502251125447,0.9994219796161739,0.000350750239324807
1386.557169742297,1386.557169742297,1.0002143847139229,0.00035081279564965157
1386.5646699424622,1386.5646699424622,1.0000213381370808,0.0003507904776902013
1386.5724479276491,1386.5724479276491,1.0004106409209106,0.0003508850296244917
1386.5793925572154,1386.5793925572154,1.0000459800717416,0.00035084723341724126
1386.586337186734,1386.586337186734,0.9999748630447305,0.00035085081952539583
1386.5932818161605,1386.5932818161605,0.9997377085962016,0.00035083264095446494
1386.6002264455406,1386.6002264455406,1.0001205346547937,0.0003509218061143878
1386.607171074827,1386.607171074827,1.0005851627163749,0.00035093902682593674
1386.6141157040665,1386.6141157040665,0.9996781504518273,0.00035081772173075335
1386.6210603332136,1386.6210603332136,0.9995023630218538,0.00035083653095888286
1386.628004962454,1386.628004962454,1.0000800585934226,0.00035091313982396583
1386.6349495914606,1386.6349495914606,0.9994680871452413,0.0003508276678103309
1386.6418942204214,1386.6418942204214,1.0000348439060318,0.00035087506247666095
1386.648838849243,1386.648838849243,1.0002890175941137,0.0003509056537710479
1386.6557834781092,1386.6557834781092,1.0001351194457397,0.0003508459840966962
1386.6627281068843,1386.6627281068843,1.0004184741621238,0.0003508844696559133
1386.6696727356123,1386.6696727356123,1.0001971480887832,0.0003508669399995573
1386.6766173642468,1386.6766173642468,1.0000531684992868,0.00035081172498144556
1386.6835619927876,1386.6835619927876,0.9993773872506948,0.0003506866648379138
1386.6905066213294,1386.6905066213294,0.999710669670753,0.0003507564299925302
1386.6974512497782,1386.6974512497782,1.0003200898446596,0.000350866399425219
1386.7043958780862,1386.7043958780862,1.000089538865747,0.0003507657911057325
1386.7113405064415,1386.7113405064415,0.9996766499136587,0.00035075224015409596
1386.718285134658,1386.718285134658,1.0001070199073618,0.00035083241951086006
1386.725229762826,1386.725229762826,1.000325149315922,0.0003508158812393707
1386.7321743909483,1386.7321743909483,1.0000899098690967,0.00035079906329283956
1386.7391190189317,1386.7391190189317,0.99963244192355,0.0003507050014970848
1386.746063646961,1386.746063646961,0.9999822628011253,0.00035077087077479963
1386.7530082748033,1386.7530082748033,0.9997724300249826,0.0003507197743752632
1386.759952902647,1386.759952902647,1.0009940326994144,0.0003509349970104745
1386.76689753049,1386.76689753049,1.0001789671738943,0.0003508799093400428
1386.7743977283274,1386.7743977283274,0.999188123611044,0.0003507182559644223
1386.7821757112786,1386.7821757112786,1.0002479776505422,0.00035084977519841964
1386.7891203388426,1386.7891203388426,0.9996788750594975,0.0003508182384276066
1386.7960649663596,1386.7960649663596,0.9997376926298489,0.0003507498174350307
1386.8030095937363,1386.8030095937363,1.0000453491843153,0.0003508324418615968
1386.8099542210675,1386.8099542210675,1.0001533863099685,0.00035088140582971883
1386.8168988484454,1386.8168988484454,1.0000477429681491,0.00035086040936383193
1386.823843475589,1386.823843475589,1.0002736573624218,0.00035090311062431907
1386.8307881027806,1386.8307881027806,0.9999307227675654,0.00035089692533622524
1386.8377327298786,1386.8377327298786,1.0002673649105898,0.0003509146446320821
1386.8446773568833,1386.8446773568833,1.0002097409462678,0.00035085570273799867
1386.8516219838414,1386.8516219838414,0.9998346456888771,0.0003508417674724044
1386.8585666107533,1386.8585666107533,0.999567356593516,0.00035078739300112326
1386.8655112375254,1386.8655112375254,0.9994947760545745,0.0003508366944645337
1386.87245586439,1386.87245586439,1.0002520547184495,0.0003508578495557355
1386.8794004910692,1386.8794004910692,0.9998243144213674,0.00035083421207282204
1386.8863451176553,1386.8863451176553,1.0003491208868716,0.0003509714008134135
1386.8932897441937,1386.8932897441937,1.0005370591128684,0.0003509380088959463
1386.9002343706866,1386.9002343706866,1.0002309746697402,0.0003509222091749967
1386.907178997133,1386.907178997133,0.9993427133373729,0.0003507552195395377
1386.914123623486,1386.914123623486,0.9998615206479851,0.00035081609339302806
1386.9210682497917,1386.9210682497917,1.0001333968806387,0.00035087077547022897
1386.9280128760051,1386.9280128760051,0.9997345464195482,0.0003507876298521207
1386.9349575021724,1386.9349575021724,0.9999235385015484,0.00035078845450230395
1386.9419021282915,1386.9419021282915,1.0003241919539547,0.00035092974926666086
1386.948846754319,1386.948846754319,1.0000290973578614,0.0003508624427778591
1386.9557913802528,1386.9557913802528,1.000084011352199,0.00035085915665560485
1386.9627360061866,1386.9627360061866,0.9999123262510864,0.00035083832703178985
1386.9696806319803,1386.9696806319803,1.0002069678017476,0.0003508577804969802
1386.9766252577747,1386.9766252577747,0.9996288515370795,0.0003507818436547791
1386.9846810236052,1386.9846810236052,1.0000931708745784,0.0003508706666739832
1386.991903434186,1386.991903434186,1.0001168663933986,0.00035083385081610295
1386.998848059701,1386.998848059701,1.0003200005088626,0.000350910745792751
1387.0057926852164,1387.0057926852164,0.9996470702473514,0.0003507752339716191
1387.0127373107302,1387.0127373107302,0.9998322615666595,0.0003508553143499936
1387.0196819360124,1387.0196819360124,0.9997290925980785,0.0003508332619131594
1387.026626561341,1387.026626561341,1.00002843147085,0.00035087859721588807
1387.0335711865766,1387.0335711865766,1.000396824373817,0.0003509117404910756
1387.040515811718,1387.040515811718,1.0001964550278317,0.0003508875803924126
1387.0474604368142,1387.0474604368142,0.9996423205735041,0.00035082734773590746
1387.0544050618637,1387.0544050618637,1.0006965059116362,0.00035097612110220717
1387.0613496868189,1387.0613496868189,0.9997681396131209,0.0003508355243600068
1387.068294311728,1387.068294311728,0.9999046055857885,0.0003508293281435211
1387.0752389365448,1387.0752389365448,0.9993934695203549,0.0003507797625149617
1387.0821835613147,1387.0821835613147,1.0001390639928966,0.00035088427597198597
1387.0891281859904,1387.0891281859904,1.0004239638189916,0.00035093050555997307
1387.0960728106675,1387.0960728106675,1.000194392147608,0.00035090211943626323
1387.1030174352045,1387.1030174352045,1.000088741795689,0.00035089450784985877
1387.1099620597877,1387.1099620597877,0.9993669820327377,0.00035073526603002437
1387.116906684138,1387.116906684138,0.9997643959320145,0.0003508308496076843
1387.123851308489,1387.123851308489,1.000109765505063,0.0003508297910937264
1387.1307959328399,1387.1307959328399,1.0000259124405062,0.0003508959321764176
1387.1377405571432,1387.1377405571432,0.9998801124466808,0.0003508141992999566
1387.1446851813075,1387.1446851813075,1.0005731362378938,0.0003509205484107414
1387.1516298053793,1387.1516298053793,1.000029253589536,0.0003508520498847217
1387.15857442945,1387.15857442945,1.0004620787161218,0.0003508963223304376
1387.1655190534277,1387.1655190534277,0.999558120132811,0.00035078268798100507
1387.1724636773597,1387.1724636773597,0.9998351709979243,0.00035084418600909317
1387.1794083011982,1387.1794083011982,1.0002617509514369,0.00035086945908292843
1387.1863529250356,1387.1863529250356,0.999447864793332,0.000350795538068028
1387.1932975486882,1387.1932975486882,0.9998757087482014,0.00035083222695925155
1387.200242172387,1387.200242172387,1.0001420285019624,0.00035089782430553125
1387.2071867959462,1387.2071867959462,0.9998931564666427,0.0003508756765424107
1387.2141314195044,1387.2141314195044,1.0002114108999631,0.000350872989947893
1387.2210760429239,1387.2210760429239,0.9998919306864753,0.00035083095356078003
1387.2280206662972,1387.2280206662972,1.000389573193124,0.00035091175939081697
1387.234965289716,1387.234965289716,1.0002202851899722,0.00035091616196804905
1387.2419099129024,1387.2419099129024,0.999753451074367,0.00035083135786957833
1387.248854536089,1387.248854536089,0.9998654129113203,0.00035082787586294934
1387.2557991592757,1387.2557991592757,1.0000805130585326,0.000350877534806298
1387.2627437823216,1387.2627437823216,1.000228955268256,0.000350862520603989
1387.269688405322,1387.269688405322,0.999603248165356,0.00035081052933793726
1387.2766330282761,1387.2766330282761,0.9999894909040281,0.00035085798410700844
1387.2835776511827,1387.2835776511827,1.000146077332142,0.00035089457043391465
1387.2905222739498,1387.2905222739498,1.00030489983591,0.00035091980416641856
1387.2974668967174,1387.2974668967174,0.9995037727689887,0.00035074185338249434
1387.304411519392,1387.304411519392,0.9999211296028019,0.00035082497945787956
1387.3124672816355,1387.3124672816355,1.0000184123304101,0.00035083869821152643
1387.321078613549,1387.321078613549,0.9998943242871065,0.0003508352649809993
1387.3280232359907,1387.3280232359907,1.000118987050249,0.0003508837117382149
1387.3360789980015,1387.3360789980015,1.0003784416750832,0.00035089315426584426
1387.3433014051839,1387.3433014051839,0.9999528951931069,0.00035086571349523946
1387.3508015972484,1387.3508015972484,0.9999473199834273,0.0003508319287476496
1387.3585795740526,1387.3585795740526,1.000214076838072,0.000350856103643407
1387.3655241960746,1387.3655241960746,0.9996609104306653,0.0003508262805818558
1387.3724688182836,1387.3724688182836,1.0003772473236845,0.00035090272627309293
1387.3794134401198,1387.3794134401198,0.9998744028077521,0.000350880955806542
1387.3863580621412,1387.3863580621412,0.9997439961553036,0.0003508714854601708
1387.3933026839309,1387.3933026839309,0.99988943293285,0.00035087827960706005
1387.400247305767,1387.400247305767,1.0001514343800693,0.00035089302571136534
1387.4071919274634,1387.4071919274634,0.9995551465600505,0.0003508234590782322
1387.4141365491591,1387.4141365491591,1.0000089277596929,0.0003508611624238589
1387.421081170716,1387.421081170716,1.0001420008651571,0.0003508836604407236
1387.4280257922267,1387.4280257922267,1.0003977307971972,0.0003508948123017243
1387.4349704136896,1387.4349704136896,0.9999244082812778,0.000350839512671848
1387.4419150351064,1387.4419150351064,1.0002098071428254,0.00035087339822070346
1387.4488596564308,1387.4488596564308,0.9999370916442277,0.0003508370697555257
1387.455804277708,1387.455804277708,0.9998303645804695,0.000350816602016152
1387.4627488988913,1387.4627488988913,0.9998841604009645,0.00035083596713054066
1387.4696935200293,1387.4696935200293,0.9997513423033372,0.0003508456205342835
1387.4766381411205,1387.4766381411205,1.0003135943892651,0.0003509145208218866
1387.4835827620714,1387.4835827620714,1.0000881907750556,0.00035085636860525524
1387.4905273831619,1387.4905273831619,1.0000038465466794,0.0003508565607029439
1387.4974720040204,1387.4974720040204,1.0006205604724911,0.00035098084247778586
1387.5044166248324,1387.5044166248324,0.9994652993271768,0.0003507197109215023
1387.5113612455036,1387.5113612455036,0.999675823181345,0.00035077809000154777
1387.5183058662221,1387.5183058662221,0.9998906746722002,0.0003508571975292359
1387.5252504868479,1387.5252504868479,1.000275294126903,0.00035090035688780026
1387.5321951074268,1387.5321951074268,1.0001569673452648,0.0003508466994291694
1387.5391397279118,1387.5391397279118,1.0000763957514427,0.00035080652605350404
1387.546084348351,1387.546084348351,0.9993687626374367,0.00035076147548982275
1387.5530289687438,1387.5530289687438,1.0002578553869812,0.00035085184664953954
1387.5599735889966,1387.5599735889966,1.0003550522029145,0.00035093222464175223
1387.5669182092486,1387.5669182092486,0.9998479947319158,0.00035079517051846414
1387.5738628294087,1387.5738628294087,0.9999550861781739,0.0003508436409744973
1387.5808074495221,1387.5808074495221,1.0001342566834808,0.0003508471192337669
1387.5877520695417,1387.5877520695417,1.000249887674134,0.0003508762285090816
1387.5946966895613,1387.5946966895613,0.9994812701141832,0.00035076223692053274
1387.6016413094417,1387.6016413094417,1.0000426747828703,0.00035085965760143237
1387.608585929369,1387.608585929369,0.9999056984505433,0.0003508340358145209
1387.6155305490622,1387.6155305490622,1.0001976842781037,0.00035081075674127897
1387.6224751687562,1387.6224751687562,0.9997971375238395,0.00035082966032894277
1387.629419788451,1387.629419788451,0.9999047737725167,0.00035081118368805367
1387.6363644081453,1387.6363644081453,1.0003763364138536,0.0003508984817215967
1387.6433090276055,1387.6433090276055,0.9993467357614406,0.0003507606746580597
1387.6502536471137,1387.6502536471137,0.9998397997309967,0.00035085564577510826
1387.6571982664816,1387.6571982664816,0.9999057114532143,0.0003509056460592517
1387.6641428858493,1387.6641428858493,0.9999092830688164,0.00035081241470631897
1387.671087505124,1387.671087505124,1.000592783323239,0.00035093080430413247
1387.6780321243525,1387.6780321243525,1.0003338394037073,0.00035087246507928776
1387.6849767434883,1387.6849767434883,0.9995405943110998,0.00035081204892438493
1387.691921362576,1387.691921362576,0.9998976043736368,0.0003508016267630737
1387.6988659815715,1387.6988659815715,0.9999832156957831,0.00035083785699384866
1387.7058106005675,1387.7058106005675,0.999806992320446,0.0003507441692909135
1387.7127552194702,1387.7127552194702,0.9997449972877904,0.00035076962264623943
1387.7196998382783,1387.7196998382783,0.9997551322258431,0.00035077971083516185
