time,time,flux,flux_err
1325.3002543299028,1325.3002543299028,0.999747586244235,0.0002505885152491814
1325.308587603986,1325.308587603986,1.0003007002654056,0.000250757014756509
1325.3162264387474,1325.3162264387474,0.9999511476148765,0.00022890167056335552
1325.3231708341548,1325.3231708341548,1.0001953112470718,0.00022899393299547185
1325.3301152297015,1325.3301152297015,0.9999291709484112,0.000228990352409999
1325.3370596254117,1325.3370596254117,1.0000084507370486,0.00022906340038618525
1325.3440040212383,1325.3440040212383,0.9997211906924901,0.0002290929187166251
1325.350948417204,1325.350948417204,1.0001020114439503,0.00022915763460700368
1325.3578928133334,1325.3578928133334,1.0000418252974432,0.0002292042552874725
1325.364837209579,1325.364837209579,1.0000363410847666,0.00022928479820631805
1325.3717816059643,1325.3717816059643,0.9999520473484187,0.00022932922118734
1325.378726002489,1325.378726002489,0.9998186146386552,0.0002293672463048333
1325.3856703991771,1325.3856703991771,0.9999626777893506,0.00022942671975436697
1325.3926147959812,1325.3926147959812,1.0002955443951507,0.00022951268319116577
1325.399559192925,1325.399559192925,0.9998871553838844,0.00022950510577374487
1325.4065035899623,1325.4065035899623,0.9997968520609412,0.0002295307770978239
1325.4134479872087,1325.4134479872087,1.0000597325050715,0.0002296088714858161
1325.420392384549,1325.420392384549,1.0003080265281947,0.00022966713630895866
1325.4273367820283,1325.4273367820283,0.999935926758666,0.00022967203431017825
1325.4342811796007,1325.4342811796007,1.0001640278740909,0.0002297511226455383
1325.44122557736,1325.44122557736,1.0000522132592742,0.00022975169042274108
1325.4481699751884,1325.4481699751884,0.9998870492673211,0.00022980023411240955
1325.45511437318,1325.45511437318,0.9999527479455553,0.00022985179902165688
1325.462058771265,1325.462058771265,0.999935338704943,0.0002298864347900071
1325.4690031695127,1325.4690031695127,0.9999049497917225,0.0002299251186544731
1325.475947567854,1325.475947567854,0.9998118318972112,0.00022995370384786465
1325.482891966311,1325.482891966311,1.0002315472695766,0.00023005647302623864
1325.4898363649083,1325.4898363649083,0.9996851746058377,0.00023004018471522777
1325.4967807636453,1325.4967807636453,1.0002362822360698,0.00023015814346048587
1325.503725162498,1325.503725162498,1.0002141602183419,0.00023020153092448534
1325.5106695614218,1325.5106695614218,1.0000115408426364,0.00023022975095426742
1325.5176139604841,1325.5176139604841,0.9999932150825046,0.00023028542034037898
1325.5245583596866,1325.5245583596866,0.9998325225280891,0.0002303242292471063
1325.5315027589588,1325.5315027589588,1.0002256341362732,0.00023040917436251466
1325.5384471583943,1325.5384471583943,1.0003034770469297,0.0002304796967484048
1325.5453915578992,1325.5453915578992,0.9995548512721895,0.0002304311389419342
1325.5523359575209,1325.5523359575209,0.9998318250015286,0.00023051816222710762
1325.5592803572822,1325.5592803572822,1.0000807528742142,0.00023058971450634668
1325.566224757113,1325.566224757113,0.9999280042233369,0.00023063307307266806
1325.573169157084,1325.573169157084,0.9998153297119726,0.00023064972772500898
1325.5801135571483,1325.5801135571483,0.9999782569415295,0.00023072278707836165
1325.5870579573282,1325.5870579573282,1.000065669571359,0.00023076208331279739
1325.5940023576018,1325.5940023576018,1.0004913606807153,0.00023083663537496534
1325.6009467579913,1325.6009467579913,1.0000632966478182,0.00023081023405476723
1325.6078911584514,1325.6078911584514,0.9998052339292212,0.00023081208184838175
1325.6148355590508,1325.6148355590508,1.0004538093267956,0.00023089531976458547
1325.6217799597434,1325.6217799597434,0.9994762804573509,0.00023081628786113516
1325.628724360529,1325.628724360529,0.9999620207466158,0.00023088025151935093
1325.6356687614311,1325.6356687614311,1.0000249739707274,0.00023088730842408468
1325.6426131624264,1325.6426131624264,1.0000508894615756,0.00023092022468107465
1325.6495575634913,1325.6495575634913,1.0000133383427534,0.0002309067903376948
1325.656501964673,1325.656501964673,0.9996311512581766,0.0002308766355375251
1325.6634463659707,1325.6634463659707,1.0001448799849393,0.000230933504157043
1325.6703907673386,1325.6703907673386,1.0001172435957186,0.00023092815831602322
1325.6773351687993,1325.6773351687993,1.0003318610730805,0.00023096307693343636
1325.6842795703537,1325.6842795703537,0.999751975793313,0.00023089470389165597
1325.6912239720011,1325.6912239720011,0.999658234709935,0.00023090827177309745
1325.6981683736947,1325.6981683736947,0.999954463847277,0.00023095093853762422
1325.705112775575,1325.705112775575,1.0003720940800274,0.0002310020320387917
1325.712057177501,1325.712057177501,0.9999823445883275,0.0002309920570184718
1325.7190015794745,1325.7190015794745,0.999721139987523,0.0002309914534411383
1325.7259459815637,1325.7259459815637,1.0002063746514556,0.00023107517034616729
1325.7328903837465,1325.7328903837465,1.0004483650393836,0.00023108191255105494
1325.7398347860226,1325.7398347860226,1.000291725804293,0.00023111499902644207
1325.746779188368,1325.746779188368,0.9995359847051228,0.00023107040170462925
1325.7537235907835,1325.7537235907835,0.9996925603770329,0.00023111451132547053
1325.7606679932924,1325.7606679932924,0.9999012898628014,0.00023117086426873015
1325.767612395894,1325.767612395894,0.9999487148504734,0.00023122001719480984
1325.7745567985658,1325.7745567985658,1.0000560092615078,0.00023127026524090758
1325.7815012013302,1325.7815012013302,1.000280864745682,0.00023132678761863084
1325.7884456041888,1325.7884456041888,0.9997577931481109,0.00023128234307802755
1325.7953900071159,1325.7953900071159,1.0003529066690784,0.00023138502931385087
1325.802334410067,1325.802334410067,0.9996018650266747,0.0002313077040895021
1325.8092788131348,1325.8092788131348,1.0002830505463716,0.00023140331280021176
1325.8162232162717,1325.8162232162717,0.9995833887153323,0.000231346096415844
1325.8231676195026,1325.8231676195026,1.0003817601339027,0.00023145004623669748
1325.8301120228025,1325.8301120228025,0.9997593869214864,0.00023139764615194265
1325.837056426149,1325.837056426149,1.0006110375218566,0.00023147691064052665
1325.8440008295897,1325.8440008295897,0.9998903940973026,0.0002314210379742245
1325.8509452330989,1325.8509452330989,0.9995468932395711,0.00023136928828625873
1325.8578896366787,1325.8578896366787,0.9999581414596783,0.00023139324052783011
1325.8648340403518,1325.8648340403518,0.9998598294585725,0.00023139989515848377
1325.8717784440712,1325.8717784440712,1.0002578239149424,0.0002313917674442659
1325.8787228478604,1325.8787228478604,1.0001144812053921,0.00023135270487160796
1325.8856672517425,1325.8856672517425,0.9999346926747869,0.0002313217957977951
1325.8926116556484,1325.8926116556484,1.0002840998923752,0.00023133738361512333
1325.8995560596472,1325.8995560596472,1.0000360317870374,0.00023130319982788534
1325.906500463739,1325.906500463739,0.9997842018522183,0.00023123997306633988
1325.9134448678305,1325.9134448678305,0.9999009880367243,0.00023122901027917698
1325.9203892720157,1325.9203892720157,0.9998431487687721,0.00023122024745298857
1325.927333676294,1325.927333676294,1.0002718318208248,0.0002312693914100839
1325.934278080595,1325.934278080595,0.9996870661758676,0.00023119063006668406
1325.9412224849902,1325.9412224849902,1.0000956211646546,0.00023122669376292714
1325.948166889408,1325.948166889408,1.0003010832721904,0.00023122886192915803
1325.955111293919,1325.955111293919,1.0001022989701491,0.00023121392531428512
1325.9626112508506,1325.9626112508506,0.9997553262519991,0.0002311730508413469
1325.9703889840619,1325.9703889840619,0.9994792035796486,0.00023110656244117625
1325.977333388736,1325.977333388736,1.0001575447267388,0.00023120339994308622
1325.9842777935028,1325.9842777935028,0.9998942932068875,0.00023117048958004718
1325.9912221983166,1325.9912221983166,1.0002799553512032,0.0002311955410419072
1325.998166603177,1325.998166603177,1.0001792047805187,0.00023122095146687035
1326.005111008107,1326.005111008107,1.0002331027185671,0.00023124846759649032
1326.012055413084,1326.012055413084,1.0000426795838098,0.0002312635022621291
1326.0189998181302,1326.0189998181302,0.9999288321365736,0.00023127117748473594
1326.0259442232232,1326.0259442232232,0.9998109703643449,0.000231282968100525
1326.0328886283633,1326.0328886283633,1.0000736364121507,0.00023135504900787543
1326.0398330335954,1326.0398330335954,0.9999520941896012,0.00023133474131770934
1326.046777438852,1326.046777438852,1.000078255093984,0.00023133887837104976
1326.0537218441077,1326.0537218441077,0.999646438001146,0.0002313111066225759
1326.0606662495036,1326.0606662495036,0.9998307792709327,0.0002313225399862577
1326.0676106548992,1326.0676106548992,1.000227120899675,0.00023139731136079047
1326.0745550603647,1326.0745550603647,1.0001351354781263,0.00023137946234881246
1326.0814994658538,1326.0814994658538,1.0000718094716654,0.0002313792308521972
1326.0884438714124,1326.0884438714124,1.0001233145813135,0.0002313864073036908
1326.0953882770414,1326.0953882770414,1.0001438747400266,0.0002314003592684142
1326.102332682693,1326.102332682693,0.99993767735523,0.000231401602839558
1326.1092770883915,1326.1092770883915,0.9998102535393144,0.00023136471232990493
1326.1162214941598,1326.1162214941598,1.00002921570893,0.00023139649922987478
1326.1231658999277,1326.1231658999277,0.999433545578167,0.00023133029680504468
1326.1301103057663,1326.1301103057663,1.0002915667966341,0.0002314194294458209
1326.1370547117208,1326.1370547117208,0.9999958880774406,0.00023139065351203276
1326.1439991176287,1326.1439991176287,1.0002546558051326,0.00023143963440114523
1326.1509435236067,1326.1509435236067,0.999779158032295,0.00023137768022837211
1326.1578879296305,1326.1578879296305,1.0003488696685288,0.0002314179171495792
1326.1648323357022,1326.1648323357022,1.0002383215893764,0.00023142337713940035
1326.171776741819,1326.171776741819,0.9996282117953493,0.00023136337893575972
1326.1787211479834,1326.1787211479834,0.9997925802527963,0.00023135246637421598
1326.185665554171,1326.185665554171,1.0002597322786255,0.0002314061928130224
1326.1926099604277,1326.1926099604277,0.9997575442860942,0.00023134450205919318
1326.1995543667085,1326.1995543667085,0.9999682930397988,0.00023136973169032979
1326.2064987730123,1326.2064987730123,1.0001400842462105,0.00023135776912153798
1326.213443179433,1326.213443179433,0.9997311172705267,0.00023134944909673983
1326.2203875857363,1326.2203875857363,0.9998594802856351,0.00023134478142499987
1326.2273319922729,1326.2273319922729,1.0002153140643548,0.00023137229134973948
1326.234276398693,1326.234276398693,1.000221690492166,0.00023140080912913223
1326.2412208052297,1326.2412208052297,1.0005328641743776,0.00023141015267567344
1326.24816521179,1326.24816521179,1.000133969928987,0.00023135439884076217
1326.255109618373,1326.255109618373,0.9997817358342729,0.00023134469689921507
1326.2620540250261,1326.2620540250261,0.999796628675718,0.00023133427697760305
1326.2689984317026,1326.2689984317026,0.9992221933419261,0.0002312697357504751
1326.2759428384015,1326.2759428384015,0.999930592470181,0.00023135069079620942
1326.2828872451482,1326.2828872451482,1.000319595706031,0.00023136394577799466
1326.2898316519174,1326.2898316519174,1.0000721456609396,0.0002313378543157151
1326.2967760587337,1326.2967760587337,1.0001011396924397,0.00023136905854294343
1326.3037204655961,1326.3037204655961,1.000071765752427,0.0002313605721672394
1326.3106648724588,1326.3106648724588,0.9999232817553267,0.00023133122073872324
1326.3176092793678,1326.3176092793678,1.0001297872780335,0.0002313271532864948
1326.3245536863465,1326.3245536863465,1.0002963602464998,0.00023137144283528173
1326.3314980933494,1326.3314980933494,1.0001283053649102,0.00023135852051392258
1326.3384425003512,1326.3384425003512,1.000069535963322,0.0002313667732591109
1326.345386907354,1326.345386907354,0.9994022310555618,0.00023131215966136452
1326.355109077297,1326.355109077297,0.9999336704183367,0.00023138937904279913
1326.3620534844151,1326.3620534844151,0.9997887654470405,0.00023136873274129822
1326.3689978915806,1326.3689978915806,1.000204404471998,0.00023142438069314155
1326.3759422987457,1326.3759422987457,1.0001398932478567,0.00023141940567040692
1326.3828867059813,1326.3828867059813,0.9998473766432149,0.00023139224338109273
1326.3898311132161,1326.3898311132161,0.9999767433317167,0.00023141075345895298
1326.3967755204744,1326.3967755204744,1.0002256872285966,0.0002314597747651154
1326.4037199278027,1326.4037199278027,0.9994509364079356,0.00023138953834325363
1326.410664335131,1326.410664335131,0.9999960211293495,0.00023144525746859168
1326.417608742506,1326.417608742506,1.0003343765460853,0.00023147911895192577
1326.424553149904,1326.424553149904,1.0000221675627472,0.00023147175963303147
1326.4314975573022,1326.4314975573022,0.9998527850501129,0.00023147059790292666
1326.4384419647465,1326.4384419647465,1.0001151100186148,0.00023150833152186197
1326.4453863722147,1326.4453863722147,0.9998811238598936,0.0002314984721099565
1326.4523307797294,1326.4523307797294,1.0001005309936464,0.00023151373399570003
1326.4592751872206,1326.4592751872206,0.9998439734977099,0.00023150584371619225
1326.4662195947815,1326.4662195947815,0.9998882523904642,0.0002315030287874561
1326.473164002366,1326.473164002366,1.0002906847487008,0.00023156921511895213
1326.4801084099504,1326.4801084099504,0.9996611000286488,0.00023150902197315555
1326.4870528176045,1326.4870528176045,0.9999579890215704,0.00023155682409274213
1326.4939972252355,1326.4939972252355,0.999997521913145,0.00023157299342148704
1326.5009416329362,1326.5009416329362,1.000010206138355,0.0002315898900466136
1326.5078860406136,1326.5078860406136,1.0006509195468059,0.00023164782168550997
1326.5148304483612,1326.5148304483612,0.9997403501088762,0.00023158316495256294
1326.521774856085,1326.521774856085,1.0001157919001105,0.0002316354324825202
1326.528719263856,1326.528719263856,0.9998325973821913,0.00023164579207452088
1326.5356636716729,1326.5356636716729,0.9996867373817606,0.00023165056258289893
1326.542608079467,1326.542608079467,1.0001483278780308,0.00023172885330339675
1326.5495524873309,1326.5495524873309,0.9999730734773127,0.00023173410752386155
1326.5564968951478,1326.5564968951478,1.0003228747514696,0.00023178134428989897
1326.5634413030582,1326.5634413030582,0.9997384529511152,0.00023172520946894738
1326.5703857109684,1326.5703857109684,1.0001525209659223,0.00023175592410393163
1326.5773301188788,1326.5773301188788,0.9995137452822199,0.00023170181817158643
1326.5842745268355,1326.5842745268355,1.0000296335745729,0.00023173986529889746
1326.5912189347928,1326.5912189347928,1.0000413143126519,0.00023176891898956127
1326.598163342796,1326.598163342796,1.0000403126136417,0.00023175271792182992
1326.6051077507996,1326.6051077507996,1.0001503992444032,0.00023177655197511907
1326.6120521588264,1326.6120521588264,1.0001709158414882,0.00023181075281063115
1326.6189965668764,1326.6189965668764,1.0000248646571663,0.0002318055881581406
1326.6259409749262,1326.6259409749262,1.0001665803775261,0.00023180796856152197
1326.6328853829996,1326.6328853829996,0.9999563365362706,0.00023179436084667793
1326.6398297911428,1326.6398297911428,0.9999428405333857,0.00023177622813467424
1326.6467741992162,1326.6467741992162,0.9998678399413269,0.00023179439638544677
1326.6537186073592,1326.6537186073592,0.9998105083453857,0.0002317670376816953
1326.6606630155259,1326.6606630155259,0.9999350481713257,0.00023179060340663553
1326.667607423692,1326.667607423692,1.000202315362729,0.0002317947730798232
1326.6745518318821,1326.6745518318821,0.999906100144592,0.0002317715883977113
1326.6814962401415,1326.6814962401415,1.0000096467574002,0.0002317389113498262
1326.6892739773343,1326.6892739773343,1.0001023345591797,0.00023171142714702771
1326.696773938224,1326.696773938224,1.0001689001778422,0.00023172392086440798
1326.7037183465068,1326.7037183465068,0.9999882649605443,0.00023165428971103777
1326.7109405310935,1326.7109405310935,0.9996350829181029,0.00023160913025626028
1326.7189960447295,1326.7189960447295,1.0001001186171405,0.0002316444428103295
1326.7259404530355,1326.7259404530355,0.9997332459517144,0.00023157640489108395
1326.732884861365,1326.732884861365,1.0003275570661474,0.00023163720738865012
1326.7398292697176,1326.7398292697176,1.0003932145000511,0.0002316397399641517
1326.7467736780704,1326.7467736780704,0.9997540035289465,0.00023155821590289195
1326.753718086446,1326.753718086446,1.0001977260740538,0.0002315899714731904
1326.7606624948223,1326.7606624948223,1.000141336160618,0.0002315837377326038
1326.7676069032445,1326.7676069032445,0.9998995308084734,0.00023152714360844036
1326.774551311644,1326.774551311644,0.9993581190365468,0.00023149132071989764
1326.7814957200899,1326.7814957200899,0.9999882347897973,0.00023152080245000874
1326.7884401285123,1326.7884401285123,1.0005354962231583,0.00023160322202676957
1326.7953845369586,1326.7953845369586,0.9997986292996155,0.00023152539628712633
1326.8023289454743,1326.8023289454743,1.000075688580946,0.00023155648140093816
1326.8092733539197,1326.8092733539197,1.000426974321186,0.00023159430715205938
1326.8162177624351,1326.8162177624351,1.000202880688918,0.0002315574082199332
1326.8231621709278,1326.8231621709278,0.9998421544732393,0.00023150520617664733
1326.8301065794435,1326.8301065794435,0.9993751531744198,0.00023146343932907686
1326.8370509879828,1326.8370509879828,1.0000657514824023,0.00023154172279825895
1326.8439953965217,1326.8439953965217,1.000186044034105,0.0002315435369090129
1326.8509398050605,1326.8509398050605,1.0003097227435487,0.00023154743235292362
1326.8578842136692,1326.8578842136692,1.000084064362438,0.00023151159737151844
1326.8648286222085,1326.8648286222085,0.9999783992842388,0.0002314993865072181
1326.8717730308174,1326.8717730308174,0.9999151772353594,0.00023147233032876552
1326.878717439426,1326.878717439426,1.000035951580425,0.00023148703047970432
1326.8856618480115,1326.8856618480115,0.9997144690835805,0.00023140260238758856
1326.8926062566438,1326.8926062566438,1.000121154154327,0.00023141065376087447
1326.899550665276,1326.899550665276,0.9999353519382719,0.0002313429822841864
1326.9064950739312,1326.9064950739312,0.9997893374265516,0.0002313423366275926
1326.9134394825633,1326.9134394825633,1.0001140301082225,0.0002312944958728879
1326.9203838912188,1326.9203838912188,1.0002799976169952,0.00023131353559457027
1326.9273282999206,1326.9273282999206,1.0000936293391933,0.0002312388582416773
1326.9342727085764,1326.9342727085764,0.99986158687057,0.00023116925687733265
1326.9412171172778,1326.9412171172778,1.000096020034854,0.00023117387377381867
1326.9481615259567,1326.9481615259567,0.9996597802633638,0.00023107804420033568
1326.9551059347052,1326.9551059347052,1.0002261799123509,0.00023111754469390755
1326.962050343384,1326.962050343384,1.0001405535092052,0.00023106910161215134
1326.968994752086,1326.968994752086,0.9997172149895797,0.00023100085946024316
1326.975939160834,1326.975939160834,0.9996824715897141,0.00023094379885583598
1326.982883569583,1326.982883569583,1.000379156486296,0.00023101515357085454
1326.9898279783315,1326.9898279783315,1.0002378525876685,0.00023098602055555062
1326.9967723870805,1326.9967723870805,0.9998095328521577,0.0002308850030843503
1327.0037167958285,1327.0037167958285,1.0000746865446888,0.00023094949698630464
1327.010661204577,1327.010661204577,0.9999657051926855,0.00023089895877471592
1327.017605613442,1327.017605613442,1.0001548223486236,0.0002309212176262154
1327.0245500221904,1327.0245500221904,0.9998005144934995,0.00023088689371682187
1327.0314944309623,1327.0314944309623,0.9999465517063653,0.00023091186703447578
1327.0384388398038,1327.0384388398038,1.0001571371009663,0.00023091523840371663
1327.0453832485528,1327.0453832485528,0.9994550305266439,0.00023086978772830015
1327.0523276574174,1327.0523276574174,1.000270499202839,0.00023093158317502664
