time,time,flux,flux_err
1491.6400558452876,1491.6400558452876,1.0007277925426379,0.000493441000989044
1491.6483895423225,1491.6483895423225,0.9998217571410949,0.0004927145604278843
1491.6560287646391,1491.6560287646391,0.999587738684345,0.0004495846295858292
1491.6629735121298,1491.6629735121298,0.9995139499577312,0.0004492382197498447
1491.6699182597135,1491.6699182597135,0.9993160651791475,0.0004490915444550924
1491.6768630072968,1491.6768630072968,1.0000124918247528,0.0004490575135461428
1491.6838077548805,1491.6838077548805,1.0003211844866327,0.0004487838830888137
1491.690752502464,1491.690752502464,1.0001707430129705,0.0004484933445205792
1491.6976972500474,1491.6976972500474,1.0000961542036775,0.00044822946384417495
1491.704641997631,1491.704641997631,1.0006532804571011,0.00044847212742300097
1491.7115867452146,1491.7115867452146,0.9999368308635574,0.00044815076948165734
1491.7185314927985,1491.7185314927985,0.9996820581834222,0.0004477158529008499
1491.7254762403816,1491.7254762403816,0.9994940013276035,0.0004473677354177977
1491.7324209879655,1491.7324209879655,0.9996260244808127,0.000447336222693757
1491.7393657354557,1491.7393657354557,1.0001379001679793,0.0004472259745194018
1491.7463104829462,1491.7463104829462,1.000906748106032,0.0004470766102067024
1491.7532552305295,1491.7532552305295,1.000123215020336,0.00044708897976177746
1491.7601999780202,1491.7601999780202,0.9997843739819288,0.00044687018706304413
1491.7671447255102,1491.7671447255102,1.0000248415750013,0.0004468901234689124
1491.774089473001,1491.774089473001,0.9997860946384348,0.0004467864444290739
1491.7810342204912,1491.7810342204912,0.9996607434371587,0.00044660970000173935
1491.787978967795,1491.787978967795,1.000160476272153,0.00044652614598074847
1491.7949237152857,1491.7949237152857,1.0000636150108166,0.0004463678569319921
1491.80186846259,1491.80186846259,1.0001419203748925,0.0004463918779559606
1491.808813209987,1491.808813209987,1.000074310510185,0.0004463461790661434
1491.815757957291,1491.815757957291,0.9996848484622903,0.0004459662793301806
1491.822702704502,1491.822702704502,0.9997071339532548,0.00044585437472245953
1491.829647451806,1491.829647451806,1.0001203747561394,0.000445801894573093
1491.8365921990173,1491.8365921990173,0.9999731276072981,0.00044587638252048376
1491.8435369461351,1491.8435369461351,0.9996941280109279,0.0004455910018296685
1491.8504816932525,1491.8504816932525,1.0003623902588026,0.00044569477681547995
1491.857426440371,1491.857426440371,0.9999886891207753,0.0004455343316970709
1491.864371187396,1491.864371187396,1.0005001192174245,0.0004455047570755214
1491.8713159344206,1491.8713159344206,1.0003916459861166,0.00044539124014203614
1491.8782606814452,1491.8782606814452,1.0000732275863484,0.0004451254093364261
1491.8852054283768,1491.8852054283768,0.9994573299379598,0.0004450110888161108
1491.8921501752152,1491.8921501752152,0.9991492974498849,0.00044489620440118783
1491.8990949220538,1491.8990949220538,0.9997892656772194,0.00044507982810021256
1491.906039668799,1491.906039668799,1.0009836556369414,0.0004450001895277398
1491.9129844156378,1491.9129844156378,0.9996368964922192,0.00044497484344785756
1491.9199291621967,1491.9199291621967,1.000347154855838,0.0004448078121094867
1491.9268739087554,1491.9268739087554,0.9998456233406776,0.00044475598248496065
1491.9338186553148,1491.9338186553148,1.0004741409430389,0.00044483147370120974
1491.9407634018735,1491.9407634018735,0.9997703771492457,0.00044476720945715745
1491.9477081484326,1491.9477081484326,0.9994840020221188,0.0004446387168791255
1491.9546528949923,1491.9546528949923,0.9997009189407482,0.0004445979557920284
1491.961597641085,1491.961597641085,1.0006802398179637,0.00044461938503480714
1491.9685423875512,1491.9685423875512,0.9999551055591445,0.0004446346572965251
1491.975487133738,1491.975487133738,1.0004318768038416,0.00044453555003651647
1491.9824318799242,1491.9824318799242,0.9999834059421155,0.00044451184442107476
1491.9893766260177,1491.9893766260177,0.9997007794336911,0.0004445139955681328
1491.9963213721117,1491.9963213721117,1.0003228883141824,0.0004444942531496488
1492.0032661180187,1492.0032661180187,0.9993500521906371,0.0004443324324439348
1492.010210864019,1492.010210864019,0.9995642794543087,0.000444474972073082
1492.017155609926,1492.017155609926,1.000114460971255,0.00044446009418882686
1492.0241003557398,1492.0241003557398,1.0003328775639193,0.0004445026601963096
1492.0310451013677,1492.0310451013677,1.0001280438371585,0.00044440940046471905
1492.0379898470887,1492.0379898470887,0.9999829614289094,0.00044443301255878446
1492.0449345927166,1492.0449345927166,1.000228334966589,0.0004443895797142163
1492.0518793382507,1492.0518793382507,0.9994983253174267,0.0004443328965714825
1492.0588240836926,1492.0588240836926,1.0000935769322497,0.00044424705648296966
1492.065768829134,1492.065768829134,1.0003899218068582,0.0004444313906485019
1492.0727135744823,1492.0727135744823,1.0001381311510629,0.00044430435678072505
1492.079658319644,1492.079658319644,0.9998298745881421,0.00044438340004371806
1492.0866030648997,1492.0866030648997,1.0000480263769358,0.0004443502615214083
1492.0935478100614,1492.0935478100614,1.000018416549183,0.00044448150221985006
1492.1004925550376,1492.1004925550376,1.0006155996012658,0.00044438088866759987
1492.1074373000133,1492.1074373000133,0.9998476638898062,0.0004444955162606643
1492.1143820448958,1492.1143820448958,1.0001383124885934,0.0004444944552273285
1492.1213267896853,1492.1213267896853,1.0002314297238435,0.0004447257891767282
1492.128271534475,1492.128271534475,0.9999134622631447,0.00044441618478071167
1492.135216279078,1492.135216279078,0.9995281631624436,0.0004444258950698001
1492.1421610236816,1492.1421610236816,1.0004280684320936,0.0004445792328166458
1492.1491057682854,1492.1491057682854,0.9998350483867343,0.00044456985133924673
1492.156050512609,1492.156050512609,1.0004800822218616,0.0004447579625010621
1492.1629952568396,1492.1629952568396,0.9996636487903956,0.00044452688638299515
1492.1699400010707,1492.1699400010707,0.9991591613588495,0.00044443938667601275
1492.1768847453015,1492.1768847453015,0.9989477370519453,0.000444412808209121
1492.183829489532,1492.183829489532,1.0000734924679175,0.0004445287643127273
1492.190774233763,1492.190774233763,1.0007105638084228,0.00044457224735409306
1492.197718977528,1492.197718977528,1.000743149369465,0.0004445955589898229
1492.2046637214794,1492.2046637214794,0.9999426653338921,0.00044441617191750713
1492.2116084652444,1492.2116084652444,1.0001798677146914,0.0004446431376196325
1492.2185532090093,1492.2185532090093,1.000077274247285,0.0004445734543491736
1492.2254979526813,1492.2254979526813,0.9998272481693004,0.00044435814264125694
1492.232442696167,1492.232442696167,0.9996213202239611,0.0004442729330123011
1492.239387439653,1492.239387439653,0.9998305882345472,0.00044453515514518687
1492.2463321830453,1492.2463321830453,0.9999766779610375,0.00044447842848480774
1492.2532769263446,1492.2532769263446,1.0003024503005573,0.0004445451297626558
1492.2602216694581,1492.2602216694581,0.9994524082793959,0.00044455431223769306
1492.267166412757,1492.267166412757,1.0004480597766645,0.0004447545457134963
1492.274111155684,1492.274111155684,0.9998419616150386,0.00044441535189171204
1492.2810558986112,1492.2810558986112,1.0003002450258827,0.00044459479803947145
1492.2880006415382,1492.2880006415382,0.9993544091124017,0.00044433325090282677
1492.2949453842791,1492.2949453842791,1.0000971350127152,0.0004446987978388043
1492.3018901270198,1492.3018901270198,1.0003521651786906,0.0004445382479264773
1492.3088348695742,1492.3088348695742,0.9998604545759587,0.00044442661238887793
1492.3157796121286,1492.3157796121286,0.9996961928089378,0.00044453204657310066
1492.3227243544966,1492.3227243544966,1.0003401798101659,0.00044460247252869846
1492.3296690968648,1492.3296690968648,1.0009251853764136,0.00044467631303891946
1492.3366138391398,1492.3366138391398,0.9994041245258668,0.0004443492657181012
1492.3435585812283,1492.3435585812283,0.9999257476523529,0.0004445183222299419
1492.35050332341,1492.35050332341,0.9994755430810723,0.0004444950996724408
1492.3574480654988,1492.3574480654988,0.999955297926953,0.00044462529480443475
1492.3643928074016,1492.3643928074016,1.0006088226162972,0.00044473141287579634
1492.3713375490245,1492.3713375490245,1.000130496661971,0.0004446723779566256
1492.3782822907403,1492.3782822907403,0.9992664378341042,0.0004445221840038151
1492.3852270323637,1492.3852270323637,0.9994524611648213,0.000444488541508608
1492.3921717738936,1492.3921717738936,1.0002666325561713,0.0004447399542726189
1492.3991165153302,1492.3991165153302,1.0005922492324673,0.0004447264341713679
1492.4060612566739,1492.4060612566739,1.0005656075118015,0.00044485397470740863
1492.4130059979248,1492.4130059979248,1.0013654624588981,0.00044496193219307556
1492.419950739175,1492.419950739175,1.0001545501260138,0.0004447536296049344
1492.4268954801464,1492.4268954801464,0.9997137510353798,0.0004447022390305655
1492.4338402212106,1492.4338402212106,0.9993813133904383,0.00044439485300112603
1492.4407849620886,1492.4407849620886,0.9989650805396506,0.00044467544438329314
1492.4477297028739,1492.4477297028739,0.998852620978224,0.00044433376716752844
1492.4546744435654,1492.4546744435654,1.0011024821737853,0.0004445785346076037
1492.4616191841637,1492.4616191841637,1.0004753373778081,0.0004448145071834882
1492.4685639246693,1492.4685639246693,1.0003820887075254,0.00044463395407063976
1492.4755086650819,1492.4755086650819,1.0004100875033213,0.0004444211079129303
1492.482453405494,1492.482453405494,1.0005451819248414,0.00044459359270989935
1492.4893981456269,1492.4893981456269,1.0005961405804515,0.0004446092283009963
1492.4963428857602,1492.4963428857602,0.9996821713249062,0.00044451022770341587
1492.5032876257999,1492.5032876257999,0.999733608359208,0.00044439524412459287
1492.510232365746,1492.510232365746,0.9991027882759237,0.00044423328888902353
1492.517177105507,1492.517177105507,1.0004316686403565,0.0004445901608490776
1492.5241218454535,1492.5241218454535,0.999779413753062,0.00044438030343084195
1492.5310665851207,1492.5310665851207,1.0002622429226267,0.00044455948226611384
1492.538011324695,1492.538011324695,0.9998658942117686,0.0004444648412534973
1492.5449560639895,1492.5449560639895,1.000031410713836,0.00044438332700397296
1492.551900803377,1492.551900803377,0.9999887841128647,0.0004446602572258982
1492.558845542672,1492.558845542672,1.0002530666479612,0.0004447366570689883
1492.5657902818741,1492.5657902818741,1.0003729037664866,0.00044453415848821524
1492.5727350208892,1492.5727350208892,0.9993246126120988,0.0004445068292900821
1492.5796797599044,1492.5796797599044,1.0001820874672653,0.00044444411182348494
1492.5866244987337,1492.5866244987337,0.9999000443568846,0.0004445509900309002
1492.5935692375622,1492.5935692375622,1.000234453024392,0.0004445550346201337
1492.600513976206,1492.600513976206,0.9998380204221924,0.00044453146820863654
1492.607458714849,1492.607458714849,0.9997126826323786,0.00044441493181242444
1492.6144034533984,1492.6144034533984,0.9999297496907877,0.00044436489020372604
1492.6213481917616,1492.6213481917616,1.0001033022475583,0.0004443508990717183
1492.628292929939,1492.628292929939,1.0000928302970433,0.00044446794321467405
1492.6352376682094,1492.6352376682094,1.000164197379531,0.0004443432978500428
1492.6421824063862,1492.6421824063862,1.0001739585212421,0.0004443705786843784
1492.6491271442842,1492.6491271442842,1.0005737896994567,0.00044464482463918285
1492.656071882182,1492.656071882182,0.9994070462037081,0.000443888516587563
1492.6630166199861,1492.6630166199861,0.9998172401186665,0.0004445781564404244
1492.669961357698,1492.669961357698,0.9992043375438652,0.0004441952408162955
1492.6769060952233,1492.6769060952233,1.0001853168154786,0.0004446497093418062
1492.6838508329347,1492.6838508329347,0.9997731607541992,0.00044455428524536156
1492.6907955701809,1492.6907955701809,1.0002146007170951,0.00044452827866093783
1492.6977403074266,1492.6977403074266,1.000632748016783,0.0004451204868188683
1492.704685044672,1492.704685044672,1.0003537636905715,0.00044488621457466524
1492.7116297819182,1492.7116297819182,0.9993934221639957,0.0004444045614565661
1492.7185745186985,1492.7185745186985,0.9991047623616026,0.0004445495544113178
1492.7255192557577,1492.7255192557577,0.9995222152496325,0.00044458682309225306
1492.7324639925378,1492.7324639925378,1.0003330908959516,0.0004448834735246188
1492.7394087292253,1492.7394087292253,1.0002294576372552,0.00044457883550055145
1492.7463534658189,1492.7463534658189,1.0004933090436967,0.000444695345391491
1492.7532982023195,1492.7532982023195,1.000173093747041,0.0004447619577294424
1492.7602429387275,1492.7602429387275,0.9997062350513989,0.00044451552375438685
1492.7671876750424,1492.7671876750424,0.9997108901122532,0.0004443781429922953
1492.7741324111703,1492.7741324111703,1.0005561648917654,0.0004445387976701465
1492.781077147299,1492.781077147299,1.0000028408131816,0.000444496741746722
1492.7880218833336,1492.7880218833336,1.000527957231966,0.00044426229130635866
1492.7949666192758,1492.7949666192758,0.9994018155069633,0.0004444925957357045
1492.8019113550317,1492.8019113550317,0.999452661123617,0.0004443733633064567
1492.808856090694,1492.808856090694,1.0001907847224791,0.0004445476093976702
1492.8158008263567,1492.8158008263567,1.0006183799025448,0.00044456533769847244
1492.8227455618332,1492.8227455618332,0.9995443282636437,0.00044434367287213874
1492.8296902972165,1492.8296902972165,1.0006955769750607,0.00044458370471539
1492.8366350325061,1492.8366350325061,0.9990724133121158,0.00044424465433865796
1492.8435797677034,1492.8435797677034,0.9998201051829548,0.0004445804235684396
1492.8505245026208,1492.8505245026208,1.0003401701266734,0.00044462780467105126
1492.8574692375382,1492.8574692375382,1.0002244082308578,0.0004445500163053211
1492.8644139724558,1492.8644139724558,1.0001584914291957,0.0004442409425784516
1492.8713587073732,1492.8713587073732,0.9996961740689265,0.00044439162909269117
1492.8783034421042,1492.8783034421042,1.0000169153465666,0.00044452475037065446
1492.8852481766494,1492.8852481766494,1.000077711256651,0.00044468912637779664
1492.8921929111016,1492.8921929111016,0.9993605303733369,0.0004444399806808514
1492.8991376454599,1492.8991376454599,1.0003149930211883,0.0004443105897950652
1492.9060823798186,1492.9060823798186,1.0003312992149975,0.0004444458577066223
1492.9130271138984,1492.9130271138984,1.000058232671479,0.00044466397051192455
1492.9199718479772,1492.9199718479772,1.0000295148563183,0.0004443313886696651
1492.9269165819642,1492.9269165819642,0.9999516892658672,0.0004444045204838413
1492.9338613158575,1492.9338613158575,0.9992735704805649,0.00044448139111344305
1492.940806049657,1492.940806049657,1.0002293759574428,0.00044457841436326825
1492.9477507831775,1492.9477507831775,1.000601768864598,0.00044445395515147894
1492.9546955167914,1492.9546955167914,1.0002447485650552,0.00044454793179349837
1492.961640250312,1492.961640250312,1.0003473924860753,0.0004446532211407184
1492.9685849835528,1492.9685849835528,1.0006972070481486,0.00044456042591509913
1492.9755297168874,1492.9755297168874,1.0000957797827494,0.00044476461766734175
1492.9824744499424,1492.9824744499424,0.9997661548166548,0.0004446423831840472
1492.9894191829967,1492.9894191829967,0.9991411377500377,0.0004443358499620981
1492.9963639158657,1492.9963639158657,0.9992076368061993,0.0004445439802333945
1493.0033086488274,1493.0033086488274,0.999768398123099,0.0004445457978247334
1493.0102533815098,1493.0102533815098,1.0000461781717018,0.0004445274151168591
1493.0171981140988,1493.0171981140988,0.999778087634154,0.00044452319537106297
1493.0241428466884,1493.0241428466884,1.0010574257505016,0.00044463532984939625
1493.0310875789978,1493.0310875789978,1.000620630733744,0.0004446340535370967
1493.0380323114011,1493.0380323114011,1.0002050412323642,0.000444474904747526
1493.0449770435248,1493.0449770435248,1.0001308540898204,0.00044441394303823876
1493.051921775648,1493.051921775648,0.9999633244217583,0.0004443367956246475
1493.0588665076784,1493.0588665076784,0.9994092485856001,0.00044405544108252923
1493.065811239616,1493.065811239616,0.9997560851088998,0.00044419554063437693
1493.0727559713669,1493.0727559713669,1.0003373248314653,0.00044449420395979564
1493.0797007030246,1493.0797007030246,0.9994499472295667,0.00044421292250934423
1493.0866454346826,1493.0866454346826,1.0008769218461533,0.00044432046229260513
1493.093590166154,1493.093590166154,0.9996934179177537,0.00044418649919245116
1493.100534897533,1493.100534897533,0.99941171222848,0.0004442865384029486
1493.1074796288187,1493.1074796288187,1.0004380974382487,0.0004443431732568939
1493.1144243599174,1493.1144243599174,1.0004075306701545,0.00044444617997226054
1493.1213690910167,1493.1213690910167,0.9998154210877453,0.00044428647433765423
1493.1283138219296,1493.1283138219296,0.9993607040937864,0.0004441101512014557
1493.1352585528425,1493.1352585528425,1.0001136508655093,0.00044421290809168473
1493.142203283569,1493.142203283569,1.0001880336854718,0.0004442219695289188
1493.1491480142024,1493.1491480142024,1.0001072434707492,0.0004444366411438371
1493.1560927448359,1493.1560927448359,0.9994765113619628,0.0004444254632675877
1493.1630374751899,1493.1630374751899,1.000556976022862,0.00044456988265446104
1493.169982205451,1493.169982205451,1.0003292512337016,0.00044441531717420886
1493.176926935712,1493.176926935712,0.9995684039325399,0.00044442736679297995
1493.1838716659727,1493.1838716659727,1.000428041168411,0.00044461104158080523
1493.1908163959542,1493.1908163959542,1.0000259711346717,0.00044444695536245346
1493.1977611259358,1493.1977611259358,0.9997219000985123,0.00044436985361681863
1493.2047058557305,1493.2047058557305,0.9997895873844961,0.00044445809135821456
1493.2116505854328,1493.2116505854328,0.9998140798157547,0.00044432285553991065
1493.2185953150424,1493.2185953150424,0.9998559285438884,0.0004444955297285027
1493.2255400445576,1493.2255400445576,1.0000237919950403,0.00044445255988489796
1493.2324847738873,1493.2324847738873,0.9999188624920569,0.00044434895649890515
1493.2394295032173,1493.2394295032173,1.0009418751946964,0.0004445455150633268
1493.24637423236,1493.24637423236,1.0006558282115408,0.0004445573419206118
1493.2533189615037,1493.2533189615037,1.0002732342211775,0.00044447809746478683
1493.2602636904608,1493.2602636904608,0.9995348054418025,0.0004445110473090385
1493.2672084193246,1493.2672084193246,0.9987808490883022,0.00044432163793139734
1493.2741531481886,1493.2741531481886,0.9991600267205805,0.0004444810366840653
1493.2810978767734,1493.2810978767734,1.000598910244221,0.0004445700757448027
1493.288042605358,1493.288042605358,1.0006897451174446,0.0004445541573157458
1493.2949873337561,1493.2949873337561,0.999726049576305,0.00044448962148343693
1493.3019320621547,1493.3019320621547,1.0002846143887363,0.0004444352455785945
1493.3088767903669,1493.3088767903669,1.0009957590582133,0.0004446056628247499
1493.3158215185783,1493.3158215185783,0.9998585481901057,0.00044440318458815325
1493.3227662465113,1493.3227662465113,1.0000460975573724,0.0004444194266872363
1493.329710974444,1493.329710974444,0.99943525232932,0.00044436961820767127
1493.3366557023764,1493.3366557023764,1.000053578327674,0.00044446812006598217
1493.3436004301225,1493.3436004301225,1.000377546313704,0.0004445189259568064
1493.3505451577762,1493.3505451577762,0.9997484068243601,0.0004445514576333137
1493.3574898852428,1493.3574898852428,1.0000532628956127,0.00044448013298097126
1493.364434612617,1493.364434612617,0.9998444696349187,0.00044450308052639735
1493.3713793398974,1493.3713793398974,0.9995830451430647,0.00044429393093666587
1493.3783240671778,1493.3783240671778,0.9996551048312199,0.00044434957881623715
1493.3852687941794,1493.3852687941794,1.0000833034336227,0.00044441022056724097
1493.3922135212738,1493.3922135212738,1.0004052531327468,0.0004443342920812829
