time,time,flux,flux_err
1437.9994564951032,1437.9994564951032,0.9999271415506769,0.0003770720727088239
1438.0077900415324,1438.0077900415324,0.9999552839308339,0.00037635569324676537
1438.0154291257584,1438.0154291257584,1.0000294799127691,0.00034294650647868246
1438.0223737480624,1438.0223737480624,0.999852730909376,0.00034247239496380105
1438.0293183702727,1438.0293183702727,1.0001698350087858,0.00034192951701380475
1438.0362629927627,1438.0362629927627,0.9998582978734525,0.00034147180178905554
1438.0432076151594,1438.0432076151594,1.0003243845071639,0.00034105148901770403
1438.050152237556,1438.050152237556,0.9997788824536243,0.0003406246693974849
1438.0570968600457,1438.0570968600457,0.9997917797743195,0.00034020214875749613
1438.064041482629,1438.064041482629,1.0005784104802773,0.0003397344691075443
1438.0709861051184,1438.0709861051184,1.0003155321120527,0.0003393233324501191
1438.0779307277944,1438.0779307277944,1.0000928742771922,0.0003389680861745119
1438.0848753503774,1438.0848753503774,1.0003336304191233,0.0003385641094001692
1438.0918199729604,1438.0918199729604,0.9993723350678223,0.0003380772006558447
1438.0987645957298,1438.0987645957298,0.9996435500736169,0.0003378698545413044
1438.1057092183125,1438.1057092183125,1.0005566346350983,0.0003376214572589993
1438.1126538409885,1438.1126538409885,0.9999317682507705,0.0003373303401764597
1438.1195984637577,1438.1195984637577,0.9997047310338448,0.0003370194291379276
1438.126543086341,1438.126543086341,1.0003899003390555,0.00033675129451719605
1438.1334877091099,1438.1334877091099,1.0001280291143086,0.0003365804314387725
1438.140432331693,1438.140432331693,1.0001258200482577,0.00033629073986285267
1438.147376954369,1438.147376954369,1.0001585138814764,0.0003361448807783767
1438.1543215770455,1438.1543215770455,0.9997197912901588,0.00033575374538459665
1438.1612661996282,1438.1612661996282,0.9998505220088116,0.00033562634413623183
1438.1682108223042,1438.1682108223042,1.0001345526789118,0.00033536307947719987
1438.1751554447942,1438.1751554447942,0.9998389310735926,0.00033510386861401444
1438.1821000674702,1438.1821000674702,1.000123496629174,0.00033497717562844324
1438.1890446899602,1438.1890446899602,0.999881112674362,0.0003347699451249976
1438.19598931245,1438.19598931245,0.9999139821229956,0.0003344252633580915
1438.2029339349397,1438.2029339349397,1.0002379783894966,0.0003343276756269022
1438.2098785573367,1438.2098785573367,1.000322566194804,0.00033417388110828274
1438.2168231798262,1438.2168231798262,1.0001621096739186,0.0003338161732044475
1438.2237678022227,1438.2237678022227,0.9994916182626247,0.0003334380401274434
1438.2307124243403,1438.2307124243403,0.9998837907678894,0.00033332300491116203
1438.2376570468298,1438.2376570468298,0.9999408477912419,0.00033322823739048447
1438.2446016688543,1438.2446016688543,1.0000610331198265,0.0003329565252559102
1438.2515462910646,1438.2515462910646,0.9999545766129903,0.0003328050936477673
1438.258490913368,1438.258490913368,1.0006825363812377,0.0003328026813674514
1438.265435535392,1438.265435535392,0.9999626530707217,0.00033248958165634613
1438.2723801574164,1438.2723801574164,1.000334447705837,0.00033240780717288366
1438.279324779068,1438.279324779068,0.9999310399850989,0.00033208192342137514
1438.2862694009991,1438.2862694009991,0.9997672581935866,0.00033188444669312526
1438.2932140228372,1438.2932140228372,1.0002651000935345,0.0003320751583481467
1438.300158644582,1438.300158644582,0.9999059496670929,0.00033163320481602033
1438.3071032662335,1438.3071032662335,0.9997977457763092,0.00033158800817030884
1438.3140478877917,1438.3140478877917,0.9999617300835023,0.00033154724026472295
1438.3209925093506,1438.3209925093506,1.000138549276841,0.0003314820096175702
1438.3279371307226,1438.3279371307226,1.0001352877365233,0.00033140670830944345
1438.334881752095,1438.334881752095,1.0002736809752224,0.0003312259024753173
1438.3418263732808,1438.3418263732808,1.0000199283645739,0.0003311339507984562
1438.34877099456,1438.34877099456,0.9998711373256668,0.00033099984640560175
1438.3557156156533,1438.3557156156533,0.9995666050382855,0.000330885706277628
1438.3626602366526,1438.3626602366526,1.0001362312245474,0.00033089433100564133
1438.3696048577453,1438.3696048577453,1.0003290770179594,0.0003308360456667827
1438.376549478559,1438.376549478559,0.9997370429476359,0.0003307438466885213
1438.383494099186,1438.383494099186,1.000009938272209,0.0003305667250190488
1438.3904387199063,1438.3904387199063,0.999723152376933,0.00033048125641677
1438.397383340534,1438.397383340534,0.9999498696516025,0.0003302357477013981
1438.4043279609746,1438.4043279609746,1.000147728190139,0.00033031166197042115
1438.4112725814157,1438.4112725814157,1.000206482368131,0.00033025668593256315
1438.4182172016701,1438.4182172016701,1.0000589131498887,0.00033016024539412394
1438.4251618219246,1438.4251618219246,0.9996887501708892,0.00033011804994763464
1438.4321064419933,1438.4321064419933,1.0000960107874275,0.000330191816655722
1438.4390510619683,1438.4390510619683,1.0004883746516822,0.000330117203474377
1438.4459956819435,1438.4459956819435,0.9998750214352505,0.00033019067932855387
1438.4529403016397,1438.4529403016397,1.00010371359671,0.0003301198843100155
1438.4598849213355,1438.4598849213355,1.00022440583387,0.0003301409630075241
1438.4668295410315,1438.4668295410315,0.9998095229319693,0.00033000080470747833
1438.473774160261,1438.473774160261,0.9998302938415072,0.0003302038059690735
1438.480718779771,1438.480718779771,0.9997384547497061,0.0003301476525702137
1438.4876633990011,1438.4876633990011,0.9995265315441717,0.00033005674923474815
1438.4946080181383,1438.4946080181383,0.9996809431747137,0.00032991130623577297
1438.5015526371822,1438.5015526371822,1.000452694291525,0.00033017705735676156
1438.5084972561333,1438.5084972561333,1.0000901726327327,0.00032999517177106187
1438.5154418748975,1438.5154418748975,1.0003753283856895,0.00033021378665096696
1438.522386493569,1438.522386493569,1.0000433070640677,0.00033005498576936895
1438.5293311121472,1438.5293311121472,1.000419452209721,0.0003300317770054327
1438.5362757306325,1438.5362757306325,0.9996590424652922,0.00032990929889233767
1438.5432203490243,1438.5432203490243,1.0001033379329072,0.00033005825525924505
1438.55016496723,1438.55016496723,0.9998507017457037,0.0003300054777222414
1438.5571095852497,1438.5571095852497,0.999963673298639,0.0003300055798748952
1438.564054203362,1438.564054203362,0.9997314820423309,0.00033008477281871394
1438.5709988211952,1438.5709988211952,0.9998205666610793,0.00033004462290840193
1438.5779434389358,1438.5779434389358,1.0000596849677383,0.00032999722961814183
1438.5848880566753,1438.5848880566753,1.0008131199864798,0.00033027248349811963
1438.5918326741364,1438.5918326741364,0.9996049006342191,0.0003300212441984356
1438.5987772915041,1438.5987772915041,1.000222558589649,0.00033020974231095883
1438.6057219088716,1438.6057219088716,1.0002056524295777,0.00033007471963762594
1438.6126665258666,1438.6126665258666,1.0000624966167657,0.00033012187076354325
1438.6196111429547,1438.6196111429547,0.999337818563437,0.00032991361540680466
1438.6265557598567,1438.6265557598567,1.0005534293869172,0.00033025451201705976
1438.6335003766653,1438.6335003766653,0.9998540992806515,0.0003301637604223309
1438.6404449931945,1438.6404449931945,1.0000457816637869,0.0003301087493985072
1438.647389609817,1438.647389609817,1.0001458257173605,0.00033016820894514633
1438.6543342261605,1438.6543342261605,1.0000732522249967,0.00033011254739827073
1438.6612788423174,1438.6612788423174,0.9998962011142563,0.0003301742992324626
1438.6682234585674,1438.6682234585674,1.0002000618622968,0.0003301867954655903
1438.6751680745379,1438.6751680745379,0.9998718373489448,0.0003301963924316096
1438.6821126904154,1438.6821126904154,1.0000266709956378,0.00033008057892332173
1438.6890573061994,1438.6890573061994,0.9992145469165017,0.0003300790545753261
1438.6960019217972,1438.6960019217972,1.0000832627964966,0.00033023748970906756
1438.7029465373023,1438.7029465373023,1.00014474764058,0.0003302380410941642
1438.7098911526211,1438.7098911526211,0.9999867352126248,0.00033012588438276696
1438.7168357679398,1438.7168357679398,1.0002742901383581,0.0003302366025506279
1438.7237803831654,1438.7237803831654,0.9999223615952616,0.0003300733093051293
1438.730724998018,1438.730724998018,1.000193537608348,0.0003301728866062139
1438.737669612778,1438.737669612778,1.0006701498346655,0.000330269731535081
1438.744614227538,1438.744614227538,1.000058928369827,0.0003302146647910705
1438.7515588421115,1438.7515588421115,0.999688242378196,0.0003301187928206167
1438.7585034564988,1438.7585034564988,0.9999708727970905,0.0003301533342627445
1438.7654480708861,1438.7654480708861,0.9997684612738459,0.00033002402191051295
1438.7723926849944,1438.7723926849944,0.9993082038100333,0.00032992886563877144
1438.779337299009,1438.779337299009,0.9998527104701938,0.00033003733783149567
1438.7862819130237,1438.7862819130237,1.0001411423492876,0.0003302903096162095
1438.793226526666,1438.793226526666,1.0001382646783668,0.000330191275654963
1438.8001711404015,1438.8001711404015,1.0004318421135252,0.00033024107856542966
1438.8071157538575,1438.8071157538575,1.0000703623065001,0.00033018707801409395
1438.8140603672205,1438.8140603672205,1.000016143320194,0.0003302202234057662
1438.82100498049,1438.82100498049,1.0000029214134565,0.00033021530296395044
1438.8279495934805,1438.8279495934805,1.0001572821523044,0.00033021536680736185
1438.8348942065643,1438.8348942065643,0.9995928653062245,0.00033014834313358735
1438.8418388192747,1438.8418388192747,0.9998566167371683,0.00032994847289524016
1438.848783431986,1438.848783431986,1.0000316594996481,0.0003301601077045405
1438.855728044697,1438.855728044697,0.9999999723556824,0.00033018245627083187
1438.8626726569423,1438.8626726569423,0.9997162766179741,0.0003302309444777007
1438.8696172692808,1438.8696172692808,1.0007609330710463,0.00033017652396568313
1438.8765618814327,1438.8765618814327,0.9995601886935349,0.00033017426028982835
1438.8835064933987,1438.8835064933987,1.0003188079591396,0.0003301861487131839
1438.8904511052715,1438.8904511052715,1.0005909240892783,0.0003301831709256079
1438.897395717051,1438.897395717051,1.0000402035446811,0.00033000735211909625
1438.9043403286444,1438.9043403286444,0.99981012826049,0.0003301864545547746
1438.9112849400515,1438.9112849400515,1.0002323743407207,0.00033018126796385746
1438.9182295513656,1438.9182295513656,0.99969456640857,0.0003301596142725206
1438.9251741626797,1438.9251741626797,0.9998675029739517,0.0003302234849013248
1438.9321187736211,1438.9321187736211,1.000051025112742,0.0003301566503489171
1438.9390633845624,1438.9390633845624,0.9999502802635775,0.00033010056064141014
1438.9460079953178,1438.9460079953178,1.0000324185529714,0.00033030407394886164
1438.9529526058864,1438.9529526058864,1.0005015622947906,0.0003302130173378498
1438.9598972162692,1438.9598972162692,0.9989846323212614,0.000329936628766117
1438.9668418266515,1438.9668418266515,0.9997957370113909,0.00033028222678910284
1438.9737864370345,1438.9737864370345,1.0002098365040548,0.00033021811819809553
1438.9807310470446,1438.9807310470446,0.9997881692694432,0.00033022342791522846
1438.9876756570548,1438.9876756570548,1.0004879500967894,0.00033024663368683523
1438.9946202668787,1438.9946202668787,0.9998031221086112,0.0003300927387207747
1439.001564876516,1439.001564876516,1.0003615318073478,0.00033023778038785714
1439.0085094860606,1439.0085094860606,1.000087069867504,0.0003301964388949266
1439.015454095512,1439.015454095512,0.9999429815721733,0.00033021392133650697
1439.0223987046838,1439.0223987046838,0.9999941236389607,0.00033001378056843745
1439.0293433137626,1439.0293433137626,0.9998724993435004,0.00033020127498091355
1439.0362879227484,1439.0362879227484,0.9993711943463495,0.000330115728263665
1439.0432325315478,1439.0432325315478,1.0001702974001234,0.0003301962185685558
1439.050177140254,1439.050177140254,0.9999879725929908,0.0003301281065975783
1439.0571217488673,1439.0571217488673,0.9997912861832319,0.00033016213506346936
1439.0640663572008,1439.0640663572008,1.000230891930893,0.0003302442231218916
1439.071010965628,1439.071010965628,1.0008632540423044,0.00033040957518166796
1439.077955573682,1439.077955573682,0.9999513817539721,0.00033028491867306646
1439.0849001817364,1439.0849001817364,1.0000119477707388,0.00033010180309202654
1439.0918447896045,1439.0918447896045,1.0001796381592964,0.0003302059238058512
1439.0987893972865,1439.0987893972865,1.0001399514063143,0.00033023178390781665
1439.105734004875,1439.105734004875,1.0004423612777327,0.0003302181118407555
1439.112678612371,1439.112678612371,0.9995078229640137,0.00033021704392761166
1439.1196232196799,1439.1196232196799,0.9997998525584852,0.00033018730102718377
1439.1265678268032,1439.1265678268032,1.000616590612736,0.0003301819596184859
1439.1335124338327,1439.1335124338327,1.0001025412727516,0.00033006810987477864
1439.1404570406767,1439.1404570406767,1.0000699166470892,0.00033022460677082494
1439.1474016475202,1439.1474016475202,0.999631444304603,0.0003300472757802383
1439.1543462541777,1439.1543462541777,0.9999444386951533,0.0003301196561313817
1439.1612908606487,1439.1612908606487,1.00004811850236,0.00033011188714576875
1439.1682354669333,1439.1682354669333,1.000241413794487,0.0003302640333317341
1439.1751800732184,1439.1751800732184,0.9999431920260273,0.00033014701166403663
1439.1821246791308,1439.1821246791308,1.0001524994079818,0.00033024668602056384
1439.1890692853224,1439.1890692853224,1.0000854425905845,0.0003302148726803879
1439.1960138910483,1439.1960138910483,0.9997066037074148,0.00033022784426078053
1439.2029584967745,1439.2029584967745,0.9996570155358849,0.0003301091489891882
1439.2099031020348,1439.2099031020348,0.9994720578154785,0.0003301466277117265
1439.2168477074815,1439.2168477074815,1.000199452763053,0.0003301904761952289
1439.2237923127418,1439.2237923127418,1.0002173744435048,0.0003302419664646783
1439.230736917816,1439.230736917816,1.0008171458961466,0.0003302044292250695
1439.237681522797,1439.237681522797,1.0002027695042301,0.0003301500187139438
1439.244626127685,1439.244626127685,0.9998631279698026,0.0003301934439717643
1439.2515707322932,1439.2515707322932,1.0001112852398788,0.0003302266240793668
1439.258515336902,1439.258515336902,0.9998602079428421,0.0003302331481039518
1439.265459941324,1439.265459941324,0.9992824735322252,0.00033007629861832435
1439.272404545653,1439.272404545653,0.9996957177173741,0.00033009960149550573
1439.2793491497027,1439.2793491497027,0.9998056294350292,0.00033021973699990975
1439.2862937537523,1439.2862937537523,1.0004922068173876,0.00033024140092119457
1439.2932383576158,1439.2932383576158,1.00071797544848,0.0003302733279809269
1439.3001829613859,1439.3001829613859,1.000093204747516,0.00033029049292992486
1439.3071275649697,1439.3071275649697,0.9990313241805406,0.00032992360314776674
1439.314072168368,1439.314072168368,1.0003898631682544,0.00033016204860147484
1439.3210167717657,1439.3210167717657,1.000331931730627,0.0003300850127444453
1439.3279613748841,1439.3279613748841,0.9998935522241877,0.0003300629645655308
1439.3349059779093,1439.3349059779093,0.999912672953886,0.00033014418473184374
1439.341850580841,1439.341850580841,0.9998180232545945,0.000330184507848382
1439.3487951836803,1439.3487951836803,1.0001752348885486,0.0003302485927288756
1439.3557397862396,1439.3557397862396,1.0000155426402366,0.00033019932920653886
1439.3626843887992,1439.3626843887992,0.9998728572750133,0.00033021893414563656
1439.3696289911727,1439.3696289911727,0.999501494036758,0.0003300395688727055
1439.3765735933598,1439.3765735933598,1.0002193339423804,0.0003302786057426028
1439.3835181954532,1439.3835181954532,1.0000001646956267,0.0003301983830333893
1439.3904627973611,1439.3904627973611,1.0003105076583076,0.0003302928034652897
1439.3974073991753,1439.3974073991753,1.000151511993219,0.00033031300249954283
1439.4043520008972,1439.4043520008972,0.9996594494039739,0.0003301367404884563
1439.411296602432,1439.411296602432,1.0002809927077103,0.00033023280677195146
1439.418241203967,1439.418241203967,0.999988625719028,0.0003302366882072689
1439.4251858050368,1439.4251858050368,1.0001721571395619,0.00033022873674053995
1439.4321304061064,1439.4321304061064,0.9996100027828734,0.00033002730985864025
1439.4390750071755,1439.4390750071755,1.000194567659112,0.0003302901387758112
1439.446019608245,1439.446019608245,0.9995474680140587,0.0003301343236333524
1439.4529642088487,1439.4529642088487,0.9995406411127703,0.00033017035150060246
1439.459908809546,1439.459908809546,1.00008495704049,0.00033020989678275416
1439.4668534099633,1439.4668534099633,1.0003059400919532,0.0003302951283910929
1439.4737980103805,1439.4737980103805,1.0001078329394728,0.00033027457139785284
1439.480742610519,1439.480742610519,1.0000395755288518,0.000330283225953172
1439.487687210564,1439.487687210564,0.9999536508976042,0.00033016716293636674
1439.4946318105156,1439.4946318105156,1.00013860102013,0.0003302824324351086
1439.5015764102814,1439.5015764102814,0.9997289284773186,0.0003302727567525897
1439.5085210099537,1439.5085210099537,0.9997791063977941,0.0003302932786450264
1439.5154656094398,1439.5154656094398,1.000247236718813,0.0003304063540512688
1439.5224102089262,1439.5224102089262,1.0001898008482564,0.00033028418754953224
1439.529354808133,1439.529354808133,1.000161013410667,0.00033027686024363404
1439.5362994072464,1439.5362994072464,1.0001183838092444,0.000330213353853254
1439.5432440062673,1439.5432440062673,1.0001901005216027,0.00033016143864643296
1439.5501886051945,1439.5501886051945,0.9999937723323269,0.00033013316513439534
1439.5571332039358,1439.5571332039358,0.9994113855802276,0.00033014272524281845
1439.5640778023974,1439.5640778023974,0.9999361773674709,0.0003301001041962797
1439.5710224009526,1439.5710224009526,1.0000866812596643,0.00033024668722127237
1439.5779669992278,1439.5779669992278,1.0003368937062938,0.0003302520814312353
1439.584911597317,1439.584911597317,1.0003176558556888,0.0003301581156576971
1439.5918561954993,1439.5918561954993,1.0003447575642963,0.0003301835178260068
1439.5988007934025,1439.5988007934025,0.9996056424971538,0.0003301535889763683
1439.6057453912122,1439.6057453912122,1.000002845866991,0.00033027106155461474
1439.6126899888357,1439.6126899888357,0.9997824535463449,0.00033016341854138467
1439.619634586366,1439.619634586366,1.0000219319204677,0.000330215886230998
1439.6265791837106,1439.6265791837106,0.9996358005025335,0.00033021742596141794
1439.6335237810545,1439.6335237810545,1.0002301910226836,0.0003301605116410596
1439.640468378119,1439.640468378119,1.0000512310600604,0.00033030103781856633
1439.6474129751837,1439.6474129751837,0.999938297877742,0.0003302498306058735
1439.6543575719693,1439.6543575719693,1.0003739560330582,0.00033028550017623044
1439.6613021687547,1439.6613021687547,0.9998038711626738,0.0003302389018247413
1439.6682467651676,1439.6682467651676,1.000012685734849,0.0003301248686723468
1439.6751913616736,1439.6751913616736,0.9998789318060279,0.0003302240303440662
1439.6821359579935,1439.6821359579935,0.9998775135174934,0.00033013424506715883
1439.689080554406,1439.689080554406,1.0001834375771834,0.0003302059683366349
1439.6960251504463,1439.6960251504463,0.9995520273137963,0.00033019868998556963
1439.7029697463934,1439.7029697463934,1.0001590034401115,0.0003301722527696264
1439.7099143421544,1439.7099143421544,1.0001832322566475,0.0003302005644708388
1439.7168589379155,1439.7168589379155,1.0005399682277516,0.0003302718974204194
1439.7238035333971,1439.7238035333971,0.9999447627501455,0.00033033127996097124
1439.730748128785,1439.730748128785,0.9996597919940637,0.00033018439953780087
1439.7376927240807,1439.7376927240807,0.9999883427700478,0.00033030779505697914
1439.7446373192827,1439.7446373192827,0.9999825021536047,0.00033026711730400324
1439.7515819143914,1439.7515819143914,0.9994286211154382,0.0003301789376896541
