time,time,flux,flux_err
1325.3038312258832,1325.3038312258832,1.0000569218737685,0.0005133221063416387
1325.3121647208063,1325.3121647208063,1.0002999869468798,0.0005140759921796918
1325.320498215575,1325.320498215575,0.9996082860026013,0.0005146256256520861
1325.3281372521649,1325.3281372521649,0.9997134584672862,0.00047036856883801253
1325.3350818308097,1325.3350818308097,0.9999384097342425,0.0004710239133024381
1325.3420264092688,1325.3420264092688,0.9999628205575448,0.0004717377930513595
1325.3489709876346,1325.3489709876346,1.0004653727128794,0.0004724999591892047
1325.3559155658138,1325.3559155658138,0.9999823766795777,0.00047324566441013836
1325.3628601439932,1325.3628601439932,1.0002961696974935,0.00047396769942941754
1325.3698047218934,1325.3698047218934,0.9997123683005107,0.00047456255255092005
1325.3767492997,1325.3767492997,0.9997746159968457,0.0004752169417119974
1325.383693877507,1325.383693877507,1.0003453348921658,0.0004758560459070725
1325.3906384550344,1325.3906384550344,1.0001395660054517,0.0004763592715488729
1325.3975830325617,1325.3975830325617,0.9993250491282243,0.00047694507977987573
1325.4045276099027,1325.4045276099027,0.9998142267608655,0.00047734591768937914
1325.4114721870578,1325.4114721870578,1.000447614849893,0.0004779299633918606
1325.4184167640265,1325.4184167640265,1.0000578473202322,0.00047834851313085884
1325.425361340995,1325.425361340995,1.0000095271403757,0.0004787886364173937
1325.4323059179637,1325.4323059179637,1.0005233246010765,0.0004793494196671338
1325.4392504948391,1325.4392504948391,0.9996513384979047,0.0004795538528615469
1325.4461950714353,1325.4461950714353,0.9999167224478882,0.00047985992577328026
1325.4531396479383,1325.4531396479383,1.000126779575549,0.00048004502983378346
1325.4600842243485,1325.4600842243485,1.0000237437899686,0.0004802936447783555
1325.4670288006648,1325.4670288006648,0.9995197546886857,0.0004804024202958427
1325.4739733767954,1325.4739733767954,0.9991686709108564,0.0004804956877091845
1325.480917952926,1325.480917952926,1.0001053935506081,0.0004808078828999896
1325.487862528963,1325.487862528963,1.0010522010841547,0.0004812744339362256
1325.494807104721,1325.494807104721,1.0004146604693498,0.00048135543203849655
1325.5017516805724,1325.5017516805724,0.9995031715982137,0.0004813316476399433
1325.508696256237,1325.508696256237,1.0003151807121886,0.0004816537811811973
1325.5156408318092,1325.5156408318092,1.0000953699788744,0.000481973275912936
1325.522585407194,1325.522585407194,1.0001482574141982,0.0004821760321896716
1325.5295299826726,1325.5295299826726,1.0006881729130843,0.0004824054079912928
1325.5364745578715,1325.5364745578715,1.0003336463066856,0.0004826051066202052
1325.5434191330708,1325.5434191330708,0.9990292765592382,0.00048256246311034306
1325.550363708177,1325.550363708177,0.9998820774738022,0.00048303719466821673
1325.5573082831895,1325.5573082831895,0.9998836833094888,0.00048313037177219193
1325.5642528580165,1325.5642528580165,0.9998346282689917,0.0004832786398011619
1325.5711974326566,1325.5711974326566,1.0000241803953425,0.00048346297129449306
1325.5781420077626,1325.5781420077626,1.0002679519131772,0.0004836278671178187
1325.585086582124,1325.585086582124,1.0007121559211982,0.0004837313550064318
1325.5920311565774,1325.5920311565774,1.0006484985125248,0.0004837538481543144
1325.598975731218,1325.598975731218,0.999330400247507,0.0004836850115694606
1325.6059203053926,1325.6059203053926,0.9999873753335681,0.0004837162643514537
1325.6128648796607,1325.6128648796607,1.0001619926966359,0.00048371500762786493
1325.6198094538354,1325.6198094538354,0.9995867993935178,0.0004835432702417461
1325.62675402801,1325.62675402801,1.0001026282024152,0.00048368902845091234
1325.6336986019053,1325.6336986019053,1.0002694976439457,0.0004834691871259367
1325.6406431758005,1325.6406431758005,1.0002034937843223,0.000483380828105416
1325.6475877496955,1325.6475877496955,1.0002290689130033,0.00048327844703885967
1325.6545323234047,1325.6545323234047,1.0001961159753125,0.00048308292214376545
1325.6614768970207,1325.6614768970207,1.0002246271132333,0.00048297417922615416
1325.6684214707298,1325.6684214707298,0.9993138063017282,0.000482661311221019
1325.6753660442523,1325.6753660442523,0.9998768929732906,0.00048264692070135867
1325.6823106175889,1325.6823106175889,1.000154745185493,0.0004826393839484205
1325.6892551909255,1325.6892551909255,1.0001237188935357,0.00048261182053663937
1325.6961997641688,1325.6961997641688,0.9997538901347186,0.0004825119795045517
1325.7031443374121,1325.7031443374121,0.9999364058845707,0.0004825072914348952
1325.7100889105627,1325.7100889105627,1.0002379601289797,0.00048258246818911054
1325.7170334835262,1325.7170334835262,1.0000715940816727,0.00048265718051042713
1325.7239780564903,1325.7239780564903,0.9996466555702843,0.00048265878854383696
1325.7309226294542,1325.7309226294542,1.0002645565722887,0.0004829022316467399
1325.7378672022319,1325.7378672022319,0.9995306481410402,0.0004828277216865332
1325.7448117749168,1325.7448117749168,1.0005573079654917,0.00048309561732016407
1325.751756347694,1325.751756347694,1.0004346064852752,0.0004832878446412173
1325.7587009200993,1325.7587009200993,1.0001950245461697,0.00048333312806525807
1325.7656454927842,1325.7656454927842,0.9995550204384062,0.00048350569198564485
1325.7725900650962,1325.7725900650962,0.9996641481958743,0.00048357481187369107
1325.779534637408,1325.779534637408,0.9995973285463778,0.00048369537198546155
1325.7864792097203,1325.7864792097203,0.9998732629027665,0.0004838339769195757
1325.7934237820323,1325.7934237820323,0.9998565922925546,0.00048392001553977903
1325.8003683543443,1325.8003683543443,0.999844264030525,0.00048407180996059207
1325.8073129262837,1325.8073129262837,1.0003667111098264,0.0004842007060431291
1325.8142574984097,1325.8142574984097,1.0007479726433455,0.00048434191658718766
1325.821202070349,1325.821202070349,1.0000418349749876,0.00048425339634523905
1325.8281466422886,1325.8281466422886,0.9999153981783742,0.00048431431436739183
1325.8350912141348,1325.8350912141348,0.9996251715314421,0.0004842742784627282
1325.842035785795,1325.842035785795,1.0007864023818596,0.0004845074727976593
1325.8489803575483,1325.8489803575483,0.9994899563534944,0.0004841785820757317
1325.855924929301,1325.855924929301,0.999950957317898,0.00048425405408548787
1325.8628695007756,1325.8628695007756,1.000310215241599,0.00048414707151184927
1325.8698140723423,1325.8698140723423,0.9999237332831381,0.0004839588884143916
1325.8767586437232,1325.8767586437232,0.9998173591177734,0.00048368361694301745
1325.8837032151037,1325.8837032151037,0.9999705339915576,0.00048346790244555786
1325.8906477863914,1325.8906477863914,0.9997036447600909,0.00048316081633678794
1325.897592357772,1325.897592357772,0.9997297231773409,0.0004830255430176126
1325.9045369288735,1325.9045369288735,0.9999391243972562,0.00048282655935030826
1325.9114815000678,1325.9114815000678,0.999860011118824,0.0004825679611285632
1325.918426071169,1325.918426071169,1.0012554318832432,0.0004825681502619988
1325.9253706420836,1325.9253706420836,1.000364408111555,0.0004822692044747064
1325.9323152130924,1325.9323152130924,0.999582329886309,0.00048199092361356536
1325.9392597840074,1325.9392597840074,1.0002523379002164,0.0004819526888944583
1325.9462043548294,1325.9462043548294,0.9998438037059453,0.00048171726260506584
1325.9531489256512,1325.9531489256512,0.9998970322872778,0.0004816779451478935
1325.9600934962868,1325.9600934962868,0.9999777845788203,0.00048167650380304084
1325.967871415414,1325.967871415414,1.0005504444025843,0.0004816631881534167
1325.9753715517413,1325.9753715517413,1.0001832153423582,0.00048165275798372944
1325.9823161221907,1325.9823161221907,1.0000167806938816,0.00048148668148030995
1325.9892606927328,1325.9892606927328,1.0001553463129575,0.00048153334203179614
1325.9962052631824,1325.9962052631824,0.9995152217067969,0.00048142289628204095
1326.0031498335388,1326.0031498335388,1.000114232886958,0.00048153903197804143
1326.0100944037088,1326.0100944037088,0.9992066171611359,0.00048139665722436617
1326.0170389741584,1326.0170389741584,1.0001756099848838,0.00048156121552137633
1326.023983544142,1326.023983544142,0.9987284372427035,0.0004814183453541289
1326.0309281144987,1326.0309281144987,1.0001613592181553,0.00048182910679727764
1326.0378726845752,1326.0378726845752,1.0012793492763126,0.0004820050041205627
1326.0448172545584,1326.0448172545584,1.0006050176925287,0.00048171196816967953
1326.0517618245426,1326.0517618245426,0.9994538360057076,0.0004815250838265691
1326.0587063945263,1326.0587063945263,1.000526325153812,0.0004815395120470434
1326.0656509643236,1326.0656509643236,0.9998995770080384,0.00048138065145145236
1326.072595534028,1326.072595534028,1.0002871676958116,0.00048154166465652853
1326.0795401039181,1326.0795401039181,0.9992140328279717,0.00048130555824776834
1326.08648467353,1326.08648467353,0.999890982546383,0.00048131675957308387
1326.0934292432344,1326.0934292432344,1.0002350459375768,0.00048140909946988786
1326.1003738128456,1326.1003738128456,0.9995193468929028,0.00048126482935427787
1326.107318382364,1326.107318382364,1.0004958907125647,0.00048140830918350026
1326.1142629518815,1326.1142629518815,0.9999542530504917,0.00048119936060918067
1326.1212075213066,1326.1212075213066,0.9996027054300589,0.00048108770946981563
1326.1281520907312,1326.1281520907312,0.9999861771146756,0.00048108661430239333
1326.1350966600635,1326.1350966600635,1.000677618655137,0.000481114786219922
1326.142041229395,1326.142041229395,1.000248854437162,0.00048108347706869655
1326.148985798541,1326.148985798541,0.9995158331524483,0.0004808414389990743
1326.1559303677793,1326.1559303677793,1.0002638720253725,0.00048085315931250573
1326.162874937018,1326.162874937018,0.9998616330072029,0.00048086588250926014
1326.1698195060706,1326.1698195060706,0.9996424603395955,0.0004805932368387095
1326.1767640750295,1326.1767640750295,1.0002520794075294,0.0004806130016938963
1326.1837086440823,1326.1837086440823,0.9996536878041085,0.00048056514808649046
1326.1906532129483,1326.1906532129483,1.0005936043017845,0.0004805289899313607
1326.1975977820002,1326.1975977820002,0.9999063262014181,0.0004804127903712474
1326.2045423507739,1326.2045423507739,0.9997781446732384,0.00048025953969415777
1326.2114869196398,1326.2114869196398,0.9995863026611713,0.00048006726216215986
1326.218431488227,1326.218431488227,0.9997870039784462,0.000480028337870336
1326.2253760569997,1326.2253760569997,1.0004756973063784,0.0004801038800753333
1326.2323206255865,1326.2323206255865,0.9999809504302954,0.0004798708277613245
1326.2392651942662,1326.2392651942662,0.9998892244007276,0.0004799020407319595
1326.2462097627595,1326.2462097627595,1.000319190026144,0.0004798150102525864
1326.2531543312537,1326.2531543312537,1.000426085273838,0.00047978912826563596
1326.2600988996537,1326.2600988996537,0.9998962394911632,0.0004796645090346793
1326.267043468148,1326.267043468148,1.0007280070397915,0.00047979845583079285
1326.2739880364552,1326.2739880364552,0.9995898978726171,0.0004794844476271899
1326.2809326048555,1326.2809326048555,0.9991421452374281,0.0004794016494012487
1326.2878771730698,1326.2878771730698,0.9997176698990604,0.0004793457302244066
1326.2948217412838,1326.2948217412838,1.0000767511155286,0.0004795015027579222
1326.301766309405,1326.301766309405,1.000270697025111,0.00047945724022717856
1326.308710877526,1326.308710877526,0.9995636813345332,0.000479322311033201
1326.3156554456473,1326.3156554456473,1.0005716303652066,0.0004794305343650356
1326.3226000136751,1326.3226000136751,1.0004516364188645,0.0004794187240616535
1326.3295445815165,1326.3295445815165,1.000066328063275,0.0004793343412756594
1326.336489149638,1326.336489149638,0.9996276296624652,0.00047923055047319906
1326.3434337172935,1326.3434337172935,0.9995005499732054,0.00047926947352283454
1326.350933850827,1326.350933850827,1.0004895678064585,0.00047950320354286127
1326.360100680132,1326.360100680132,0.9998495115749669,0.00047954374368298447
1326.3670452477875,1326.3670452477875,0.9993184060331325,0.0004794689230473698
1326.373989815443,1326.373989815443,1.000797261941781,0.00047974484774089175
1326.3809343830985,1326.3809343830985,0.9998409415398074,0.00047959629376634956
1326.3878789507537,1326.3878789507537,1.000138568810004,0.0004796785877648292
1326.3948235184093,1326.3948235184093,0.9999725280437721,0.00047966106236874557
1326.4017680858783,1326.4017680858783,1.0000149108032845,0.000479760219436146
1326.4087126532545,1326.4087126532545,0.9998205512118028,0.0004796570963360625
1326.415657220724,1326.415657220724,0.9998291005485616,0.0004797313261020256
1326.4226017880997,1326.4226017880997,1.0002957087723983,0.00047980901120233034
1326.4295463553829,1326.4295463553829,0.999303646928792,0.0004796635890796268
1326.4364909226656,1326.4364909226656,0.9999290691980625,0.0004797777075312256
1326.4434354898551,1326.4434354898551,1.0004328566564307,0.0004800303009068691
1326.450380057045,1326.450380057045,1.0007612421800818,0.0004800429987815599
1326.4573246242348,1326.4573246242348,1.0006195489165377,0.00048015910768017925
1326.4642691913316,1326.4642691913316,0.9996027113563632,0.00047996669605876365
1326.4712137583351,1326.4712137583351,0.999756166938153,0.00048006718752986445
1326.4781583253384,1326.4781583253384,1.0001340524536044,0.0004801819985714032
1326.485102892342,1326.485102892342,0.9994514483276916,0.00048015535665685944
1326.4920474592523,1326.4920474592523,0.9995043232814022,0.000480143464410202
1326.4989920260696,1326.4989920260696,1.0000372705090934,0.00048030550982309134
1326.5059365928867,1326.5059365928867,0.9996029516862637,0.00048030678417177114
1326.5128811597042,1326.5128811597042,1.000267668110503,0.00048045804232431014
1326.519825726428,1326.519825726428,1.000799528585534,0.0004805534335584898
1326.5267702930591,1326.5267702930591,0.999918177086452,0.0004804496142453909
1326.5337148597835,1326.5337148597835,0.9999117432796354,0.0004804881374070649
1326.540659426321,1326.540659426321,0.9997394650179103,0.0004805757537775966
1326.5476039929522,1326.5476039929522,1.0000811653411383,0.00048058794230550976
1326.55454855949,1326.55454855949,1.0003051586380447,0.0004808242976496729
1326.5614931259347,1326.5614931259347,1.000132794241663,0.00048081743641859427
1326.5684376923796,1326.5684376923796,0.9993447035158667,0.0004806698010420692
1326.5753822587308,1326.5753822587308,1.0003741798330286,0.0004810021975791824
1326.5823268250826,1326.5823268250826,1.000344458502206,0.00048094998694597866
1326.5892713913408,1326.5892713913408,0.9997875741733468,0.00048085135049775297
1326.5962159575997,1326.5962159575997,1.0004886884086281,0.0004810617230607329
1326.603160523858,1326.603160523858,0.9994175666392862,0.0004809200820309228
1326.6101050899301,1326.6101050899301,0.9999831669069545,0.00048102621885729195
1326.6170496560956,1326.6170496560956,1.0003263663650799,0.00048113522425526306
1326.6239942221675,1326.6239942221675,0.9994862822708447,0.0004809746897801705
1326.63093878824,1326.63093878824,0.999312117593323,0.0004809326548450516
1326.6378833542187,1326.6378833542187,1.0004748554779277,0.0004811498090847512
1326.6448279201982,1326.6448279201982,1.0000064514719322,0.0004810707433811236
1326.6517724860837,1326.6517724860837,1.0001971898807587,0.00048113042597603214
1326.6587170519697,1326.6587170519697,1.000166021421633,0.0004809687101577158
1326.6656616177627,1326.6656616177627,1.0002849156861773,0.00048098840906374274
1326.6726061835552,1326.6726061835552,1.0011713594720053,0.0004809688207841918
1326.6795507493484,1326.6795507493484,0.9997144097339277,0.00048069526261827853
1326.6864953149548,1326.6864953149548,0.9997624892373119,0.00048061919997806465
1326.6945510111068,1326.6945510111068,0.9996523611939342,0.0004805697098451556
1326.7017733594193,1326.7017733594193,0.999915341683654,0.00048053380667192647
1326.7087179248397,1326.7087179248397,0.9997602659459464,0.00048041017969147553
1326.7162180557657,1326.7162180557657,1.0001092754667784,0.0004804678290078906
1326.723995968932,1326.723995968932,1.000309568164816,0.0004803190016145657
1326.7309405342592,1326.7309405342592,0.9996347264200155,0.00048013415348408943
1326.737885099586,1326.737885099586,1.000282828034872,0.0004802349259738675
1326.7448296649134,1326.7448296649134,1.0005129825313044,0.0004801349529639972
1326.7517742302402,1326.7517742302402,1.0002179438489962,0.0004800665462522265
1326.7587187955673,1326.7587187955673,0.9992618682533317,0.0004798399286807884
1326.7656633608947,1326.7656633608947,0.9998454077237799,0.00047986636275830497
1326.7726079260353,1326.7726079260353,0.9996273643430402,0.00047980773375289515
1326.779552491083,1326.779552491083,1.0003272922578097,0.00047988100667848197
1326.786497056224,1326.786497056224,1.000539769861001,0.0004799045649485802
1326.7934416212718,1326.7934416212718,0.9997656444208654,0.0004797553552946329
1326.8003861861334,1326.8003861861334,1.0000953390359335,0.00047992433327228846
1326.8073307511813,1326.8073307511813,0.9994895383483055,0.0004798097725933608
1326.8142753160428,1326.8142753160428,1.000537976753822,0.0004799769156331411
1326.8212198809038,1326.8212198809038,1.0005724493116752,0.0004799657696031174
1326.8281644457654,1326.8281644457654,1.0002359342308984,0.0004799926720034916
1326.8351090105339,1326.8351090105339,0.9998322197371223,0.00047989290579608407
1326.842053575209,1326.842053575209,0.9997939679443238,0.00047991420126293103
1326.8489981399773,1326.8489981399773,1.000046092638475,0.0004799032094042673
1326.8559427046525,1326.8559427046525,1.0001483199667025,0.0004798997339554058
1326.8628872692345,1326.8628872692345,0.9997250374877137,0.0004797975178021257
1326.869831833817,1326.869831833817,1.0004528781668172,0.0004798295834998969
1326.8767763983992,1326.8767763983992,0.9998042667814554,0.00047963858852996587
1326.8837209627945,1326.8837209627945,0.9998362956701122,0.00047943735920773684
1326.8906655272838,1326.8906655272838,0.9995882586632593,0.0004792594715738143
1326.897610091679,1326.897610091679,1.0002294726152416,0.00047930085251631416
1326.9045546559823,1326.9045546559823,1.0000177588393733,0.00047908464507497435
1326.9114992202847,1326.9114992202847,1.0004842117490629,0.00047899841710388085
1326.9184437845875,1326.9184437845875,0.9998962443295902,0.00047861808123433376
1326.92538834889,1326.92538834889,1.0002820836443704,0.00047856971986878484
1326.9323329130066,1326.9323329130066,1.0004486437036093,0.00047842399131180766
1326.9392774772164,1326.9392774772164,0.9997885908925099,0.000478213162901433
1326.9462220413322,1326.9462220413322,0.9989318394156547,0.0004779157401257895
1326.9531666052626,1326.9531666052626,0.9999887647924341,0.00047793380903412365
1326.960111169379,1326.960111169379,1.00020248740539,0.00047790010489679585
1326.9670557333095,1326.9670557333095,1.0008463275611017,0.0004779918719262909
1326.9740002972396,1326.9740002972396,1.0000123752877275,0.00047764200764655073
1326.980944861169,1326.980944861169,0.9996382497405906,0.00047742648647779466
1326.9878894250066,1326.9878894250066,0.9993188060250251,0.00047723756525121995
1326.9948339887503,1326.9948339887503,1.0002402040222833,0.00047740225902570934
1327.0017785524947,1327.0017785524947,0.9997773851554349,0.000477172191806524
1327.0087231163313,1327.0087231163313,0.9998645613262933,0.0004771942175745344
1327.015667679982,1327.015667679982,0.9999804265916443,0.00047716539297245583
1327.0226122436327,1327.0226122436327,1.0001470137382937,0.000477164129359048
1327.0295568071904,1327.0295568071904,1.000576391151704,0.00047723242279435683
1327.0365013707483,1327.0365013707483,1.0003833319624325,0.0004771399548732562
1327.0434459343055,1327.0434459343055,1.000152883763298,0.0004770555023843535
1327.0503904977704,1327.0503904977704,0.9992016492722801,0.00047705023531763085
1327.0573350612347,1327.0573350612347,1.0006121737930802,0.00047724091528959236
1327.065112972166,1327.065112972166,0.9995991502049719,0.00047714115213647447
