time,time,flux,flux_err
1354.1148915044453,1354.1148915044453,1.0039195943668524,0.003869104987501026
1354.123687998761,1354.123687998761,0.9974683927560007,0.0038668391705530374
1354.1320215198173,1354.1320215198173,0.9976141269085653,0.003865530486806697
1354.1403550409902,1354.1403550409902,0.9961821712400636,0.0038660228767681886
1354.147994102165,1354.147994102165,1.0068627420282699,0.003534895805165978
1354.1549387033244,1354.1549387033244,1.0019620171306487,0.003529998220417081
1354.161883304542,1354.161883304542,0.9981131323505315,0.003529049024467157
1354.1688279058767,1354.1688279058767,0.9955119639598606,0.003527568683723953
1354.175772507257,1354.175772507257,0.997945568422493,0.0035284784898242764
1354.1827171087193,1354.1827171087193,1.0044720864749788,0.0035317854209541005
1354.1896617102632,1354.1896617102632,1.001320601677315,0.0035287179471236983
1354.1966063118884,1354.1966063118884,0.9997102119105833,0.003528839698799991
1354.2035509135599,1354.2035509135599,0.9983437419011707,0.0035263047999503604
1354.2104955153131,1354.2104955153131,1.0033007147317679,0.0035288209518700084
1354.217440117136,1354.217440117136,0.99770312193269,0.0035275995132864717
1354.224384719006,1354.224384719006,1.0014263053403734,0.0035296262677979736
1354.2313293209686,1354.2313293209686,0.996423754983874,0.0035255545463262856
1354.238273923001,1354.238273923001,0.9991441222482184,0.003528624055128522
1354.2452185250809,1354.2452185250809,1.0059966456614267,0.003532808864126188
1354.2521631272296,1354.2521631272296,0.9958759823216479,0.003527405606428472
1354.2591077294599,1354.2591077294599,1.0045209875892132,0.0035333703194655106
1354.266052331714,1354.266052331714,0.999734968715017,0.0035282602323915787
1354.2729969340376,1354.2729969340376,0.9974072484121941,0.0035281529366858674
1354.2799415364195,1354.2799415364195,0.9980123145393878,0.0035290969218970784
1354.2868861388592,1354.2868861388592,1.0021121351529974,0.003531998513499816
1354.2938307413692,1354.2938307413692,0.9977297139832096,0.003530887368444385
1354.3007753439142,1354.3007753439142,0.9995459819794054,0.003529037411231521
1354.307719946529,1354.307719946529,0.9986320840907565,0.0035277811081878066
1354.3146645491786,1354.3146645491786,1.0052380827614775,0.003533333771125089
1354.3216091518866,1354.3216091518866,1.0034191395276597,0.0035306782402014037
1354.3285537546524,1354.3285537546524,0.9950943321807498,0.0035262921419228
1354.3354983574536,1354.3354983574536,0.9970995628882562,0.00352633552804561
1354.3424429603126,1354.3424429603126,1.0014004490131767,0.003525430375667839
1354.3493875632182,1354.3493875632182,1.00020423076616,0.0035246938769585316
1354.3563321661707,1354.3563321661707,1.0013390006260345,0.0035248317599114827
1354.363276769158,1354.363276769158,0.9999454058473087,0.0035248127086999143
1354.3702213721915,1354.3702213721915,0.9969460632548826,0.003522561599684776
1354.3771659752954,1354.3771659752954,0.9982169997500755,0.0035221179104651815
1354.3841105783988,1354.3841105783988,1.0049573454580398,0.003524430097931036
1354.3910551815493,1354.3910551815493,1.0007662624356932,0.003520219757291461
1354.3979997847575,1354.3979997847575,1.000199005251084,0.0035181761492755967
1354.4049443879894,1354.4049443879894,0.9996730858002503,0.003518443517903009
1354.4118889912795,1354.4118889912795,1.000515243943686,0.0035182550374597997
1354.4188335945926,1354.4188335945926,0.9961344636246954,0.0035167628366696395
1354.4257781979522,1354.4257781979522,1.0002966550733698,0.003520128726325237
1354.432722801347,1354.432722801347,1.0041873797564318,0.003520487854219048
1354.4396674047414,1354.4396674047414,0.998979910093186,0.0035201489009577236
1354.446612008206,1354.446612008206,1.0020717763805886,0.0035215161724035542
1354.4535566116942,1354.4535566116942,0.99858127645886,0.003519904841259092
1354.4605012152049,1354.4605012152049,0.9951478147322369,0.003521502153688736
1354.467445818763,1354.467445818763,1.001501683349539,0.0035203786598264944
1354.474390422332,1354.474390422332,1.0020750742600875,0.003521793716073861
1354.481335025948,1354.481335025948,0.999175001083046,0.0035214471598010535
1354.4882796295872,1354.4882796295872,0.9970265059399385,0.0035172853186459215
1354.4952242332379,1354.4952242332379,0.9985700627579733,0.0035200548772114718
1354.5021688369238,1354.5021688369238,1.0041052071459218,0.0035235228504020624
1354.5091134406673,1354.5091134406673,1.0051254286853477,0.0035259566116312346
1354.5160580443996,1354.5160580443996,0.9977127549672463,0.003522553610103664
1354.523002648179,1354.523002648179,1.002711099305323,0.0035235565769820864
1354.5299472519575,1354.5299472519575,0.9964361392179313,0.003519505618818474
1354.5368918557715,1354.5368918557715,0.9971836309721095,0.003521792385410604
1354.5438364596089,1354.5438364596089,1.0022242011081757,0.0035255142978824552
1354.5507810634688,1354.5507810634688,0.9978294625071381,0.003523108787046915
1354.5577256673528,1354.5577256673528,0.9996476834467902,0.003523273837492629
1354.5646702712477,1354.5646702712477,1.001020781001686,0.003523782128572387
1354.571614875166,1354.571614875166,0.9984372960918296,0.0035242394567775656
1354.5785594790966,1354.5785594790966,1.002174001382394,0.003521529502182784
1354.5855040830734,1354.5855040830734,1.0005034215567723,0.00351920524837816
1354.59244868705,1354.59244868705,0.9974392269013247,0.0035150829800293442
1354.5993932910271,1354.5993932910271,0.999498296713257,0.0035143417520393794
1354.6063378950264,1354.6063378950264,0.998083639369578,0.0035140628918132084
1354.6132824990502,1354.6132824990502,1.0029565193269705,0.0035154181297119757
1354.6202271030966,1354.6202271030966,0.9994164270782522,0.003510621358334296
1354.6271717071434,1354.6271717071434,1.004699450469392,0.003513712404094657
1354.6341163112018,1354.6341163112018,0.9988103892344734,0.0035137754975677394
1354.641060915295,1354.641060915295,1.004859786623958,0.0035180224795259224
1354.6480055193765,1354.6480055193765,0.9956269499399599,0.003514389921646652
1354.654950123481,1354.654950123481,0.9987518190691371,0.003517065744073047
1354.661894727586,1354.661894727586,0.9983470092082476,0.0035170424636880187
1354.6688393317145,1354.6688393317145,1.0014493587419167,0.0035240259119270027
1354.6757839358656,1354.6757839358656,1.0038903523392928,0.0035256821425110317
1354.6827285400052,1354.6827285400052,0.9992923179313143,0.0035224978554673934
1354.689673144157,1354.689673144157,0.9907055754233743,0.003517255558782193
1354.6966177483314,1354.6966177483314,1.0023251487327123,0.00352238700370605
1354.703562352506,1354.703562352506,1.0037212814309098,0.0035232451853398523
1354.7105069566692,1354.7105069566692,0.9969537880634805,0.0035196988677100027
1354.7174515608672,1354.7174515608672,0.9960335773341662,0.0035180139684507137
1354.7243961650652,1354.7243961650652,1.0062108270569516,0.003523186514454879
1354.7313407692632,1354.7313407692632,1.0023935432854223,0.0035186204608300535
1354.7382853734612,1354.7382853734612,1.0032233004681355,0.0035189863093085714
1354.7452299776821,1354.7452299776821,0.9940616906776147,0.0035155641655206056
1354.7521745818917,1354.7521745818917,1.0000157407951595,0.0035191585290427277
1354.759119186113,1354.759119186113,0.999428981836916,0.0035174761624143457
1354.7660637903343,1354.7660637903343,1.0039926763752516,0.0035219958383988317
1354.7730083945787,1354.7730083945787,0.9997595691227602,0.003517733166424922
1354.7799529987885,1354.7799529987885,0.9957417403672844,0.0035162909527731005
1354.786897603033,1354.786897603033,0.9996382422578598,0.0035190340459011205
1354.7938422072657,1354.7938422072657,0.9994529976019774,0.0035219053453102106
1354.8007868114987,1354.8007868114987,0.9996905834930223,0.0035206488647735327
1354.8077314157433,1354.8077314157433,0.9986524541637412,0.003519084983500116
1354.814676019976,1354.814676019976,1.004576190815813,0.003524197876136717
1354.8216206242207,1354.8216206242207,1.004739580905206,0.003521548103162635
1354.8285652284537,1354.8285652284537,0.9962407840919718,0.003521653761008834
1354.8355098326986,1354.8355098326986,1.0007216757978181,0.003521519266400562
1354.842454436931,1354.842454436931,1.0027615248231476,0.0035237476398384216
1354.8493990411755,1354.8493990411755,0.9917056881164864,0.003518527547150943
1354.856343645397,1354.856343645397,1.0018358169666741,0.003523811672820581
1354.8632882496531,1354.8632882496531,1.0018573754958768,0.00352073147248674
1354.8702328538627,1354.8702328538627,0.9970942295828136,0.0035182416643008826
1354.8771774580955,1354.8771774580955,0.9991260866872974,0.00352045479181815
1354.8841220623283,1354.8841220623283,1.002874962633263,0.003523344141754763
1354.8910666665497,1354.8910666665497,1.0017051826336816,0.0035197011982174113
1354.8980112707595,1354.8980112707595,0.9986750404591154,0.0035213230797152655
1354.9049558749803,1354.9049558749803,0.9982290018149401,0.003521132581666148
1354.91190047919,1354.91190047919,1.0041638822650831,0.003521869086214722
1354.9188450833994,1354.9188450833994,1.0023003641495944,0.003519225762247177
1354.9257896875977,1354.9257896875977,0.9996894840604107,0.0035222507570835905
1354.9332898601256,1354.9332898601256,0.996828901653792,0.0035205050642537067
1354.9410678168238,1354.9410678168238,0.9982929620974804,0.0035220986885283615
1354.9480124209988,1354.9480124209988,1.0008510936736597,0.00352392216334736
1354.9549570251734,1354.9549570251734,0.9990700074690106,0.003521861635609255
1354.961901629348,1354.961901629348,1.002333367225408,0.0035203491736438934
1354.9688462335112,1354.9688462335112,1.0006057018137737,0.0035192092191079936
1354.9757908376625,1354.9757908376625,0.9957540393466623,0.003515196769133936
1354.982735441814,1354.982735441814,1.0002064057215465,0.003518419441157062
1354.989680045942,1354.989680045942,0.9957799757899284,0.0035139247167245043
1354.996624650082,1354.996624650082,1.0050828098003912,0.003517511926884808
1355.0035692542097,1355.0035692542097,0.9987955155404012,0.003514607464395504
1355.0105138583149,1355.0105138583149,1.0063119283247473,0.003516900825284406
1355.0174584624313,1355.0174584624313,0.9982235412921723,0.0035106672873134403
1355.0244030665244,1355.0244030665244,1.002391775377664,0.0035150463640634295
1355.031347670606,1355.031347670606,0.9976087568078531,0.003512147672031167
1355.0382922746758,1355.0382922746758,0.9978659929460886,0.003510630230856765
1355.0452368787578,1355.0452368787578,0.9961570326409914,0.0035119267056366076
1355.052181482804,1355.052181482804,1.0017702838879772,0.003514340407128257
1355.0591260868507,1355.0591260868507,1.0034243862585113,0.0035177264278633117
1355.0660706908861,1355.0660706908861,0.9985492206767329,0.0035143257527054097
1355.0730152949086,1355.0730152949086,0.9957485355979943,0.003517097691649225
1355.0799598989092,1355.0799598989092,1.003854351691459,0.003517206126004869
1355.0869045029438,1355.0869045029438,1.0027433850033363,0.0035166873379177447
1355.0938491069207,1355.0938491069207,1.0008812404529839,0.0035176733829459564
1355.1007937108977,1355.1007937108977,0.993818588765053,0.003512678454825683
1355.1077383148745,1355.1077383148745,1.0012782559858544,0.0035162325335031455
1355.1146829187933,1355.1146829187933,1.0064042459247298,0.003517360176872671
1355.1216275227582,1355.1216275227582,0.9957054084721519,0.0035146910585735812
1355.1285721266765,1355.1285721266765,1.0033368384761798,0.0035178440948274623
1355.1355167305953,1355.1355167305953,0.995892841102146,0.003513593099315776
1355.1424613344905,1355.1424613344905,0.9972922275518906,0.0035175882325226685
1355.1494059383858,1355.1494059383858,1.0006974501275365,0.0035192199750916768
1355.1563505422578,1355.1563505422578,1.000004505961335,0.00351843890873576
1355.1632951461183,1355.1632951461183,1.0056631849456577,0.0035229155156904007
1355.1702397499555,1355.1702397499555,1.001776964903161,0.0035204694690424885
1355.1771843537808,1355.1771843537808,0.9978137398393525,0.003520048170448465
1355.184128957618,1355.184128957618,0.9948318832064686,0.0035184334680644523
1355.1910735614088,1355.1910735614088,1.001260404254488,0.0035212502286035264
1355.198018165199,1355.198018165199,0.9967541060723075,0.0035184338808692617
1355.2049627689662,1355.2049627689662,1.0025519672968215,0.0035196054244153495
1355.2119073727335,1355.2119073727335,1.0019699689854966,0.0035205622216569242
1355.2188519764657,1355.2188519764657,0.9994716979582574,0.0035185712913171777
1355.2257965802096,1355.2257965802096,0.9991181486039494,0.0035208852675138623
1355.2327411838955,1355.2327411838955,0.9992652434927252,0.003520279709458604
1355.2396857875813,1355.2396857875813,1.0044294917569003,0.003520489617568963
1355.2466303912668,1355.2466303912668,1.000104949834862,0.003518438989403383
1355.2535749949527,1355.2535749949527,0.9957900824102207,0.0035160561436974416
1355.260519598592,1355.260519598592,0.9996722207619442,0.003518682579161928
1355.267464202231,1355.267464202231,1.002266392757369,0.003519632633518168
1355.2744088058469,1355.2744088058469,0.9988291940012456,0.003516397807880532
1355.2813534094396,1355.2813534094396,1.0004435276894643,0.003515844422622397
1355.2882980130091,1355.2882980130091,0.998444946049651,0.003514143711945671
1355.2952426165782,1355.2952426165782,1.0006891996562803,0.0035140534766343124
1355.3021872201243,1355.3021872201243,1.0003094986363525,0.0035159152163661686
1355.309131823647,1355.309131823647,1.0034748653947507,0.0035195156161066006
1355.3160764271581,1355.3160764271581,0.9992432240697182,0.0035169090800904767
1355.323021030646,1355.323021030646,1.0012282294388257,0.0035187612365804753
1355.3299656341223,1355.3299656341223,1.002531899023535,0.0035185078968186477
1355.3382991582773,1355.3382991582773,0.995371529041225,0.0035144267577386554
1355.3452437616957,1355.3452437616957,0.9977880445741711,0.0035166140760584117
1355.352188365137,1355.352188365137,1.0008961157220964,0.003516799269531891
1355.3591329685314,1355.3591329685314,0.9957632034260081,0.0035146431477518906
1355.3660775718913,1355.3660775718913,0.9967348908261527,0.0035186415994276654
1355.3730221752626,1355.3730221752626,1.0017216063607903,0.003518887372464154
1355.3799667785877,1355.3799667785877,1.0064185756635546,0.0035221884141674207
1355.3869113819123,1355.3869113819123,1.0037308204635877,0.0035225810277351973
1355.3941337693498,1355.3941337693498,1.0046685863074074,0.0035240540411726174
1355.4021895091596,1355.4021895091596,0.9962760690521971,0.003521920473742758
1355.4091341124029,1355.4091341124029,0.9998775321692579,0.0035227619519333808
1355.416078715658,1355.416078715658,0.9992366225078688,0.0035273264477460125
1355.4230233188666,1355.4230233188666,0.9933215864351504,0.0035228905012545794
1355.4299679220749,1355.4299679220749,1.0007330619203842,0.0035269479979927326
1355.4369125252601,1355.4369125252601,1.0013263568093491,0.0035285331561419444
1355.443857128422,1355.443857128422,0.9946506429473538,0.0035255919080987553
1355.4508017315488,1355.4508017315488,1.003316243969563,0.0035297064654076756
1355.4577463346993,1355.4577463346993,0.9987943226763406,0.0035295529335999166
1355.4646909377911,1355.4646909377911,1.0007903777885843,0.003527236749891062
1355.4716355408484,1355.4716355408484,1.004279167630473,0.003526587359047582
1355.4785801439173,1355.4785801439173,1.001136722096395,0.0035249244647706872
1355.4855247469625,1355.4855247469625,1.0026449122985457,0.0035222643516881736
1355.4924693499615,1355.4924693499615,0.9985168679516481,0.00351698028616736
1355.499413952972,1355.499413952972,0.9950363890178864,0.003516751656419563
1355.5063585559474,1355.5063585559474,1.0007157503380857,0.0035169451569893517
1355.5133031589,1355.5133031589,0.9958341546852708,0.0035150879407563757
1355.520247761829,1355.520247761829,1.0027618034255696,0.0035187162773539006
1355.5271923647465,1355.5271923647465,1.0035664452652928,0.00351808610723489
1355.5341369676403,1355.5341369676403,0.9974507390796135,0.003515410092599834
1355.5410815704995,1355.5410815704995,1.0047408410804262,0.00351854336619649
1355.5480261733587,1355.5480261733587,0.998873118828198,0.003518439184681405
1355.5549707761716,1355.5549707761716,0.9964173191181407,0.0035187036928054833
1355.5619153789842,1355.5619153789842,1.00427583477145,0.0035209923239157706
1355.5688599817618,1355.5688599817618,0.9959348245144415,0.0035187352889681765
1355.575804584528,1355.575804584528,1.0000263530809124,0.00352276691001804
1355.5827491872708,1355.5827491872708,1.0001665154254162,0.003524191262238073
1355.5896937899786,1355.5896937899786,1.0027985927814833,0.0035267470603494986
1355.5966383926748,1355.5966383926748,0.9958446180353437,0.003522899089098442
1355.6035829953476,1355.6035829953476,0.9999651859344725,0.0035262941842056027
1355.6105275979976,1355.6105275979976,1.0001563910332414,0.0035286059328278226
1355.6174722006124,1355.6174722006124,1.0012399757705381,0.0035273467586526804
1355.6244168032267,1355.6244168032267,0.9997440227802171,0.003526782490262643
1355.6313614058065,1355.6313614058065,1.0007301278750305,0.003525580006094284
1355.6383060083517,1355.6383060083517,1.0044281186501767,0.003524838721420064
1355.645250610908,1355.645250610908,0.9993633071109194,0.003523229648719073
1355.6521952133949,1355.6521952133949,0.9944176477524632,0.003518529071922104
1355.6591398159162,1355.6591398159162,1.0027798798864551,0.0035219811534011104
1355.6660844183684,1355.6660844183684,0.9960936186503225,0.0035198556912551353
1355.6730290208202,1355.6730290208202,0.9966392943765101,0.003519424530992803
1355.6799736232365,1355.6799736232365,1.0055684430331653,0.003522564458078575
1355.6869182256419,1355.6869182256419,1.0020371233056733,0.003519612772395149
1355.6938628280127,1355.6938628280127,0.9991026325909246,0.0035168649252622286
1355.7008074303708,1355.7008074303708,1.0003627649357019,0.0035182486715628902
1355.7077520326945,1355.7077520326945,1.0020146090411157,0.0035169285437926722
1355.714696634995,1355.714696634995,0.9969250258070117,0.0035140088991421235
1355.7216412372723,1355.7216412372723,0.9989147121546609,0.003515419061980568
1355.7285858395494,1355.7285858395494,1.0016613187477135,0.0035163797978082756
1355.7355304417913,1355.7355304417913,1.0009469127570765,0.0035155058888818847
1355.7430306121537,1355.7430306121537,0.995691072113431,0.0035166354492284966
1355.7508085666057,1355.7508085666057,1.0047261130453151,0.003520865157429883
1355.7577531687662,1355.7577531687662,1.000207974601269,0.003520793320722848
1355.7646977708923,1355.7646977708923,1.0022881919529294,0.0035229252410366027
1355.7716423729948,1355.7716423729948,0.9982806049105397,0.0035235492679503307
1355.7785869750853,1355.7785869750853,1.0023243730209583,0.0035230423672637417
1355.785531577153,1355.785531577153,0.9973331167726258,0.003520387221182445
1355.792476179186,1355.792476179186,0.9963577454979629,0.0035201313916976306
1355.799420781207,1355.799420781207,0.9972667082145623,0.0035206837845959383
1355.8063653832046,1355.8063653832046,0.998674482554948,0.003520418765307588
1355.8133099851443,1355.8133099851443,1.00015401486788,0.003521464459135102
1355.8202545870836,1355.8202545870836,1.0018712034600372,0.003522968689771918
1355.8271991890233,1355.8271991890233,1.00836353068576,0.0035247355759183948
1355.8341437909046,1355.8341437909046,0.996880950236025,0.003520700625981398
1355.841088392774,1355.841088392774,1.0049712035068725,0.0035241427515855473
1355.8480329946208,1355.8480329946208,0.9978305524346929,0.0035204929606073507
1355.8549775964439,1355.8549775964439,0.9979708206267033,0.0035189219548243033
1355.861922198232,1355.861922198232,0.9951753123029855,0.0035156074463829658
1355.868866799997,1355.868866799997,0.9955673354855815,0.003518561651577966
1355.8758114017503,1355.8758114017503,1.0007639372291661,0.003521102290237877
1355.8827560034574,1355.8827560034574,1.0023200447880956,0.003520705072445325
1355.88970060514,1355.88970060514,1.005838642276025,0.0035249576536494132
1355.8966452068469,1355.8966452068469,1.000427641745613,0.0035228925722522496
