time,time,flux,flux_err
1385.9566560575452,1385.9566560575452,1.0002279071102311,0.0004573762716706383
1385.9649894240717,1385.9649894240717,0.9994927290225738,0.0004572751340447035
1385.9726283434363,1385.9726283434363,0.9999879842008109,0.0004174747599825607
1385.9795728155154,1385.9795728155154,1.0005917519893615,0.0004175349651342891
1385.9865172873156,1385.9865172873156,0.9998839318036978,0.0004175481957499453
1385.9934617592087,1385.9934617592087,0.9998337448138193,0.00041751291227065353
1386.0004062310077,1386.0004062310077,1.0001311010415272,0.00041752865465924784
1386.007350702622,1386.007350702622,0.9999183434148039,0.00041757486045116007
1386.0142951743287,1386.0142951743287,1.000001920550772,0.00041752246291810807
1386.0212396457555,1386.0212396457555,0.9999284286173589,0.00041747717461486117
1386.0281841171834,1386.0281841171834,1.000105656841458,0.0004176052273099225
1386.0351285886113,1386.0351285886113,1.0006755026782355,0.0004176696985239765
1386.0420730598516,1386.0420730598516,0.9996655577937468,0.0004174564618446231
1386.049017531,1386.049017531,1.0001867415670032,0.00041759596891887893
1386.0559620021481,1386.0559620021481,0.9996856711254394,0.0004175940647064353
1386.0629064731097,1386.0629064731097,0.9994643193321051,0.00041756841425053345
1386.069850944164,1386.069850944164,1.0006770848225965,0.00041773343830537723
1386.07679541494,1386.07679541494,0.9997791149657542,0.00041753527424254894
1386.0837398856222,1386.0837398856222,0.9997740332012484,0.0004174902515578126
1386.0906843563039,1386.0906843563039,1.0002267968458973,0.00041767366723560983
1386.097628826987,1386.097628826987,0.9998847131698556,0.0004175806097985755
1386.104573297669,1386.104573297669,0.9999953023419405,0.0004175408925234778
1386.1115177679783,1386.1115177679783,0.9994241148934716,0.00041740862094046097
1386.1184622383819,1386.1184622383819,1.0007018334850983,0.0004175812612027487
1386.1254067086916,1386.1254067086916,1.0000969375304158,0.0004175611224090456
1386.1323511789076,1386.1323511789076,0.999792869165318,0.00041749436871618017
1386.1392956490315,1386.1392956490315,1.0001538307353846,0.00041757607648601784
1386.1462401190624,1386.1462401190624,1.0002270491773206,0.0004176116093825281
1386.153184588999,1386.153184588999,0.9997905096329429,0.0004174502668495853
1386.160129058843,1386.160129058843,1.000224537680249,0.00041761870252491836
1386.1670735286875,1386.1670735286875,0.9998927407083482,0.0004175669248140918
1386.174017998345,1386.174017998345,0.9994709495784436,0.00041744947088440565
1386.180962468096,1386.180962468096,0.999584336378699,0.00041750432588997757
1386.187906937568,1386.187906937568,1.000900028483899,0.00041766819445771
1386.1948514070396,1386.1948514070396,0.9997354148939005,0.00041751941115278194
1386.2017958764177,1386.2017958764177,1.0000956383456996,0.0004176488140843602
1386.2087403457033,1386.2087403457033,1.0003127432102896,0.0004177126572412651
1386.215684814896,1386.215684814896,0.9989455427191725,0.00041746527077052796
1386.2226292840871,1386.2226292840871,1.0007644329407106,0.00041770152770512865
1386.2295737530935,1386.2295737530935,1.000256926197984,0.00041766584057106176
1386.2365182220997,1386.2365182220997,1.0006741259288103,0.00041763574042024836
1386.243462691012,1386.243462691012,1.000051570363569,0.0004176173150300131
1386.2504071598319,1386.2504071598319,0.9998595442519562,0.0004176675858967425
1386.2573516284656,1386.2573516284656,0.9994955983126055,0.0004175557652750186
1386.2642960972848,1386.2642960972848,0.9996573514178289,0.00041752750823351056
1386.271240565639,1386.271240565639,1.000132272103009,0.000417663630784611
1386.2781850344588,1386.2781850344588,1.0003968195601414,0.0004177105395103478
1386.2851295028129,1386.2851295028129,1.0005543854940098,0.00041772282441144106
1386.2920739711665,1386.2920739711665,0.9996014800001701,0.0004175920526525093
1386.2990184392413,1386.2990184392413,1.0003333372426337,0.0004177235328675029
1386.3059629074094,1386.3059629074094,0.9989796458012303,0.00041751299941657574
1386.312907375576,1386.312907375576,1.0007592830838186,0.0004177282180925186
1386.3198518435581,1386.3198518435581,0.9997819999641828,0.0004175106941191318
1386.326796311447,1386.326796311447,0.999855184028809,0.00041754612661817133
1386.3337407793344,1386.3337407793344,0.9999571266614012,0.00041753095064585066
1386.34068524713,1386.34068524713,1.000017244156036,0.00041753120278473254
1386.3476297147395,1386.3476297147395,1.0000338566781077,0.00041749876259430664
1386.3545741824412,1386.3545741824412,0.9996819197782681,0.00041739846158699126
1386.361518649864,1386.361518649864,1.000163496788499,0.0004175141887370672
1386.3690186748483,1386.3690186748483,1.000532006813364,0.0004175844010670262
1386.376796478194,1386.376796478194,1.000346026068978,0.0004175464729761309
1386.38374094543,1386.38374094543,0.9998209352076344,0.00041751721869220384
1386.3906854125737,1386.3906854125737,1.000238580777142,0.0004175268254900664
1386.3976298798104,1386.3976298798104,0.9995830021008448,0.00041743595927858063
1386.4045743467664,1386.4045743467664,0.9997835603392022,0.00041749593106835527
1386.4115188137237,1386.4115188137237,0.9996055284048229,0.0004175244715062793
1386.4184632805882,1386.4184632805882,0.9998409608403357,0.00041754668283119754
1386.4254077474513,1386.4254077474513,1.000398850498278,0.00041764308131750176
1386.4323522141294,1386.4323522141294,1.0002185592087263,0.00041763498519720323
1386.4392966808073,1386.4392966808073,0.9999730900661653,0.0004175371820945551
1386.4462411472985,1386.4462411472985,0.9997330387667602,0.0004175074422347114
1386.4531856137896,1386.4531856137896,1.0000334860448967,0.0004176057467396522
1386.4601300801883,1386.4601300801883,1.0001011037449576,0.0004175195653999433
1386.4670745464932,1386.4670745464932,1.0005617709657044,0.0004176269477004231
1386.474019012705,1386.474019012705,0.9999030837957796,0.0004175416660743555
1386.480963478731,1386.480963478731,1.000255137283059,0.00041754471623310613
1386.487907944757,1386.487907944757,0.9997028117180438,0.0004175119479449331
1386.4948524107817,1386.4948524107817,0.9992867494222683,0.00041738904880262725
1386.5017968768075,1386.5017968768075,1.000340766630006,0.00041761573520629464
1386.5087413427407,1386.5087413427407,0.999881375056184,0.00041757083261362554
1386.5156858083935,1386.5156858083935,1.0001288300656568,0.00041756023571566994
1386.5226302741396,1386.5226302741396,1.0000523549727602,0.0004175749352718688
1386.5295747397001,1386.5295747397001,0.9999942193118802,0.0004176270424755036
1386.53651920526,1386.53651920526,0.9995795325653092,0.0004174803647768095
1386.5434636707264,1386.5434636707264,1.0002367342840592,0.0004175899660149288
1386.5504081360077,1386.5504081360077,1.0001293571616796,0.00041748107511339964
1386.5573526012888,1386.5573526012888,1.000820087054689,0.0004177267623084729
1386.5645748451166,1386.5645748451166,0.9995773249429746,0.0004175206372638472
1386.5726304246823,1386.5726304246823,0.9995967020266978,0.0004174518262390469
1386.579574889684,1386.579574889684,1.000591727143933,0.0004177007234460183
1386.5865193545917,1386.5865193545917,0.9995572186213485,0.0004175675027599266
1386.5934638194994,1386.5934638194994,0.9997943802189984,0.0004175472671957395
1386.6004082842214,1386.6004082842214,0.9998125075084363,0.0004174512416781556
1386.6073527490366,1386.6073527490366,0.9993212156674554,0.0004174765799530267
1386.6142972136647,1386.6142972136647,1.0006257897806365,0.00041770740648660416
1386.6212416782007,1386.6212416782007,1.0004664368433347,0.00041758491878466215
1386.6281861426437,1386.6281861426437,0.9998751303674787,0.0004174676506525389
1386.635130607085,1386.635130607085,0.9997228223977096,0.00041746606229658257
1386.642075071342,1386.642075071342,1.0002218694209881,0.00041748323962239903
1386.6490195355987,1386.6490195355987,0.9997823997294599,0.00041739174580877875
1386.655963999761,1386.655963999761,1.0001630539760389,0.00041749556412334356
1386.6629084639244,1386.6629084639244,1.0002850630573732,0.0004175810348345806
1386.6698529279013,1386.6698529279013,1.0002313576744932,0.00041752420546496233
1386.676797391785,1386.676797391785,0.9998757719007056,0.0004174951447704253
1386.683741855482,1386.683741855482,1.0003557269332692,0.00041764623285221226
1386.6906863194588,1386.6906863194588,0.9995686847847637,0.00041752259990058784
1386.6976307830637,1386.6976307830637,0.9997917592253961,0.00041756178116335947
1386.7045752465738,1386.7045752465738,0.999858853648645,0.00041761618243022283
1386.7115197102717,1386.7115197102717,1.0001848226519727,0.0004176816188305417
1386.71846417369,1386.71846417369,0.9999986665883144,0.000417644462189665
1386.725408637108,1386.725408637108,0.9998959273122214,0.00041756682736118994
1386.7323531004324,1386.7323531004324,1.0001144602085112,0.0004177333961515148
1386.7392975635714,1386.7392975635714,0.9997087963137051,0.0004174776071632316
1386.7462420267104,1386.7462420267104,0.9995421491940999,0.000417518276896132
1386.7531864898483,1386.7531864898483,1.000018024841589,0.0004175241137327025
1386.7601309528006,1386.7601309528006,1.0002513078068715,0.0004176258295972999
1386.7670754156602,1386.7670754156602,1.0006133478610069,0.00041765385560828825
1386.7742976570673,1386.7742976570673,1.0001964173429967,0.00041757385807710337
1386.7823532338384,1386.7823532338384,1.0007486447010419,0.00041771925847236156
1386.7892976966048,1386.7892976966048,0.9994539753138529,0.0004174626051772387
1386.7962421590914,1386.7962421590914,1.0000208613359847,0.00041750673339180095
1386.8031866216709,1386.8031866216709,0.9994150638501438,0.00041747064878043354
1386.8101310839716,1386.8101310839716,0.9994968801580104,0.000417445354905425
1386.8170755463657,1386.8170755463657,0.9998566457115082,0.00041752183366566804
1386.8240200086652,1386.8240200086652,1.0001627181453125,0.0004175429401430082
1386.8309644707801,1386.8309644707801,0.999932830713845,0.0004174876271323924
1386.8379089329871,1386.8379089329871,1.0002299495203666,0.0004175422964411512
1386.8448533950082,1386.8448533950082,1.000628376995206,0.0004175363013907998
1386.851797857029,1386.851797857029,1.0000423633391038,0.00041761513906123196
1386.8587423188642,1386.8587423188642,1.0003460236031971,0.00041755717928732873
1386.865686780606,1386.865686780606,0.9994233071476772,0.00041735702924584764
1386.87263124244,1386.87263124244,0.9997969688613477,0.0004174822427781443
1386.8795757040887,1386.8795757040887,0.9995651666342991,0.00041744130448308474
1386.8865201656447,1386.8865201656447,1.0004063327637183,0.00041762437932138985
1386.8934646270131,1386.8934646270131,1.0003187736969388,0.0004175536379916017
1386.9004090883823,1386.9004090883823,1.000036467997264,0.00041760329492605364
1386.9073535497519,1386.9073535497519,0.9994743646898027,0.00041756267447415915
1386.914298011121,1386.914298011121,0.9999450520725078,0.00041761106400873367
1386.9212424723962,1386.9212424723962,1.000327969897301,0.0004177273304983819
1386.9281869333931,1386.9281869333931,0.9999368647565664,0.0004176739878408579
1386.9351313944833,1386.9351313944833,1.0002144816821619,0.0004176363887997238
1386.9420758554793,1386.9420758554793,1.0000867727291933,0.0004177048555264326
1386.9490203162895,1386.9490203162895,0.9995260217361939,0.00041760920219322374
1386.9559647771935,1386.9559647771935,1.0003297450506323,0.0004177025893246455
1386.9629092378175,1386.9629092378175,1.0001281339424484,0.00041768609073949736
1386.969853698534,1386.969853698534,0.9996814510822677,0.00041756019511630645
1386.9767981590653,1386.9767981590653,0.9995812438924959,0.00041757726492184794
1386.984575954868,1386.984575954868,0.9995514225533337,0.00041752711460875706
1386.9920759720285,1386.9920759720285,1.000240289467516,0.0004176265539065015
1386.9990204324663,1386.9990204324663,1.0005112931442288,0.0004176519411314297
1387.005964892718,1387.005964892718,1.0003696578320602,0.0004176145538618655
1387.0129093528762,1387.0129093528762,1.0001977590007993,0.000417608357836255
1387.019853812848,1387.019853812848,1.0005715448137147,0.00041764810021529083
1387.0267982729135,1387.0267982729135,0.9994458378416468,0.0004175589119549441
1387.0337427328861,1387.0337427328861,1.0001063262267083,0.0004176219198613095
1387.0406871927646,1387.0406871927646,1.0000946575037637,0.0004175763719665848
1387.0476316524575,1387.0476316524575,0.999117918794143,0.0004173977543012423
1387.0545761122437,1387.0545761122437,0.9997844847601856,0.0004175824083131314
1387.0615205719364,1387.0615205719364,0.999903461720255,0.00041752726825785186
1387.0684650314422,1387.0684650314422,1.0003776792186865,0.0004176643361598545
1387.0754094909494,1387.0754094909494,0.9999919375839845,0.00041763912780207484
1387.0823539503629,1387.0823539503629,1.000314067692106,0.0004176484962583547
1387.0892984096822,1387.0892984096822,1.000301106620134,0.00041760585253728354
1387.0962428689097,1387.0962428689097,0.9997699268743621,0.00041754195800429146
1387.1031873282302,1387.1031873282302,0.9998463803793765,0.00041757877887229803
1387.1101317872713,1387.1101317872713,1.0001160658476254,0.00041767794453173525
1387.1170762463112,1387.1170762463112,0.9999717489156812,0.0004175282762724418
1387.124020705352,1387.124020705352,1.000091666123811,0.0004176293781999172
1387.130965163928,1387.130965163928,0.9998714898155189,0.0004176923086741771
1387.137909622968,1387.137909622968,1.0003006897946602,0.00041774620234414066
1387.1448540815431,1387.1448540815431,0.9998933678942613,0.0004176107896585927
1387.151798540212,1387.151798540212,0.9997830963220935,0.0004176193934627056
1387.158742998787,1387.158742998787,0.9995410300841219,0.00041754278102501487
1387.1656874573616,1387.1656874573616,0.9998804186328037,0.0004175597850242639
1387.172631915658,1387.172631915658,1.0004719185129947,0.0004176031732722509
1387.1795763741402,1387.1795763741402,0.9999498980442075,0.00041771058384433666
1387.1865208323425,1387.1865208323425,0.9998240870954922,0.0004176323002336578
1387.193465290545,1387.193465290545,0.9997921955031472,0.00041760767929157895
1387.2004097486547,1387.2004097486547,1.0009688458004766,0.0004177723845460204
1387.2073542066714,1387.2073542066714,1.0002030750479505,0.00041767186762896677
1387.2142986645936,1387.2142986645936,1.0001718929223071,0.00041765626464590987
1387.2212431225173,1387.2212431225173,0.9997589495700318,0.0004176366134895731
1387.2281875803478,1387.2281875803478,0.9998716451418724,0.00041769484928676795
1387.2351320380844,1387.2351320380844,0.9994339302282423,0.00041757007178281903
1387.2420764957283,1387.2420764957283,1.0000030428090472,0.0004177041191890647
1387.249020953372,1387.249020953372,0.9992651159442725,0.00041753399412545474
1387.2559654108302,1387.2559654108302,1.0002731575208785,0.0004176384831710039
1387.262909868287,1387.262909868287,1.00006450901035,0.00041767962275348583
1387.2698543255585,1387.2698543255585,0.9999696028758498,0.0004176704477119892
1387.2767987829234,1387.2767987829234,1.000480925517079,0.00041767733304845484
1387.283743240101,1387.283743240101,1.000483683670554,0.00041772958011992945
1387.2906876971858,1387.2906876971858,1.000360286742001,0.0004177247055145594
1387.2976321543642,1387.2976321543642,0.9996532826084439,0.0004176690821382589
1387.3045766112634,1387.3045766112634,1.000134387755964,0.0004175766752050835
1387.31235440306,1387.31235440306,0.9999095008596299,0.0004176904916190057
1387.3209655293838,1387.3209655293838,0.9995434149566365,0.0004176127720977107
1387.3281877643653,1387.3281877643653,0.9997181098931343,0.00041764407445542083
1387.335965555883,1387.335965555883,1.0000649077533599,0.00041759732075335044
1387.3434655690394,1387.3434655690394,0.9992495789652427,0.0004175467833101822
1387.3506878036483,1387.3506878036483,1.0001719693225712,0.00041770037197134106
1387.3587433731554,1387.3587433731554,1.0004371225383182,0.0004177159505885456
1387.3656878294946,1387.3656878294946,1.0006967406977538,0.0004177733601803669
1387.372632285742,1387.372632285742,1.0001114762444996,0.0004176582415690456
1387.379576741896,1387.379576741896,0.999531970869534,0.00041759686969079546
1387.386521197956,1387.386521197956,0.9998512271467211,0.0004176666776132845
1387.3934656540164,1387.3934656540164,1.000044894358537,0.0004175929685440481
1387.4004101099843,1387.4004101099843,0.999891538218289,0.0004175983867206469
1387.407354565766,1387.407354565766,1.0006733076530292,0.0004178158428465845
1387.4142990215462,1387.4142990215462,1.000244901304852,0.00041764334198328033
1387.4212434773278,1387.4212434773278,0.99940059167144,0.00041760397171219395
1387.428187933016,1387.428187933016,1.0001084212804647,0.00041770802279369546
1387.4351323885178,1387.4351323885178,0.9998663366782339,0.00041760374293684486
1387.442076844019,1387.442076844019,0.9994428044421806,0.0004175602491598803
1387.4490212994283,1387.4490212994283,1.0000164956500999,0.0004176335951694303
1387.4559657547443,1387.4559657547443,1.000459310104374,0.0004178185472289893
1387.4629102099657,1387.4629102099657,0.9995522856044294,0.0004176478715651106
1387.4698546651882,1387.4698546651882,1.0001464272270257,0.0004177145563962033
1387.4767991203178,1387.4767991203178,1.0002505329909706,0.00041773686712190524
1387.4837435753543,1387.4837435753543,1.0002513610637889,0.0004177644840612539
1387.4906880303895,1387.4906880303895,0.9996986773359271,0.0004176932338662985
1387.49763248524,1387.49763248524,1.0005376786198243,0.0004178377982440571
1387.50457694009,1387.50457694009,1.0005098254441633,0.000417787441438974
1387.5115213948466,1387.5115213948466,0.9993814019596285,0.00041755018110731235
1387.5184658494168,1387.5184658494168,0.999445565288599,0.0004175907679457103
1387.5254103041739,1387.5254103041739,1.0001032597030393,0.0004177581271868643
1387.5323547586515,1387.5323547586515,0.9997042564299867,0.0004176152278427329
1387.5392992130353,1387.5392992130353,0.9996129548327204,0.00041767357376399744
1387.5462436674193,1387.5462436674193,1.000557661566154,0.00041778327609817993
1387.5531881218042,1387.5531881218042,0.9998611742069776,0.00041768693062609193
1387.5601325760022,1387.5601325760022,1.0009846464653223,0.00041791510409913533
1387.567077030106,1387.567077030106,0.9995906790756944,0.0004175966205761936
1387.5740214842112,1387.5740214842112,1.0002058681505706,0.00041763769745418517
1387.5809659382232,1387.5809659382232,0.999632335850964,0.0004176093180135678
1387.587910392142,1387.587910392142,0.9998267762403934,0.0004176731004923561
1387.5948548459667,1387.5948548459667,1.0002186708073206,0.000417757273647092
1387.6017992997924,1387.6017992997924,0.999604641663033,0.00041757066281315774
1387.608743753432,1387.608743753432,1.0004265221831015,0.0004177491079662879
1387.6156882070707,1387.6156882070707,0.9993693720140222,0.0004175623641337018
1387.6226326607095,1387.6226326607095,1.0005279857560652,0.00041771008162234626
1387.6295771141633,1387.6295771141633,1.0001451883019674,0.00041772368134881076
1387.6365215675232,1387.6365215675232,1.0000056262631034,0.00041760313928026316
1387.6434660208822,1387.6434660208822,0.9998145845547339,0.00041763601139610155
1387.650410474242,1387.650410474242,1.000285234804749,0.000417760556666608
1387.6573549273228,1387.6573549273228,0.9999560659141643,0.0004175895232710284
1387.664299380403,1387.664299380403,0.9996992575346987,0.0004176074312115709
1387.6712438334828,1387.6712438334828,1.0002245721214071,0.000417724839689798
1387.6781882864702,1387.6781882864702,0.9997179179683835,0.00041757540573812886
1387.685132739272,1387.685132739272,1.000165605362048,0.00041771893584480435
1387.6920771920722,1387.6920771920722,0.9999951360012286,0.00041759409902016856
1387.699021644966,1387.699021644966,0.9996465269303961,0.000417681043092381
1387.705966097581,1387.705966097581,1.0004799589180533,0.0004177597293344105
1387.712910550103,1387.712910550103,1.0000826275593593,0.0004177197398713895
1387.7198550027174,1387.7198550027174,1.0002291951128004,0.00041774654295263417
1387.7267994551457,1387.7267994551457,1.0003819623078094,0.00041777126530054927
