time,time,flux,flux_err
1656.2316465192241,1656.2316465192241,1.001299588415501,0.0005317181630909229
1656.239980096271,1656.239980096271,0.9998365805263418,0.0005274206400022837
1656.2483136733183,1656.2483136733183,1.0003701654622759,0.000524516425171232
1656.2566472501321,1656.2566472501321,0.9991871862523986,0.0005240920042101689
1656.2642863623084,1656.2642863623084,0.9987894436576619,0.0004796650939471581
1656.2712310097081,1656.2712310097081,0.9992606818743898,0.00048134231948663555
1656.2781756570143,1656.2781756570143,0.9995952909616553,0.0004827429360323247
1656.2851203043203,1656.2851203043203,0.9990641714097075,0.00048448547482146464
1656.2920649516266,1656.2920649516266,0.999325075562675,0.00048374849827203327
1656.2990095988396,1656.2990095988396,0.9996626322891574,0.0004781996578366394
1656.3059542461458,1656.3059542461458,1.000442965670895,0.00047393497184082675
1656.3128988932658,1656.3128988932658,1.0016353158696032,0.0004720244693073675
1656.3198435404788,1656.3198435404788,1.00099821983222,0.000471803166141355
1656.3267881875986,1656.3267881875986,1.0002110381344682,0.00047121339517268825
1656.3337328347188,1656.3337328347188,1.0000883130586977,0.0004708164613780077
1656.3406774818388,1656.3406774818388,1.0006193383787552,0.0004706260404234288
1656.3476221288656,1656.3476221288656,1.0002825140726979,0.0004710858430744806
1656.3545667758922,1656.3545667758922,0.999795469621924,0.00047062158961427744
1656.361511422919,1656.361511422919,0.9994335824167173,0.00047075132017284466
1656.368456069853,1656.368456069853,1.0003549559700313,0.0004706848341329605
1656.3754007167868,1656.3754007167868,1.0005934394156215,0.0004703373001910988
1656.3823453636269,1656.3823453636269,0.9999814438947532,0.00047013913448039964
1656.389290010561,1656.389290010561,0.9996917845916664,0.0004697816578415363
1656.3962346574015,1656.3962346574015,1.000218088251779,0.00046938473569851127
1656.403179304242,1656.403179304242,0.9996660303671602,0.00046886255178667376
1656.4101239509887,1656.4101239509887,0.9994804800126896,0.0004683748301862944
1656.4170685977365,1656.4170685977365,1.0001740132305805,0.00046782870305310845
1656.4240132444843,1656.4240132444843,0.9994736021932809,0.00046702236258380975
1656.4309578911384,1656.4309578911384,1.0003826450748678,0.0004666732590281159
1656.4379025378857,1656.4379025378857,1.0006938357049648,0.00046672753736340893
1656.4448471843534,1656.4448471843534,1.0003451010873388,0.000466468495654796
1656.4517918311947,1656.4517918311947,0.9998974921949824,0.000465952708078769
1656.4587364775693,1656.4587364775693,0.9997086689418053,0.0004657165667222859
1656.46568112413,1656.46568112413,1.0002907102766971,0.00046563042267110794
1656.4726257707848,1656.4726257707848,0.9994458709080192,0.00046538005269033765
1656.4795704171593,1656.4795704171593,0.9997085164801252,0.00046467107766106936
1656.4865150635346,1656.4865150635346,1.0004900275681905,0.00046427794844474074
1656.4934597099095,1656.4934597099095,1.0001024706729444,0.00046360670255772145
1656.500404356284,1656.500404356284,1.0003246535545578,0.00046297297471835895
1656.5073490026593,1656.5073490026593,1.0000838742868006,0.00046202266668028344
1656.5142936490338,1656.5142936490338,1.0004866270173103,0.00046112171544279376
1656.5212382954087,1656.5212382954087,0.9995575728862438,0.0004602557179749742
1656.5281829417836,1656.5281829417836,1.000519951362123,0.00045909989065578635
1656.535127587786,1656.535127587786,0.9996933142711321,0.00045784386109125346
1656.5420722340677,1656.5420722340677,1.0005700595050808,0.000456149592869374
1656.5490168802567,1656.5490168802567,1.0003908849519347,0.000454167391792887
1656.555961526352,1656.555961526352,0.999689403296826,0.0004520644024174271
1656.5629061724471,1656.5629061724471,1.0000552837706078,0.0004499258021195437
1656.569850818636,1656.569850818636,0.9994507353435912,0.00044778141433991694
1656.5767954645453,1656.5767954645453,1.000379456158225,0.00044549953154136585
1656.5837401105478,1656.5837401105478,1.0004869420709013,0.00044349353770115947
1656.59068475655,1656.59068475655,0.999274379462746,0.0004413705508771558
1656.597629402552,1656.597629402552,0.9999869908212753,0.0004394201587066923
1656.6045740484617,1656.6045740484617,1.0004771423488363,0.00043807321692616456
1656.6115186942777,1656.6115186942777,1.0003511106913086,0.00043657764744252446
1656.6184633401867,1656.6184633401867,1.0003164643051856,0.0004354963194177227
1656.6254079860023,1656.6254079860023,0.9997515069433291,0.0004343470020289612
1656.6323526317258,1656.6323526317258,0.999985929336235,0.0004335707879377638
1656.6392972775423,1656.6392972775423,0.9993838263336068,0.0004327391417644013
1656.6462419232653,1656.6462419232653,0.9994339065017787,0.0004321951192847127
1656.6531865688946,1656.6531865688946,1.0004366754018583,0.0004316325885391608
1656.6601312146176,1656.6601312146176,0.9996549601080659,0.0004310641641387876
1656.6670758602475,1656.6670758602475,1.0009478795248015,0.00043138013917355656
1656.6740205058773,1656.6740205058773,1.0006739745089095,0.0004315731880475457
1656.6809651513208,1656.6809651513208,0.9999016358750955,0.0004316115208566832
1656.6879097969504,1656.6879097969504,1.0001656703765165,0.0004316496999766764
1656.6948544423944,1656.6948544423944,1.0011938857874259,0.0004315570161644547
1656.7017990878383,1656.7017990878383,0.9992471983970969,0.0004312673111830642
1656.7087437332816,1656.7087437332816,0.9992098787619156,0.0004308354739954383
1656.7156883786315,1656.7156883786315,0.9983624006399712,0.0004303570385930726
1656.722633024075,1656.722633024075,0.9999778026726581,0.0004301267952768536
1656.729577669333,1656.729577669333,0.9998640830144593,0.0004300651488577176
1656.736522314683,1656.736522314683,1.0007403830432793,0.00043013331722833884
1656.7434669599402,1656.7434669599402,1.0004341609000287,0.0004305442231226502
1656.7504116051975,1656.7504116051975,1.0000326658308363,0.0004308230822747634
1656.7573562503621,1656.7573562503621,1.00002996317132,0.00043084419635072555
1656.7643008956195,1656.7643008956195,1.0002521491970802,0.00043092468299736196
1656.771245540597,1656.771245540597,0.9999021580427074,0.00043037457058384837
1656.7781901857616,1656.7781901857616,0.9992410366118097,0.0004304234246182131
1656.7851348308318,1656.7851348308318,1.0006183980974306,0.00043048647160650374
1656.7920794758097,1656.7920794758097,0.9995310392011316,0.00043030514425011665
1656.7990241208813,1656.7990241208813,1.000147167980829,0.0004305431537546156
1656.805968765766,1656.805968765766,1.0004465164035967,0.0004310709172933579
1656.812913410744,1656.812913410744,0.9999793554526797,0.0004311808885851884
1656.8198580556284,1656.8198580556284,0.9996874369397899,0.00043136892600339723
1656.8268027005136,1656.8268027005136,0.9997817062567179,0.00043159094770936317
1656.8337473453048,1656.8337473453048,0.999988619664671,0.0004317465587084209
1656.8406919901895,1656.8406919901895,0.9998651738416668,0.0004319058376504602
1656.8476366348882,1656.8476366348882,1.000099023997091,0.00043210955016705283
1656.8545812796801,1656.8545812796801,1.000601132833829,0.0004320723625262072
1656.8615259242856,1656.8615259242856,1.0000729691652488,0.00043165653762601683
1656.8684705688902,1656.8684705688902,0.9993982599562348,0.00043094746030731244
1656.8754152135891,1656.8754152135891,0.9993404162468718,0.0004301717171280599
1656.8823598581944,1656.8823598581944,1.0002864868133534,0.00042953391010159566
1656.8893045027066,1656.8893045027066,1.0003308721591655,0.0004292130846940851
1656.8962491473117,1656.8962491473117,0.9994003862311226,0.0004286307550566839
1656.903193791731,1656.903193791731,1.000847408664925,0.000428901862685711
1656.9101384362432,1656.9101384362432,0.9998048744907946,0.0004286014889785774
1656.91708308057,1656.91708308057,1.0003222787036554,0.0004283104557299175
1656.9240277250817,1656.9240277250817,0.9994821917105952,0.00042730537353431253
1656.9309723694078,1656.9309723694078,0.9990103470210533,0.0004259214272977848
1656.9379170136403,1656.9379170136403,1.0000397744552356,0.0004243621814012177
1656.944861658059,1656.944861658059,0.9996380509490811,0.000423000385124839
1656.9518063021992,1656.9518063021992,1.000478477738674,0.0004217221269893016
1656.9587509463388,1656.9587509463388,0.9999234346353157,0.0004206719188821643
1656.965695590758,1656.965695590758,1.0001728267206809,0.0004199750799793758
1656.9726402348047,1656.9726402348047,1.0000171991336602,0.00041919517998195466
1656.9795848788513,1656.9795848788513,1.0000522794829216,0.0004189203513955993
1656.9865295228979,1656.9865295228979,1.000182167227232,0.0004185738680751081
1656.9934741669445,1656.9934741669445,1.000314968969421,0.00041791720945503824
1657.0004188109906,1657.0004188109906,0.9988585291133433,0.0004177806249663212
1657.0073634550367,1657.0073634550367,1.0002111677367294,0.00041748985760657815
1657.014308098991,1657.014308098991,1.000548131233703,0.00041746583847930677
1657.0212527426652,1657.0212527426652,0.9995964563569851,0.00041692808744967543
1657.0281973867118,1657.0281973867118,1.0003331190988796,0.00041688463897233946
1657.0351420304785,1657.0351420304785,1.0000101907464525,0.00041670620784479436
1657.0420866743393,1657.0420866743393,1.0005684432438433,0.0004165892637266866
1657.0490313180132,1657.0490313180132,0.9999768346704085,0.0004161602184763376
1657.0559759617804,1657.0559759617804,0.9995020889556334,0.0004160880867960945
1657.062920605454,1657.062920605454,0.999742633940925,0.0004160605434903048
1657.0698652491278,1657.0698652491278,0.9993554185551483,0.00041592545527224556
1657.0768098927092,1657.0768098927092,0.9995945506097609,0.00041628803353977286
1657.0837545362906,1657.0837545362906,0.9998556468300539,0.0004160921122447988
1657.0906991797779,1657.0906991797779,1.0001181886315336,0.0004157506002497891
1657.0976438233586,1657.0976438233586,1.0001357241895739,0.0004161147204458311
1657.1045884668463,1657.1045884668463,1.0008531638034641,0.00041570001648564593
1657.1115331103344,1657.1115331103344,1.000025001891917,0.00041585734584381057
1657.118477753636,1657.118477753636,1.0000171491664138,0.00041600172473175827
1657.1254223970304,1657.1254223970304,1.0002950058225593,0.0004162971222805725
1657.132367040425,1657.132367040425,0.9996773933384311,0.0004160548684915549
1657.1393116837269,1657.1393116837269,0.999996054622251,0.0004162575182630122
1657.1462563269354,1657.1462563269354,0.9997493173895912,0.0004161503779244994
1657.1532009701434,1657.1532009701434,1.00014555450166,0.00041655235996266584
1657.1601456133517,1657.1601456133517,0.9996056360657573,0.0004158321288317524
1657.1670902564667,1657.1670902564667,1.0004515129566718,0.000415864070423317
1657.1740348995822,1657.1740348995822,0.999869926180647,0.0004154525411835753
1657.1809795426975,1657.1809795426975,0.9994717996648245,0.00041532999852802283
1657.1879241857198,1657.1879241857198,0.9998269697012356,0.0004152032413588228
1657.1948688287416,1657.1948688287416,1.000648470040132,0.0004152627294183851
1657.201813471671,1657.201813471671,0.9997770208392577,0.00041493419949611705
1657.2087581146,1657.2087581146,1.000128402677332,0.0004149677086431034
1657.2157027574358,1657.2157027574358,1.0010064238917642,0.00041502505367121604
1657.2226474003644,1657.2226474003644,0.9995164682226589,0.00041463416449140486
1657.2295920432002,1657.2295920432002,1.0000582100202493,0.00041491198858897735
1657.2365366860365,1657.2365366860365,0.9997959301228881,0.00041470938899272164
1657.243481328779,1657.243481328779,1.000467203185908,0.0004145954215847435
1657.250425971429,1657.250425971429,0.9998895362318929,0.00041459090285874247
1657.257370614171,1657.257370614171,0.9998884401419998,0.0004144627946289895
1657.264315256821,1657.264315256821,1.0004550769781513,0.00041444882500593264
1657.2712598993774,1657.2712598993774,0.9997181066388757,0.0004139569648766995
1657.278204541934,1657.278204541934,1.0003136894544664,0.00041403667923381926
1657.28514918449,1657.28514918449,0.9993754128216766,0.0004133984892291718
1657.2920938269538,1657.2920938269538,0.9999836821921466,0.0004131668652286785
1657.2990384694172,1657.2990384694172,1.0000375589018407,0.00041290540434162266
1657.3059831118808,1657.3059831118808,0.9998994630101039,0.00041296584224818336
1657.3129277542503,1657.3129277542503,0.9995833550760921,0.00041245274488249846
1657.3198723965274,1657.3198723965274,0.999959724226908,0.00041209356223035514
1657.3268170388976,1657.3268170388976,1.00041445913002,0.00041191746497957983
1657.3337616811746,1657.3337616811746,0.9998439911660872,0.00041157747842333734
1657.346539822775,1657.346539822775,0.9999644851204262,0.0004109841121856999
1657.357373464693,1657.357373464693,0.9996468433641196,0.0004102024730844355
1657.3643181067841,1657.3643181067841,1.0005063611184226,0.00041009775067798397
1657.371262748782,1657.371262748782,1.0001884103029517,0.0004104708116701216
1657.3782073907794,1657.3782073907794,1.000261635739006,0.0004100184680250883
1657.3851520329633,1657.3851520329633,0.9999068027483297,0.0004102610484334764
1657.3920966746814,1657.3920966746814,0.9996845892190717,0.0004101366384722055
1657.3990413168656,1657.3990413168656,1.0002645994941777,0.0004101044226739418
1657.4059859585836,1657.4059859585836,1.000069757192646,0.000409681535319036
1657.4140417429771,1657.4140417429771,0.9994673704847772,0.00040913707572416864
1657.4226530991727,1657.4226530991727,1.0000588922868001,0.00040953308490598373
1657.4329311689162,1657.4329311689162,1.0010184292977822,0.0004096424014335513
1657.4420980959844,1657.4420980959844,0.999754015826422,0.00040954636912138005
1657.4504316655807,1657.4504316655807,0.9996073565831448,0.0004094662925234357
1657.4587652356422,1657.4587652356422,0.9996367075311486,0.0004097210012820993
1657.4670988057046,1657.4670988057046,1.0001044238872516,0.0004096347958065973
1657.4757101609696,1657.4757101609696,1.0001426587126423,0.00040968300506714054
1657.4837659451764,1657.4837659451764,1.0001841652635899,0.00040981869410882467
1657.4909883721907,1657.4909883721907,0.9996128885918638,0.0004097931925570684
1657.4995997275491,1657.4995997275491,1.0002045766904206,0.0004096826044968129
1657.507377725808,1657.507377725808,1.000542843678968,0.00040998113324537244
1657.5143223670602,1657.5143223670602,1.0001537756445864,0.00041046078562713303
1657.521267008406,1657.521267008406,0.9992666720119361,0.0004105643076709719
1657.5282116495655,1657.5282116495655,1.0006906293468236,0.00041091474443928996
1657.5354340763938,1657.5354340763938,0.9999992863049162,0.00041088643710705477
1657.543489860135,1657.543489860135,0.9997836098006994,0.0004114738108586311
1657.550434501201,1657.550434501201,1.001140151320644,0.00041147251846696974
1657.557379142267,1657.557379142267,0.9991717796475144,0.0004112245409520454
1657.564323783241,1657.564323783241,1.000194269094341,0.0004117031851702016
1657.5726573524648,1657.5726573524648,0.999802841869375,0.0004119100449628708
1657.580990921595,1657.580990921595,1.000512797922489,0.00041179716118330074
1657.5904356332144,1657.5904356332144,1.000278442413246,0.00041180785652765423
1657.5976580596703,1657.5976580596703,0.9999553150723604,0.0004119180514172649
1657.6046027004572,1657.6046027004572,1.0003531188608177,0.00041234905121579805
1657.611547341244,1657.611547341244,1.000771343628969,0.0004121158953822515
1657.6184919819375,1657.6184919819375,0.9995550727271463,0.00041248477514537943
1657.6276589075158,1657.6276589075158,1.0003192631349995,0.0004122654023575727
1657.635159119547,1657.635159119547,0.999670614795048,0.0004121831582745635
1657.6421037601474,1657.6421037601474,1.0001217390578083,0.00041244477617788594
1657.6501595431437,1657.6501595431437,0.9994453889320504,0.00041201885413255613
1657.6593264684423,1657.6593264684423,1.0003959263320144,0.0004126116062538594
1657.6671044658628,1657.6671044658628,1.0009053007886088,0.0004123760199335421
1657.6740491061842,1657.6740491061842,0.9993025049320468,0.0004124700109115474
1657.6809937465987,1657.6809937465987,1.0003194322163687,0.0004121685091280754
1657.68793838692,1657.68793838692,0.9998877273628739,0.0004124177550510097
1657.6948830272413,1657.6948830272413,0.9997951755107772,0.0004121040007165226
1657.7018276674694,1657.7018276674694,1.0007924134164248,0.0004126494863747355
1657.710161235762,1657.710161235762,1.0003990105064373,0.0004118748269219966
1657.720994874421,1657.720994874421,0.99988153019171,0.00041193139634288785
1657.7282173000385,1657.7282173000385,0.9995748202710553,0.00041195965579716797
1657.7359952969,1657.7359952969,1.0000590979897952,0.00041188777988647376
1657.7462733642217,1657.7462733642217,0.9989918758379412,0.00041180070084850286
1657.7532180040776,1657.7532180040776,1.0000433286663692,0.0004120176390820211
1657.7601626440257,1657.7601626440257,0.9999978656596964,0.00041199528023368024
1657.767107283882,1657.767107283882,1.0007046679176237,0.00041181595023999953
1657.7740519237373,1657.7740519237373,1.0002770924441433,0.0004117350630388985
1657.7826632770466,1657.7826632770466,0.999363619126709,0.0004115559968654185
1657.7907190592043,1657.7907190592043,1.0003311885930588,0.00041186471021449145
1657.7976636988737,1657.7976636988737,0.9993716418429596,0.00041177819934999654
1657.8057194809394,1657.8057194809394,0.9998611228484305,0.000411662581573281
1657.8129419059976,1657.8129419059976,1.0006512324605976,0.00041169609795982615
1657.819886545853,1657.819886545853,0.9994777555984481,0.00041155277184842424
1657.826831185243,1657.826831185243,1.0001054416308992,0.00041202301706184724
1657.833775824633,1657.833775824633,0.9996374868937788,0.00041169974296346014
1657.8415538207496,1657.8415538207496,1.0000592641907449,0.000411509550362201
1657.849054031291,1657.849054031291,0.9998687498898355,0.0004117687103437727
1657.8559986706805,1657.8559986706805,1.0011159312892879,0.00041176228108750904
1657.862943310071,1657.862943310071,0.9993452201837503,0.0004117883546889805
1657.869887949461,1657.869887949461,1.0004405121887494,0.0004116324328470474
1657.8768325888504,1657.8768325888504,0.9998432930808336,0.0004117444662854704
1657.8840550134435,1657.8840550134435,0.9995493051422526,0.00041142306737481624
1657.8921107950428,1657.8921107950428,0.9991085679690587,0.0004114222064076884
1657.899055433967,1657.899055433967,1.0005761677950153,0.00041135269173758873
1657.906000073171,1657.906000073171,1.0000065233230013,0.00041142870638134386
1657.9129447122818,1657.9129447122818,1.000021203899521,0.0004110487442091716
1657.9198893512057,1657.9198893512057,0.9993817426344169,0.0004108602336413576
1657.92683399013,1657.92683399013,0.9998388674024905,0.0004107942270277423
1657.9337786291476,1657.9337786291476,1.0004446466322685,0.000410818868637549
1657.9407232679787,1657.9407232679787,0.999500436351726,0.0004105619460835643
1657.9476679068096,1657.9476679068096,1.0006532726261745,0.00041045981883784926
1657.954612545641,1657.954612545641,0.9998332576413558,0.00041059102542423604
1657.9615571843788,1657.9615571843788,1.0001538515076258,0.0004102886503157139
1657.968501823024,1657.968501823024,0.9994101632911635,0.00041002964710475776
1657.9754464618552,1657.9754464618552,1.0002742285422586,0.0004095863514651995
1657.9823911004066,1657.9823911004066,0.9993894238125136,0.0004096055655748579
1657.9893357390515,1657.9893357390515,0.9999861209514671,0.00040978155847749354
1657.9962803776034,1657.9962803776034,1.001009133798396,0.0004096881244384517
1658.0032250161553,1658.0032250161553,0.9997474265158367,0.00040968822306225374
1658.0101696546142,1658.0101696546142,1.0004222387885273,0.00040945103144700144
1658.0171142929794,1658.0171142929794,0.9989253550069336,0.000409004604797211
1658.0257256446123,1658.0257256446123,1.00026997784494,0.00040881729653218825
1658.0337814251864,1658.0337814251864,1.0001524220038909,0.0004092575533692608
1658.0407260634595,1658.0407260634595,0.9996655121910777,0.0004087909914900512
1658.0476707016387,1658.0476707016387,0.9992034745666153,0.00040887639412373204
1658.0546153399112,1658.0546153399112,1.0005870316820462,0.00040882334792140767
