time,time,flux,flux_err
1544.2750027433983,1544.2750027433983,0.999718512679217,0.0015497112290113555
1544.2833363504926,1544.2833363504926,0.9991351314917555,0.0015439841869676618
1544.291669957549,1544.291669957549,0.999419835520912,0.0015407535299748428
1544.299309097411,1544.299309097411,1.0011312250535593,0.001402380278399618
1544.3062537700637,1544.3062537700637,1.0014257656547385,0.001399347571119209
1544.313198442716,1544.313198442716,1.0004576367937799,0.0013970130430134761
1544.3201431155087,1544.3201431155087,0.9980526344821646,0.001393460263964563
1544.3270877882073,1544.3270877882073,0.9980315749818522,0.0013899582209428842
1544.3340324610003,1544.3340324610003,1.0020598596690236,0.0013883289906337927
1544.3409771337924,1544.3409771337924,0.9988198843005076,0.0013851514435090724
1544.3479218066316,1544.3479218066316,1.001218469493763,0.0013815716085318315
1544.3548664795169,1544.3548664795169,1.001351560214799,0.0013793891758214862
1544.361811152356,1544.361811152356,0.9981703958499649,0.0013758518342106673
1544.368755825288,1544.368755825288,0.9996936899719447,0.0013725099006774914
1544.3757004981733,1544.3757004981733,0.999472725300102,0.0013706659657734845
1544.382645171152,1544.382645171152,1.0008249131470106,0.0013683409287358842
1544.3895898441303,1544.3895898441303,0.9999013710650028,0.0013657899303234347
1544.3965345171096,1544.3965345171096,0.999026058167704,0.001364294476747325
1544.4034791901347,1544.4034791901347,0.9995834151095926,0.0013611550258512766
1544.4104238631596,1544.4104238631596,1.000350961952939,0.0013600987372031997
1544.4173685361852,1544.4173685361852,1.000952723817861,0.001357338889327121
1544.4243132092565,1544.4243132092565,1.00101145256881,0.0013536654330664436
1544.431257882375,1544.431257882375,0.9998516545965075,0.0013524829230755282
1544.4382025554937,1544.4382025554937,0.999002996362252,0.0013500385692582716
1544.445147228565,1544.445147228565,0.9997532077768423,0.0013474630472538353
1544.4520919017766,1544.4520919017766,0.9988983836876203,0.001345790506465455
1544.4590365748486,1544.4590365748486,1.0017516654497087,0.0013443578698427924
1544.4659812480597,1544.4659812480597,1.0009244493382798,0.0013431774513198106
1544.472925921318,1544.472925921318,1.0005846464785961,0.001342695180825664
1544.479870594343,1544.479870594343,0.9990704728883488,0.0013425233079697478
1544.4868152676008,1544.4868152676008,1.0009357546006876,0.001341454042810945
1544.493759940859,1544.493759940859,0.9998048868416465,0.0013397372764889896
1544.500704614117,1544.500704614117,0.999653607920895,0.0013386375390509332
1544.507649287375,1544.507649287375,0.9996236558314617,0.001338360118262007
1544.5145939606332,1544.5145939606332,0.9980525399070335,0.001338131257922646
1544.5215386338914,1544.5215386338914,1.00016311965962,0.0013390742261262386
1544.5284833071494,1544.5284833071494,1.0003632398469713,0.0013364055411109375
1544.5354279804073,1544.5354279804073,1.0004953285961595,0.0013352150633951063
1544.542372653665,1544.542372653665,1.0004043683733028,0.0013346845014223859
1544.5493173269235,1544.5493173269235,1.0006729205115454,0.0013358220965161139
1544.5562620001813,1544.5562620001813,1.0004338531105936,0.001333876501722194
1544.5632066734859,1544.5632066734859,0.9980037106117194,0.001332274134580093
1544.5701513469303,1544.5701513469303,1.0001261353876125,0.0013309670380480091
1544.5770960201883,1544.5770960201883,1.0003070327749355,0.0013311940198334196
1544.5840406934462,1544.5840406934462,0.99966381084361,0.0013292093000588127
1544.5909853667042,1544.5909853667042,1.0017105000362083,0.0013288820956297992
1544.5979300401953,1544.5979300401953,1.0007416546231516,0.0013272562135976708
1544.604874713453,1544.604874713453,0.9988122113796791,0.0013271212775281247
1544.6118193867112,1544.6118193867112,1.000239606396487,0.0013266409432646591
1544.6187640601088,1544.6187640601088,0.9995540106014879,0.0013260370916910623
1544.6257087334602,1544.6257087334602,0.9990836163830693,0.0013250204489349514
1544.632653406718,1544.632653406718,1.0006578424101744,0.0013252434130424536
1544.6404314409072,1544.6404314409072,1.0002629686727431,0.0013250169586859792
1544.6479316881184,1544.6479316881184,1.0005789147685002,0.0013247054417059357
1544.6548763613769,1544.6548763613769,0.9995341235179357,0.001324046775119543
1544.661821034681,1544.661821034681,1.000353330838402,0.0013235250842138085
1544.6687657081254,1544.6687657081254,0.9994097804295246,0.0013228084231018506
1544.6757103813834,1544.6757103813834,1.0015682144874172,0.0013227644656568153
1544.6826550546416,1544.6826550546416,0.9986175836822937,0.0013217609204189346
1544.689599727946,1544.689599727946,0.999644272735804,0.0013210511660623008
1544.6965444013906,1544.6965444013906,1.0010798714601867,0.0013214051607197768
1544.7034890746484,1544.7034890746484,0.9989517942956674,0.0013200445645040035
1544.7104337479063,1544.7104337479063,0.9998442771800828,0.0013189314706607603
1544.7173784211645,1544.7173784211645,1.0002935247665998,0.0013189239842702574
1544.7243230944223,1544.7243230944223,0.9993191580440278,0.0013171964628472283
1544.7312677676805,1544.7312677676805,1.0011353987923883,0.0013192317039560516
1544.7382124409385,1544.7382124409385,0.9997842725749411,0.001317885513487786
1544.7451571143827,1544.7451571143827,0.999115821151924,0.0013177653794623173
1544.7521017876875,1544.7521017876875,0.9999065491736546,0.001315419972935676
1544.759046460759,1544.759046460759,1.0016714299312357,0.001315386108563158
1544.7659911339708,1544.7659911339708,1.00035341120697,0.0013148467847186776
1544.7729358072288,1544.7729358072288,0.9985492902513317,0.0013150689945224262
1544.7798804804866,1544.7798804804866,0.9996353302836226,0.001314461266369635
1544.7868251537445,1544.7868251537445,0.9992111069631786,0.0013149844580125053
1544.7937698270027,1544.7937698270027,1.0005408808142655,0.0013133076581703588
1544.800714500121,1544.800714500121,1.0018468956230433,0.0013149575472548758
1544.8076591732856,1544.8076591732856,1.0014220243170624,0.0013136111102752617
1544.8146038465443,1544.8146038465443,0.9971374592106553,0.0013137064070918192
1544.8215485196154,1544.8215485196154,1.0002677962835511,0.0013131456643895088
1544.828493192827,1544.828493192827,1.000023968063736,0.0013129097577534417
1544.835437865899,1544.835437865899,1.0007180565124973,0.0013121947823983072
1544.8423825391103,1544.8423825391103,1.0003107614144051,0.0013137046751189167
1544.8493272121354,1544.8493272121354,0.9988283214199234,0.00131096667614772
1544.8562718852538,1544.8562718852538,0.9998284615575116,0.0013101895553457581
1544.863216558372,1544.863216558372,0.9986278868738022,0.0013105441234904794
1544.870161231444,1544.870161231444,1.001582029734705,0.0013100497919078687
1544.8771059044689,1544.8771059044689,0.9998267821422517,0.0013094610477756563
1544.8840505774942,1544.8840505774942,1.000266910238222,0.0013087950462852952
1544.8909952505194,1544.8909952505194,1.0013866698743656,0.0013086968246323798
1544.8979399234981,1544.8979399234981,0.9999400915801419,0.0013083023251709643
1544.9048845965235,1544.9048845965235,1.0000253658813851,0.001308035086404339
1544.9118292695016,1544.9118292695016,0.9999058143296967,0.0013080205715556461
1544.9187739424804,1544.9187739424804,0.9995837795764743,0.001306541520719324
1544.9257186153657,1544.9257186153657,0.9996633428945915,0.0013072654867223742
1544.932663288298,1544.932663288298,0.9979598118795012,0.0013070906785557022
1544.9396079612297,1544.9396079612297,0.9992570261309945,0.0013063105325573981
1544.9465526341155,1544.9465526341155,1.0016022799160276,0.0013066168517255293
1544.9534973069542,1544.9534973069542,1.0002071445655658,0.0013056245635681776
1544.9604419798402,1544.9604419798402,1.0007954011645426,0.001304052733559758
1544.967386652632,1544.967386652632,1.0002972254772167,0.001304846228291376
1544.9743313254712,1544.9743313254712,1.0010217077126202,0.0013033427282191103
1544.9812759982638,1544.9812759982638,1.0000387632558092,0.0013029056096327642
1544.9882206710092,1544.9882206710092,1.0001325816478117,0.0013025474986459791
1544.9951653437552,1544.9951653437552,0.9982433809651207,0.0013019251749966623
1545.0021100165475,1545.0021100165475,0.9996028750984729,0.0013006967639763358
1545.0090546891997,1545.0090546891997,0.9984276926069192,0.0013004640606209266
1545.0159993618995,1545.0159993618995,0.9995245231248358,0.0013006993149025472
1545.0229440345518,1545.0229440345518,1.0010522481477047,0.0012997473285324263
1545.0298887072508,1545.0298887072508,1.0011458809549239,0.001300400756523697
1545.036833379811,1545.036833379811,1.0011000993661165,0.0012994110680978426
1545.0437780524167,1545.0437780524167,1.0011375447220068,0.0012999076147141846
1545.050722725023,1545.050722725023,1.0000226493941162,0.0012978384621138855
1545.0576673975822,1545.0576673975822,1.0002277800483648,0.0012981843649812782
1545.0646120700953,1545.0646120700953,0.9989508570847139,0.001298190605218889
1545.0715567425618,1545.0715567425618,0.9994565016128723,0.001298854494111827
1545.0785014150747,1545.0785014150747,0.9991484115979284,0.0012979421357344535
1545.085446087541,1545.085446087541,0.9995706650763567,0.0012978805964580945
1545.0923907599608,1545.0923907599608,0.997861802079656,0.0012971806406546352
1545.0993354323805,1545.0993354323805,1.001430301632992,0.0012975768264761986
1545.1062801048006,1545.1062801048006,1.0006214520492005,0.0012957481807918932
1545.113224777127,1545.113224777127,0.9980740933031568,0.0012947067544792352
1545.120169449454,1545.120169449454,1.001232107632601,0.001294032419625808
1545.1271141217803,1545.1271141217803,1.0001804991350496,0.0012937734174913104
1545.1340587940608,1545.1340587940608,0.9990599146798871,0.0012922790871311663
1545.1410034663409,1545.1410034663409,0.9993694271428568,0.001292320317613211
1545.1479481385275,1545.1479481385275,1.0002024978854824,0.0012914320714368273
1545.154892810808,1545.154892810808,1.0002595723370171,0.0012909273343882544
1545.1618374829015,1545.1618374829015,1.0025814584951287,0.0012912982268264129
1545.1687821549956,1545.1687821549956,0.9995420408462123,0.0012904955071428334
1545.1757268272754,1545.1757268272754,1.0016145076021015,0.001290333932788585
1545.182671499416,1545.182671499416,1.000580914538828,0.0012910742843243147
1545.1896161712773,1545.1896161712773,0.9969632786826427,0.001290179974710078
1545.1965608433711,1545.1965608433711,0.9985151146168871,0.001289968434552626
1545.2035055154647,1545.2035055154647,0.9990655770014903,0.0012887540163100094
1545.2104501873723,1545.2104501873723,1.000159871881921,0.0012888135605986823
1545.217394859373,1545.217394859373,0.9998611240509641,0.0012882102847903815
1545.2243395312805,1545.2243395312805,1.002111549344192,0.0012890838423940344
1545.231284203188,1545.231284203188,1.0019683156150467,0.0012888015810364382
1545.2382288750491,1545.2382288750491,0.9990270937516861,0.0012877963293568603
1545.24517354691,1545.24517354691,0.9994403836703757,0.001288294285966639
1545.252118218678,1545.252118218678,1.0006187216597844,0.0012883778312842516
1545.2590628904927,1545.2590628904927,0.9989843375879147,0.0012880879930208902
1545.2660075622139,1545.2660075622139,0.9999882938129987,0.0012875990168463992
1545.2729522339353,1545.2729522339353,0.9998681079451778,0.001287250190193949
1545.2798969056098,1545.2798969056098,0.9996362897122919,0.0012867585209437266
1545.2868415772846,1545.2868415772846,0.998976926231465,0.001285553295300335
1545.293786248913,1545.293786248913,1.0008459456064203,0.0012875339836275691
1545.3007309204945,1545.3007309204945,0.9997906428059473,0.0012855490222029396
1545.3076755920297,1545.3076755920297,1.0002123724663183,0.0012851657083156403
1545.3146202635648,1545.3146202635648,1.0007514237994448,0.0012863623931316614
1545.3215649350534,1545.3215649350534,1.0020291601751876,0.001285092922124398
1545.3285096065415,1545.3285096065415,0.999441492596252,0.0012854134735623864
1545.3354542779837,1545.3354542779837,0.9990391078120158,0.0012851817842152603
1545.3423989493788,1545.3423989493788,0.9991823655560601,0.0012846399120170766
1545.3493436207277,1545.3493436207277,0.9994230342023178,0.001284046975738048
1545.3562882920764,1545.3562882920764,0.9992719742086853,0.0012836425794486835
1545.3632329633786,1545.3632329633786,1.0004085210495668,0.001284225489752292
1545.3701776346345,1545.3701776346345,1.000601692655293,0.0012842548792726105
1545.3771223058436,1545.3771223058436,1.0003824288512373,0.0012828915560001482
1545.3840669770523,1545.3840669770523,0.9996792563240934,0.0012840461495077923
1545.3910116482152,1545.3910116482152,1.0005002204566167,0.0012833769831697094
1545.3979563193775,1545.3979563193775,1.0012758304732947,0.0012827652225699394
1545.404900990447,1545.404900990447,1.000290717092964,0.0012833697596593178
1545.4118456615165,1545.4118456615165,0.9988555307629021,0.00128263323838132
1545.4187903324923,1545.4187903324923,0.9991013605175192,0.0012825419786431675
1545.4257350036085,1545.4257350036085,1.0012189341563713,0.0012815484906442765
1545.4326796745383,1545.4326796745383,0.9985566714750224,0.0012822984365452904
1545.439624345468,1545.439624345468,1.0004623650811328,0.001282389769790283
1545.446569016351,1545.446569016351,1.000545487573648,0.0012823518568805554
1545.453513687095,1545.453513687095,0.9994411457541545,0.0012811117101029197
1545.4604583579771,1545.4604583579771,0.9991985324498185,0.0012818746205851448
1545.467403028721,1545.467403028721,1.0009277971296862,0.0012817465680106997
1545.4743476994645,1545.4743476994645,1.00029447128928,0.0012813675936855246
1545.4812923702077,1545.4812923702077,0.9999660757528123,0.0012815875776700405
1545.4882370408582,1545.4882370408582,0.999676758418991,0.0012810621415433674
1545.4951817114618,1545.4951817114618,1.0002189161002595,0.0012813574763841863
1545.5021263821122,1545.5021263821122,1.0006441428897541,0.0012806681773247645
1545.5090710526692,1545.5090710526692,0.9994398647884213,0.0012807989937011163
1545.5160157231799,1545.5160157231799,0.9996460504735241,0.001280898407678424
1545.522960393644,1545.522960393644,0.998778946882086,0.0012809187390081553
1545.5299050641079,1545.5299050641079,1.0005133756777165,0.0012796954120297484
1545.536849734479,1545.536849734479,1.000747939797085,0.001280441007142799
1545.543794404943,1545.543794404943,1.0000272279650446,0.0012794654372990095
1545.5507390752205,1545.5507390752205,0.9980335598957231,0.001279918922566097
1545.5576837454985,1545.5576837454985,0.9998265314274116,0.0012791430185406796
1545.5646284157763,1545.5646284157763,0.998850613782732,0.0012790854373935972
1545.5715730860077,1545.5715730860077,1.0002664077638488,0.0012795157412988645
1545.5785177561452,1545.5785177561452,0.9998710827559659,0.0012800755676026431
1545.5854624262836,1545.5854624262836,0.9988653537571007,0.00127890437585963
1545.5924070964215,1545.5924070964215,1.0002310279415407,0.0012791070007590443
1545.5993517664663,1545.5993517664663,0.9994800465068986,0.0012778514666289234
1545.6062964365112,1545.6062964365112,0.9998624143025914,0.0012793304766265216
1545.6132411065096,1545.6132411065096,1.0021194661914428,0.0012793445356357612
1545.620185776415,1545.620185776415,1.001150717782827,0.0012782644734868017
1545.6271304463667,1545.6271304463667,1.0011385039560672,0.00127898850121075
1545.6340751161788,1545.6340751161788,0.9999279546415423,0.0012800843618200777
1545.641019786131,1545.641019786131,0.9997042743942235,0.0012803501697735789
1545.647964455896,1545.647964455896,0.9977502995633,0.0012799153268199669
1545.6549091256616,1545.6549091256616,0.9994381245778967,0.0012806748322600555
1545.6618537952409,1545.6618537952409,1.0007228862091295,0.0012806631154026484
1545.6687984649598,1545.6687984649598,0.9988049700624199,0.0012792328522253085
1545.6757431345861,1545.6757431345861,0.9995792585157126,0.0012809852376346805
1545.6826878041652,1545.6826878041652,0.9994111726150574,0.0012818171674285395
1545.6896324736977,1545.6896324736977,0.9990970790717677,0.0012795877562419267
1545.6965771432303,1545.6965771432303,0.9998430596522511,0.0012814302016067416
1545.70352181267,1545.70352181267,1.002936050634315,0.001280988178068311
1545.7104664820627,1545.7104664820627,1.0008437109840336,0.0012804765408538448
1545.7174111514562,1545.7174111514562,0.9992243778322955,0.0012801891456240568
1545.7243558208022,1545.7243558208022,0.9993031768353301,0.001279936544319719
1545.7313004901023,1545.7313004901023,0.998388538590288,0.0012795690458339355
1545.7382451593555,1545.7382451593555,0.9999980081737494,0.0012809522269900027
1545.745189828609,1545.745189828609,1.0004660080767234,0.0012804316767770856
1545.7521344977692,1545.7521344977692,1.0003109098150973,0.0012796084783016865
1545.759079166836,1545.759079166836,1.0005994097802302,0.0012798544023670572
1545.7660238359495,1545.7660238359495,0.9985259166315196,0.0012796377476973996
1545.7729685050167,1545.7729685050167,1.000259405183412,0.0012792819286972454
1545.7799131739905,1545.7799131739905,1.0007264456802172,0.0012797550671987794
1545.7868578429645,1545.7868578429645,0.9994777261499943,0.001279611819031474
1545.7938025118451,1545.7938025118451,1.0012606140144484,0.00128048124540663
1545.8007471807257,1545.8007471807257,1.0008489191890013,0.0012799004713603132
1545.8076918495603,1545.8076918495603,0.9996003813198735,0.001279392002160729
1545.8146365183943,1545.8146365183943,0.9992847836645751,0.0012795908501475773
1545.8215811870891,1545.8215811870891,0.9991225095621001,0.0012792608446603212
1545.8285258558299,1545.8285258558299,1.0004694327070955,0.0012811607993196252
1545.8354705244312,1545.8354705244312,1.000223646851787,0.0012814560628207276
1545.8424151930326,1545.8424151930326,1.0001491242051697,0.0012810126372488834
1545.8493598616342,1545.8493598616342,0.9998208692134852,0.0012810402123674288
1545.856304530189,1545.856304530189,1.0007078285042659,0.0012807892020673891
1545.863249198604,1545.863249198604,1.0000687722699815,0.0012814085957006858
1545.8701938670658,1545.8701938670658,0.9984112564386407,0.0012796137721326677
1545.8771385354808,1545.8771385354808,0.9991790056048041,0.0012790277082973037
1545.8840832038027,1545.8840832038027,0.9993263639872492,0.0012798950295702506
1545.8910278721246,1545.8910278721246,1.000432219835639,0.0012797205485449786
1545.8979725403537,1545.8979725403537,1.0014515099630263,0.0012803912101569197
1545.9049172085824,1545.9049172085824,1.0003631105077502,0.0012797593207100155
1545.9118618767648,1545.9118618767648,1.0022792182712779,0.0012794075225966216
1545.9188065449002,1545.9188065449002,0.9992021592783278,0.0012793003293406328
1545.925751212943,1545.925751212943,0.9987691803502784,0.0012797229505272247
1545.9326958809386,1545.9326958809386,1.0009483730149935,0.0012796134999028916
1545.9396405489815,1545.9396405489815,0.9998103796940143,0.0012798056089423156
1545.9465852169308,1545.9465852169308,0.9984398425169407,0.0012799393911303864
1545.9535298848339,1545.9535298848339,0.9995182505470211,0.00128086750984653
1545.9604745526435,1545.9604745526435,1.0010890523661653,0.001281884946707802
1545.9674192204998,1545.9674192204998,1.0007173341872952,0.0012820436350160496
1545.9743638882164,1545.9743638882164,0.9995380444172532,0.001282664144200463
1545.981308555933,1545.981308555933,0.9990448769803624,0.0012814815116048077
1545.9882532236031,1545.9882532236031,1.000334015868935,0.0012818265895914328
1545.9951978912732,1545.9951978912732,1.0005592638733405,0.0012809073544428054
1546.002142558757,1546.002142558757,0.9988504150428381,0.0012804066505140135
1546.009087226427,1546.009087226427,1.0014202770716565,0.0012803817277438232
1546.016031893864,1546.016031893864,0.9978483102261901,0.001281152197562699
1546.0229765613014,1546.0229765613014,0.9990695139872334,0.0012804377259064887
1546.0299212287384,1546.0299212287384,1.0022278188950136,0.0012808136118560671
1546.036865895943,1546.036865895943,1.000975878064661,0.001280878820267565
1546.043810563287,1546.043810563287,1.0008463047032,0.0012817991485318829
