time,time,flux,flux_err
1491.6401844810362,1491.6401844810362,0.9999272740089449,0.0006813430552542942
1491.648518168525,1491.648518168525,1.0003193221463478,0.0006802714689174087
1491.6561573824288,1491.6561573824288,0.9993471136564722,0.0006206525985266178
1491.6631021220962,1491.6631021220962,0.9999735102675332,0.0006196227246611333
1491.6700468616705,1491.6700468616705,1.0000389146162425,0.0006192588731882792
1491.6769916012445,1491.6769916012445,0.9996774655789749,0.0006186000510017235
1491.6839363408187,1491.6839363408187,1.0000241150553102,0.0006180710143276833
1491.6908810807654,1491.6908810807654,0.9993890390523387,0.0006172257124384999
1491.6978258204329,1491.6978258204329,0.9992801882223988,0.0006166882383916433
1491.7047705600066,1491.7047705600066,1.0004815987468016,0.0006165259065760212
1491.711715299581,1491.711715299581,0.9985645934661374,0.0006157700156001217
1491.7186600391556,1491.7186600391556,1.0007746800367527,0.000615936146345053
1491.7256047787293,1491.7256047787293,1.0003840674847426,0.000614596481579169
1491.7325495183038,1491.7325495183038,1.0002730727438958,0.000614322642000903
1491.739494257878,1491.739494257878,0.9992618046574874,0.0006134888362152152
1491.746438997452,1491.746438997452,1.000787972264309,0.0006135185266463636
1491.753383737026,1491.753383737026,0.9999945143651825,0.000612523198259812
1491.7603284766005,1491.7603284766005,0.9989731682787252,0.0006123318097431592
1491.7672732160813,1491.7672732160813,0.9999936817075563,0.0006118438751061586
1491.7742179552831,1491.7742179552831,0.999148849252745,0.0006119882032344055
1491.7811626948571,1491.7811626948571,1.0000746626242325,0.0006114471497991828
1491.7881074341517,1491.7881074341517,1.0009749057257413,0.0006110052738544626
1491.7950521735397,1491.7950521735397,1.00002157180757,0.0006104091191395381
1491.8019969128347,1491.8019969128347,0.9996802107450533,0.000610104148351892
1491.8089416521293,1491.8089416521293,0.999525489956287,0.0006093363877986328
1491.8158863913307,1491.8158863913307,0.9995703068624427,0.000608942203522355
1491.8228311304392,1491.8228311304392,1.0005573638283756,0.0006083467320583489
1491.8297758696406,1491.8297758696406,0.9995872499066693,0.0006077917813023731
1491.8367206087494,1491.8367206087494,1.000613756197786,0.0006078699583063702
1491.843665347858,1491.843665347858,1.0002156395049049,0.000607268319456604
1491.8506100867796,1491.8506100867796,0.999788678725013,0.0006066973588326999
1491.8575548257957,1491.8575548257957,1.000206039982843,0.0006064940317877098
1491.864499564625,1491.864499564625,0.9999676689551584,0.0006064765296852949
1491.8714443035472,1491.8714443035472,0.999750484679058,0.0006058260730689561
1491.878389042376,1491.878389042376,0.9998401138725524,0.0006057259598208953
1491.885333781112,1491.885333781112,1.0008027366038579,0.0006057750361462332
1491.8922785197549,1491.8922785197549,0.9994874717252806,0.0006051326836523502
1491.8992232583976,1491.8992232583976,0.9994451063577061,0.0006049532310993192
1491.9061679970405,1491.9061679970405,0.9995351320315494,0.0006043465935299589
1491.9131127354972,1491.9131127354972,1.000746846995272,0.0006048792431296033
1491.9200574741399,1491.9200574741399,0.9998320174612024,0.0006042703800857645
1491.927002212503,1491.927002212503,1.000737143256665,0.0006047362520644422
1491.9339469507736,1491.9339469507736,1.0000036538596575,0.0006041124088987642
1491.9408916891366,1491.9408916891366,1.0002081407795251,0.0006038242755275354
1491.947836427314,1491.947836427314,0.9998855408500091,0.0006034899844976132
1491.9547811654916,1491.9547811654916,0.9992624113689095,0.0006029440476212197
1491.9617259035751,1491.9617259035751,1.0001058255166597,0.0006032562127602419
1491.9686706416592,1491.9686706416592,0.9994119467547214,0.0006029771778667291
1491.9756153796504,1491.9756153796504,1.0000614615868604,0.000602930632713393
1491.982560117548,1491.982560117548,1.0001992534939934,0.0006028123378250576
1491.9895048553526,1491.9895048553526,1.0005018744008483,0.0006029854584196062
1491.9964495931576,1491.9964495931576,1.0006236915285363,0.0006032125093365825
1492.0033943308692,1492.0033943308692,0.9996374408873278,0.000602498370340744
1492.0103390684876,1492.0103390684876,0.9994938705111978,0.0006028444953183737
1492.0172838059195,1492.0172838059195,1.0007405917891297,0.0006031581617015086
1492.0242285436311,1492.0242285436311,0.9998200067060085,0.000602328612621666
1492.0311732808768,1492.0311732808768,0.9997399588524731,0.0006030046581476888
1492.038118018123,1492.038118018123,0.999556206717733,0.000602524363780739
1492.0450627553687,1492.0450627553687,1.000377604964357,0.0006029003580523085
1492.0520074926142,1492.0520074926142,1.0006759707970456,0.0006027005764192637
1492.0589522298603,1492.0589522298603,0.9992938106754925,0.000602628626754174
1492.0658969669198,1492.0658969669198,1.000624210962482,0.0006031169212311882
1492.0728417038863,1492.0728417038863,0.9999015549376462,0.0006025568921461922
1492.0797864407593,1492.0797864407593,0.9993865577447684,0.0006026788163123549
1492.0867311775398,1492.0867311775398,0.9999410629953495,0.0006025906086214829
1492.0936759143199,1492.0936759143199,0.9996079004329961,0.0006029663459856478
1492.1006206509142,1492.1006206509142,1.0003303989712424,0.0006029119282214448
1492.107565387508,1492.107565387508,0.9991760311913896,0.0006033509830792414
1492.1145101239154,1492.1145101239154,1.0005393682498993,0.000602791051650454
1492.1214548604162,1492.1214548604162,1.0003274339494657,0.0006029257897462915
1492.1283995967308,1492.1283995967308,1.0009770670615223,0.000603026373761569
1492.1353443329517,1492.1353443329517,0.9996040684342157,0.000602351922299893
1492.1422890691736,1492.1422890691736,0.9999238930648519,0.000602532025760409
1492.149233805209,1492.149233805209,0.9992774471502678,0.0006029830125444562
1492.156178541151,1492.156178541151,0.999948319493449,0.0006026258642336005
1492.1631232770928,1492.1631232770928,1.0004646156887576,0.0006032945854190762
1492.170068012942,1492.170068012942,1.000032199442767,0.0006028080057013816
1492.1770127486045,1492.1770127486045,1.000242631134752,0.0006025145653228787
1492.1839574842668,1492.1839574842668,1.0005815219476752,0.0006025468963710089
1492.1909022199295,1492.1909022199295,0.9996861928558815,0.0006028981808430306
1492.1978469554058,1492.1978469554058,0.999019101232145,0.0006028153021639362
1492.204791690789,1492.204791690789,0.9995924789988958,0.0006026539172091931
1492.211736425986,1492.211736425986,0.9996160034989667,0.0006028401479592803
1492.218681161369,1492.218681161369,1.0010313292015443,0.0006028972995716154
1492.2256258962866,1492.2256258962866,1.0013379433394072,0.0006031034048245424
1492.2325706315764,1492.2325706315764,1.0002594224539267,0.000603131723085977
1492.2395153665875,1492.2395153665875,0.9998108619271022,0.0006026379234396067
1492.2464601012255,1492.2464601012255,0.9999577724791517,0.0006029970127868991
1492.2534048359564,1492.2534048359564,0.9998604573252707,0.0006035852897887863
1492.2603495707813,1492.2603495707813,0.9994429370342651,0.0006026682075204116
1492.2672943053255,1492.2672943053255,1.0001906284959774,0.0006028997950791629
1492.2742390397777,1492.2742390397777,0.9998147369130554,0.000602302978902367
1492.2811837741367,1492.2811837741367,0.9994543580008836,0.0006028653761828268
1492.2881285084954,1492.2881285084954,1.0005994219023469,0.0006025525969178027
1492.2950732426684,1492.2950732426684,0.9998405780230447,0.0006026564348483179
1492.3020179768407,1492.3020179768407,0.9988637248455715,0.0006025958424132652
1492.30896271092,1492.30896271092,1.0001046163515588,0.0006028496659429294
1492.3159074448133,1492.3159074448133,1.0000225216613183,0.0006027525239245234
1492.3228521787064,1492.3228521787064,0.9993376946301773,0.0006023663573862137
1492.3297969125063,1492.3297969125063,1.0003915652401187,0.00060291447080463
1492.3367416460267,1492.3367416460267,1.0000925236953184,0.0006028891401911426
1492.3436863796403,1492.3436863796403,1.0006639960480814,0.0006027435269344269
1492.350631113161,1492.350631113161,0.9999726567540652,0.0006029185374167821
1492.3575758464951,1492.3575758464951,0.9998153188493548,0.0006029052778188513
1492.3645205798298,1492.3645205798298,1.0003162287627008,0.0006029515351702955
1492.3714653129775,1492.3714653129775,0.9992079229722577,0.0006027473547863549
1492.378410046032,1492.378410046032,1.0004423683789903,0.0006027804043874601
1492.3853547789943,1492.3853547789943,0.9991877692821058,0.0006028600873926469
1492.392299511956,1492.392299511956,0.9998583890546581,0.0006028006423600581
1492.399244244638,1492.399244244638,1.0004495045232389,0.0006031583559604311
1492.4061889775999,1492.4061889775999,0.999672501662497,0.0006028104988453131
1492.4131337101894,1492.4131337101894,1.0007332231847683,0.0006030778941263387
1492.4200784424988,1492.4200784424988,1.000042607197812,0.0006031555195945045
1492.4270231749022,1492.4270231749022,1.0001681692684135,0.0006032316729685801
1492.433967907212,1492.433967907212,1.0009385298287832,0.0006030189023060462
1492.4409126394287,1492.4409126394287,0.9988139184950683,0.0006027371129746652
1492.4478573715526,1492.4478573715526,0.9998570511316816,0.0006030233552283138
1492.454802103583,1492.454802103583,1.000463308614426,0.0006027614300076067
1492.46174683552,1492.46174683552,0.9991727144529134,0.0006027526448860855
1492.4686915673642,1492.4686915673642,1.000509793600518,0.0006028228476285915
1492.4756362990224,1492.4756362990224,1.000501193248565,0.0006029357311574592
1492.482581030587,1492.482581030587,1.0004526761018615,0.0006034189479769786
1492.4895257622447,1492.4895257622447,0.9996834321125867,0.0006028246424819282
1492.4964704936235,1492.4964704936235,1.0004890945074298,0.000603261814059576
1492.5034152249088,1492.5034152249088,1.0006678733042107,0.0006030233492032688
1492.5103599561007,1492.5103599561007,1.0003722958839627,0.0006031532232006039
1492.5173046872,1492.5173046872,0.9995564254236113,0.000603131227743428
1492.5242494182992,1492.5242494182992,0.9996087579452215,0.0006032219640118611
1492.5311941491186,1492.5311941491186,0.9999170697774886,0.0006030544945305029
1492.5381388799385,1492.5381388799385,1.0003653552015428,0.000602848220079616
1492.5450836106652,1492.5450836106652,0.9992283621558193,0.0006025993553975713
1492.5520283412982,1492.5520283412982,1.000019932443201,0.0006029821631374819
1492.5589730717456,1492.5589730717456,0.9999561809415202,0.0006032015765680087
1492.5659178021,1492.5659178021,0.9993330710699976,0.0006032098401589734
1492.5728625327333,1492.5728625327333,1.0001474279587501,0.0006030740994951534
1492.5798072626214,1492.5798072626214,0.9997498295628355,0.0006028573469250809
1492.5867519927895,1492.5867519927895,1.0001247660752528,0.0006028551424211954
1492.5936967228636,1492.5936967228636,1.000249295588437,0.0006030632372068009
1492.6006414527528,1492.6006414527528,1.000288252676562,0.0006032249804487562
1492.6075861825482,1492.6075861825482,1.0000049190690234,0.0006030637218736838
1492.61453091225,1492.61453091225,1.0003156008719767,0.0006029720790144736
1492.621475641766,1492.621475641766,1.0000552169742472,0.000602709115568243
1492.628420371282,1492.628420371282,0.9993668402304152,0.000602538726681791
1492.6353651007046,1492.6353651007046,0.9999879779704812,0.0006022881958400928
1492.6423098299408,1492.6423098299408,0.9993636404058565,0.0006025106488345984
1492.6492545591777,1492.6492545591777,1.0002304718901396,0.0006027106038132609
1492.6561992882278,1492.6561992882278,1.0004769526872108,0.0006022825196572363
1492.6631440171845,1492.6631440171845,1.000364242448728,0.0006028492510895022
1492.6700887460488,1492.6700887460488,1.0006113457611303,0.0006028057627671053
1492.6770334748194,1492.6770334748194,0.9993064553084532,0.0006029932692451417
1492.6839782034972,1492.6839782034972,0.9999973091215975,0.0006026512129933736
1492.6909229319888,1492.6909229319888,0.9997822427909174,0.0006029193444497965
1492.69786766048,1492.69786766048,1.0000347326238426,0.0006030868019468556
1492.704812388878,1492.704812388878,0.9996989587660317,0.0006026924699436084
1492.7117571169972,1492.7117571169972,0.9998346316986811,0.000602550230616636
1492.7187018453023,1492.7187018453023,1.000003201433346,0.0006027851920088242
1492.7256465733278,1492.7256465733278,1.0006383065004774,0.0006030228352654607
1492.7325913012605,1492.7325913012605,0.9993997412661291,0.0006026964823750497
1492.7395360291002,1492.7395360291002,0.9998221466528043,0.0006029531130553363
1492.74648075666,1492.74648075666,1.0016904599940766,0.0006037289411477384
1492.753425484313,1492.753425484313,0.999493864136844,0.0006027811070848265
1492.7603702118736,1492.7603702118736,1.0004739604474158,0.0006031053220907259
1492.7673149392479,1492.7673149392479,0.9999787992688441,0.000602599871171284
1492.774259666528,1492.774259666528,1.0002109184315153,0.0006025852305722322
1492.781204393716,1492.781204393716,0.9997427914778992,0.0006033361703314968
1492.78814912081,1492.78814912081,0.9984570438528421,0.0006024599478560352
1492.7950938478114,1492.7950938478114,1.000948734380037,0.0006031935561979012
1492.8020385746267,1492.8020385746267,1.0006459223904178,0.0006027777040748653
1492.8089833014415,1492.8089833014415,0.99921066032813,0.0006028346843183145
1492.8159280281634,1492.8159280281634,1.0008087190080763,0.0006034223117458181
1492.8228727546993,1492.8228727546993,0.9998611971686622,0.0006030048905736943
1492.8298174811418,1492.8298174811418,1.0008500102681728,0.0006033614384737631
1492.8367622074907,1492.8367622074907,0.9998752711904899,0.0006029334163123658
1492.8437069338404,1492.8437069338404,0.9995722839733577,0.0006028587455033075
1492.8506516599105,1492.8506516599105,0.9996275406706283,0.0006026513729172124
1492.857596385887,1492.857596385887,1.0005288611936434,0.0006031719767824671
1492.8645411119571,1492.8645411119571,0.9998454558681835,0.0006027483123848962
1492.8714858375613,1492.8714858375613,1.0016803496263724,0.0006031574614174166
1492.8784305633515,1492.8784305633515,1.0011126963161119,0.0006032422733438403
1492.8853752889559,1492.8853752889559,0.9995283705774204,0.0006027262566679757
1492.8923200143745,1492.8923200143745,0.9996106236051556,0.0006027891304269461
1492.8992647399782,1492.8992647399782,1.0001121660065588,0.0006028420872200344
1492.906209465117,1492.906209465117,1.0005409574070792,0.0006024839111612817
1492.9131541903491,1492.9131541903491,0.9997783709115085,0.0006029216293281022
1492.9200989154872,1492.9200989154872,0.9996916097510578,0.0006027604624671516
1492.9270436403472,1492.9270436403472,1.0001325699547894,0.0006026465287959588
1492.9339883652067,1492.9339883652067,1.0000710130943649,0.0006028637830148748
1492.9409330900658,1492.9409330900658,0.9997378235655677,0.0006031012569587154
1492.9478778146454,1492.9478778146454,0.9996334857277885,0.0006027756617963216
1492.9548225392255,1492.9548225392255,0.9999061562042609,0.0006024810188258706
1492.961767263619,1492.961767263619,1.0000103070397697,0.0006026705059397302
1492.9687119880123,1492.9687119880123,0.9995757050283227,0.0006026859727870954
1492.97565671222,1492.97565671222,1.000483938872803,0.0006028619531869401
1492.982601436334,1492.982601436334,1.000021949244186,0.0006029847830044685
1492.9895461603548,1492.9895461603548,1.0009650542266684,0.000603114813637372
1492.9964908841898,1492.9964908841898,1.0001559179127906,0.0006030995218213975
1493.0034356080246,1493.0034356080246,0.9999549585939784,0.0006029026895931764
1493.010380331673,1493.010380331673,0.999519684239719,0.0006023989741134326
1493.0173250552284,1493.0173250552284,1.0007693433805536,0.0006028781490995157
1493.024269778784,1493.024269778784,0.9990765932891164,0.0006029045799254248
1493.031214502246,1493.031214502246,0.9999568977030122,0.0006031493462026055
1493.0381592255223,1493.0381592255223,0.9998431562723067,0.000602733595077692
1493.045103948519,1493.045103948519,0.9998681250993238,0.0006024654860311304
1493.0520486716084,1493.0520486716084,0.9997063755824834,0.0006026583334656848
1493.0589933945118,1493.0589933945118,0.9994131099721345,0.0006024212721936167
1493.0659381173225,1493.0659381173225,1.001088568196518,0.0006026645909343037
1493.0728828400395,1493.0728828400395,1.0003962795109298,0.0006028109823197423
1493.0798275626635,1493.0798275626635,1.000024514663031,0.0006028194589369791
1493.0867722851945,1493.0867722851945,1.0000678888106367,0.0006027712657587196
1493.093717007539,1493.093717007539,1.000113399856988,0.0006026438344611107
1493.100661729884,1493.100661729884,1.0002477933478844,0.000602856632005359
1493.107606452136,1493.107606452136,0.9995319542551308,0.0006029440339861068
1493.1145511741076,1493.1145511741076,1.0001766545220048,0.0006026296356613608
1493.12149589608,1493.12149589608,0.9996793942448436,0.0006028759276363394
1493.128440617959,1493.128440617959,1.0011944224206426,0.0006027399426934445
1493.135385339745,1493.135385339745,0.9989514896835703,0.0006021951588184644
1493.1423300613446,1493.1423300613446,1.0002354359644332,0.0006026655818169668
1493.149274782851,1493.149274782851,0.9997211143011183,0.0006031161565667514
1493.1562195043575,1493.1562195043575,1.0003670576680812,0.0006030969622615231
1493.1631642255845,1493.1631642255845,1.0005706193582449,0.0006032808143467016
1493.170108946812,1493.170108946812,1.0002968153885121,0.0006031493687952019
1493.1770536677595,1493.1770536677595,1.000999148825613,0.0006030959650949316
1493.183998388707,1493.183998388707,0.9999777527632361,0.0006031243024372077
1493.1909431096549,1493.1909431096549,1.0000424630710045,0.0006032634714813691
1493.1978878306024,1493.1978878306024,0.9994269378000927,0.0006027356657892733
1493.2048325512703,1493.2048325512703,0.9989412182757528,0.0006028335545085441
1493.2117772718457,1493.2117772718457,1.00044511475718,0.0006032699281751897
1493.2187219923283,1493.2187219923283,1.0010410195538797,0.0006030437094783931
1493.2256667127165,1493.2256667127165,1.0001198324227776,0.000602616825776851
1493.2326114328262,1493.2326114328262,0.9997878327637162,0.0006033652605045629
1493.239556153029,1493.239556153029,0.9996692750776098,0.0006029995360873881
1493.2465008730449,1493.2465008730449,1.0005177990059213,0.0006032808011660136
1493.2534455929685,1493.2534455929685,1.0004360509809804,0.0006032378112241207
1493.2603903127056,1493.2603903127056,1.00006149005376,0.0006030483584866383
1493.2673350325354,1493.2673350325354,0.9999486208523779,0.0006028674069597651
1493.2742797520864,1493.2742797520864,0.9997239555947346,0.0006030352514112285
1493.2812244715442,1493.2812244715442,0.9994510782303291,0.0006030968546946901
1493.2881691910018,1493.2881691910018,0.9998989840510564,0.0006030531555480212
1493.29511391018,1493.29511391018,0.9999253839473129,0.0006028653271513458
1493.3020586293583,1493.3020586293583,1.0005114154125925,0.0006031049026470476
1493.3090033484434,1493.3090033484434,1.0001492177086608,0.0006031993548783377
1493.3159480672487,1493.3159480672487,1.0002873240162538,0.0006029688520574556
1493.3228927862408,1493.3228927862408,0.9989149957401292,0.0006026516811877436
1493.3298375048603,1493.3298375048603,0.9998377886495243,0.000603129374896682
1493.3367822234795,1493.3367822234795,1.0001712142585002,0.0006030421982754933
1493.3437269420988,1493.3437269420988,1.0001232122091006,0.000602989528575848
1493.3506716603458,1493.3506716603458,0.9996102331275774,0.0006030976710254553
1493.3576163786856,1493.3576163786856,1.0003757890877067,0.000603115241996607
1493.364561096933,1493.364561096933,1.000144422765635,0.0006029707567248017
1493.3715058149933,1493.3715058149933,0.9998034341046255,0.000603021699214417
1493.3784505329604,1493.3784505329604,1.000215560664656,0.0006030154294633847
1493.3853952508348,1493.3853952508348,1.0001272476736307,0.0006028178958056413
1493.3923399685232,1493.3923399685232,0.9994481763117966,0.00060329366506354
1493.3992846862106,1493.3992846862106,0.9996147673126469,0.000603200260420918
1493.4062294037126,1493.4062294037126,0.9999388294004848,0.0006030709520047248
