time,time,flux,flux_err
1683.3542542784114,1683.3542542784114,0.9996345600593711,0.000753943737020844
1683.3625875265845,1683.3625875265845,1.0001944415663366,0.0007549159739575379
1683.3702263374319,1683.3702263374319,0.9995798671022049,0.0006882259886498127
1683.377170710976,1683.377170710976,1.001334811902257,0.0006885341113197034
1683.3841150845667,1683.3841150845667,1.0001425794721954,0.000688236187708999
1683.3910594582035,1683.3910594582035,0.9995501987617909,0.0006883142455843085
1683.39800383184,1683.39800383184,0.9995195585350476,0.000688401599616683
1683.4049482055707,1683.4049482055707,0.9999969017840936,0.000688502902863962
1683.411892579301,1683.411892579301,1.0003854628081528,0.000688814843662488
1683.4188369530311,1683.4188369530311,0.9998963809412699,0.0006885405970371165
1683.4257813268541,1683.4257813268541,1.0006878076096153,0.0006892122255538657
1683.4327257006312,1683.4327257006312,0.9992326813480517,0.0006888655062771509
1683.4396700745478,1683.4396700745478,0.9990348084857761,0.0006886715957927993
1683.4466144485104,1683.4466144485104,1.0002952595449943,0.0006886796592449983
1683.4535588224735,1683.4535588224735,0.9999494642230797,0.0006882972807395653
1683.4605031964365,1683.4605031964365,1.0000877904698193,0.0006881236555236331
1683.4674475703996,1683.4674475703996,1.0005122835533613,0.0006884169369887657
1683.4743919443627,1683.4743919443627,1.0009735812219565,0.0006894345955030587
1683.481336318419,1683.481336318419,0.9995292806278526,0.0006892786663941543
1683.4882806925216,1683.4882806925216,0.9996999752085198,0.0006890308860308771
1683.4952250666709,1683.4952250666709,0.9998136095762391,0.0006885009836390469
1683.5021694408667,1683.5021694408667,0.9999064652623015,0.0006887408831661764
1683.509113815016,1683.509113815016,0.9999092957944065,0.0006890385017380275
1683.5160581892583,1683.5160581892583,1.0002436935307963,0.0006892740213465003
1683.5230025635472,1683.5230025635472,1.0001598018154276,0.0006886870594182322
1683.5299469378365,1683.5299469378365,0.9999543914541025,0.0006884898854543141
1683.5368913122188,1683.5368913122188,0.9994907710523618,0.0006890345301977695
1683.5438356865538,1683.5438356865538,1.0006423227183272,0.0006893979411814346
1683.5518911608633,1683.5518911608633,1.000289731258174,0.0006888078079163328
1683.5602244101779,1683.5602244101779,0.9998128347404464,0.0006883341241740099
1683.5699465344246,1683.5699465344246,0.9990605047601191,0.0006882398818187199
1683.5771686839514,1683.5771686839514,1.0003877209069185,0.0006886671103734531
1683.5855019334056,1683.5855019334056,1.000572025988207,0.0006887418607343697
1683.5924463079743,1683.5924463079743,0.9993763799214765,0.0006885790561619483
1683.5993906826357,1683.5993906826357,1.000238235228258,0.0006886725818373062
1683.608001707234,1683.608001707234,0.9994957783111194,0.000689058513685698
1683.6160571818698,1683.6160571818698,1.0006657379438717,0.0006892930184712728
1683.6230015565784,1683.6230015565784,1.0004027236767026,0.0006884525106757157
1683.629945931379,1683.629945931379,1.0009206442670224,0.0006888473146386083
1683.6382791811125,1683.6382791811125,0.9990446042471373,0.0006884306691763607
1683.645223555914,1683.645223555914,1.000497859219557,0.0006888455174690212
1683.6521679308084,1683.6521679308084,1.0007992822440452,0.0006884651969832458
1683.659112305749,1683.659112305749,0.9998132822452641,0.0006884593793132056
1683.6660566806434,1683.6660566806434,0.9995713979326795,0.0006884555985597558
1683.6730010555843,1683.6730010555843,0.9999945818313941,0.0006887065781876973
1683.6799454306652,1683.6799454306652,0.9988632966038076,0.0006886323769266062
1683.6868898055593,1683.6868898055593,0.999334419679264,0.0006882948040403614
1683.6938341806867,1683.6938341806867,1.0007437117614877,0.0006890537997027354
1683.7007785558137,1683.7007785558137,1.0007462856531273,0.0006896276408923969
1683.707722930941,1683.707722930941,0.9998135113325397,0.000688386328672146
1683.7146673060681,1683.7146673060681,1.000799055527543,0.0006887369748082037
1683.7216116811953,1683.7216116811953,0.9997983778860082,0.0006886458392146797
1683.7285560564621,1683.7285560564621,0.9993662001048549,0.0006884409334124333
1683.7355004316826,1683.7355004316826,1.0007317295348823,0.0006886840771540352
1683.7424448069964,1683.7424448069964,0.9996970327723614,0.000688591766085096
1683.7493891822628,1683.7493891822628,0.9995191019011948,0.0006882973726285494
1683.7563335576226,1683.7563335576226,0.9999154702466614,0.0006887235480213252
1683.7632779329829,1683.7632779329829,1.0004069761325194,0.0006885503824487202
1683.7702223083893,1683.7702223083893,1.0007539829514362,0.0006887918254347093
1683.7771666838428,1683.7771666838428,0.9995301555199008,0.0006881611635529761
1683.7841110592958,1683.7841110592958,0.9990982415412564,0.0006893162569134869
1683.7910554347952,1683.7910554347952,1.0001007404727662,0.0006894486623761428
1683.797999810295,1683.797999810295,0.9996976330617995,0.0006885874785490221
1683.8049441858882,1683.8049441858882,1.0005102924906992,0.0006893694105397939
1683.8118885614808,1683.8118885614808,1.0007547470950122,0.0006890150791526511
1683.8188329371199,1683.8188329371199,1.0008111126584942,0.0006890296680000164
1683.8257773127596,1683.8257773127596,0.9993984843839522,0.0006882984301768333
1683.8327216883995,1683.8327216883995,0.9987936640826434,0.0006881411226058027
1683.839666064132,1683.839666064132,1.0005347214690563,0.0006886029150887831
1683.8466104399572,1683.8466104399572,0.9991519418966595,0.0006887907542093099
1683.85355481569,1683.85355481569,1.0008710893577797,0.0006886519368620403
1683.8604991915156,1683.8604991915156,0.9996698302970953,0.0006880789865863222
1683.8674435673413,1683.8674435673413,1.0002311849296655,0.0006888644087239334
1683.8743879432132,1683.8743879432132,1.0003271153132505,0.0006883644796180138
1683.8813323191323,1683.8813323191323,1.0005162236283667,0.00068868532773568
1683.8907766704228,1683.8907766704228,0.9993859435370004,0.0006882544331826623
1683.9007765718634,1683.9007765718634,0.9992579735892482,0.0006882535854055653
1683.907720947875,1683.907720947875,1.000161113106115,0.0006885606282383063
1683.9146653239336,1683.9146653239336,0.9998518676367342,0.0006882658329048257
1683.9216096999921,1683.9216096999921,1.0003808650263095,0.000688702441023944
1683.928554076144,1683.928554076144,1.0002881522858982,0.0006887165550957519
1683.935498452342,1683.935498452342,1.0005423905603892,0.0006891427948162547
1683.9424428284467,1683.9424428284467,1.0004860140587555,0.0006890694358210614
1683.949387204692,1683.949387204692,0.9992510060735714,0.0006889723698431448
1683.9563315809833,1683.9563315809833,0.999749926951484,0.0006890578775021643
1683.9632759572746,1683.9632759572746,0.9995005884842618,0.0006899603883059764
1683.970220333566,1683.970220333566,0.9995194898971752,0.0006885793713625504
1683.9771647098573,1683.9771647098573,1.0008968760139307,0.0006888733715680881
1683.9841090862421,1683.9841090862421,1.000282140214502,0.000688838012218409
1683.9910534626729,1683.9910534626729,0.9993634402589027,0.0006886879538436023
1683.9979978391038,1683.9979978391038,0.9997136469440857,0.0006894874001643146
1684.0049422155348,1684.0049422155348,1.0006536523443883,0.0006892190094925692
1684.011886592059,1684.011886592059,0.9996862430438636,0.00068883426400378
1684.0188309685832,1684.0188309685832,1.0005429006470217,0.0006892167539468549
1684.0257753451538,1684.0257753451538,0.9988169814883594,0.0006888395726863548
1684.0327197217248,1684.0327197217248,1.0008886251113025,0.0006886789848511935
1684.0396640983886,1684.0396640983886,0.999227112014705,0.0006883543384869677
1684.0474418002075,1684.0474418002075,1.0004228025412976,0.0006884930703909921
1684.0549417270674,1684.0549417270674,1.0005532840738596,0.0006888107991636569
1684.0618861037779,1684.0618861037779,1.001039139947263,0.0006892714510589073
1684.068830480582,1684.068830480582,0.9997085723074717,0.0006888203802233189
1684.0757748573385,1684.0757748573385,0.9997121470337074,0.0006886272073886055
1684.0827192341887,1684.0827192341887,1.0000042455179368,0.0006889489559986994
1684.0896636110851,1684.0896636110851,1.0000193998220839,0.0006887910284246257
1684.0966079879356,1684.0966079879356,0.9990334277798336,0.0006884046576638224
1684.1035523648327,1684.1035523648327,0.999291567636164,0.0006890550395936943
1684.1104967417755,1684.1104967417755,1.0007331639270869,0.000689512395167075
1684.1174411187653,1684.1174411187653,1.0000227703327693,0.0006893052565156898
1684.1243854957552,1684.1243854957552,1.0001168288390134,0.0006887602071264257
1684.1313298728383,1684.1313298728383,1.0003923529354215,0.0006893739474921674
1684.1382742499213,1684.1382742499213,1.0004073588113565,0.0006898062081734743
1684.145218627004,1684.145218627004,0.9992939276334745,0.0006897038835855208
1684.15216300418,1684.15216300418,0.9992837171603703,0.0006890569903567722
1684.1591073813565,1684.1591073813565,1.0002923135228439,0.0006888997862147623
1684.1660517585326,1684.1660517585326,1.000475965896421,0.000689195429969112
1684.1729961357553,1684.1729961357553,1.000022946059394,0.000689632698850719
1684.1799405130707,1684.1799405130707,1.000763668042693,0.0006896650484078742
1684.1868848903873,1684.1868848903873,0.999808070395682,0.0006890774142398236
1684.1938292676562,1684.1938292676562,0.9989504760036929,0.0006895443452967561
1684.2007736450646,1684.2007736450646,0.9991678048676093,0.0006898938690093812
1684.2077180225199,1684.2077180225199,1.0005212754255344,0.0006894911808762655
1684.214662399976,1684.214662399976,1.000439797296876,0.0006896440923999427
1684.2216067774316,1684.2216067774316,1.0006332672206166,0.0006896060804896691
1684.2285511548866,1684.2285511548866,1.0004569195960793,0.0006905716721699073
1684.2354955323422,1684.2354955323422,0.9991166126276128,0.0006897168203287875
1684.2424399099375,1684.2424399099375,1.0008419059028157,0.0006903754166325179
1684.2493842874865,1684.2493842874865,0.9992211455335234,0.0006904578495910245
1684.2563286651744,1684.2563286651744,0.999381775834278,0.0006900429822052366
1684.2632730428163,1684.2632730428163,1.0003555672124935,0.0006905135195594983
1684.2702174205047,1684.2702174205047,1.0000874076402007,0.000691125377503447
1684.2771617981932,1684.2771617981932,1.0002288526863523,0.0006908263313396086
1684.284106176021,1684.284106176021,0.9997844282033377,0.0006914507067080901
1684.2910505537554,1684.2910505537554,0.9997795225560798,0.0006914522693990731
1684.29799493163,1684.29799493163,1.0004846057755565,0.000690839170051976
1684.3049393094589,1684.3049393094589,1.0011169556706396,0.0006928455192892172
1684.3118836873332,1684.3118836873332,0.999078922645858,0.0006915252874496718
1684.318828065254,1684.318828065254,0.9998553409299452,0.0006918391698512506
1684.325772443175,1684.325772443175,0.999842532598975,0.0006918750868535615
1684.3327168211897,1684.3327168211897,0.9999269582446793,0.0006921307868314279
1684.3396611992507,1684.3396611992507,0.9990543441294205,0.0006920387277459144
1684.3466055772647,1684.3466055772647,1.0002173075390757,0.0006922448313379022
1684.3535499553254,1684.3535499553254,1.0007010035577477,0.0006924687300957295
1684.3604943334333,1684.3604943334333,0.9998615139704061,0.00069332449206184
1684.3674387115873,1684.3674387115873,1.000147615957793,0.0006929457686264341
1684.3743830897408,1684.3743830897408,1.0010032051891875,0.0006930505977346164
1684.381327467988,1684.381327467988,0.9997504962082292,0.0006936641534430729
1684.388271846235,1684.388271846235,0.9999392800382214,0.0006935767416935924
1684.3952162244823,1684.3952162244823,1.0002210699148886,0.000694273893729302
1684.4021606027763,1684.4021606027763,0.9996316881555632,0.0006936162847627793
1684.4091049811625,1684.4091049811625,0.9993019211757224,0.0006938476401096427
1684.4160493595032,1684.4160493595032,1.0005465645306741,0.0006947659211826546
1684.4229937379368,1684.4229937379368,0.9995988807118685,0.0006942057006042373
1684.4299381163698,1684.4299381163698,0.9998127507738239,0.0006943835243554356
1684.43688249485,1684.43688249485,0.9990895300983726,0.0006949169167623437
1684.4438268733297,1684.4438268733297,1.0003272107101255,0.0006955504955889889
1684.4507712518564,1684.4507712518564,1.0008298773550617,0.0006955758149000741
1684.457715630476,1684.457715630476,1.001291427977639,0.0006958470286607947
1684.4646600090957,1684.4646600090957,0.9997311172997382,0.0006958843584009246
1684.4716043877154,1684.4716043877154,0.9994037494902146,0.0006953513004002456
1684.478548766335,1684.478548766335,1.000031618288014,0.0006959782950006876
1684.4854931450943,1684.4854931450943,0.9998331962144069,0.0006960732148089444
1684.4924375238072,1684.4924375238072,0.9994014559202455,0.0006957551237020252
1684.499381902613,1684.499381902613,0.9996474985502676,0.0006962389369799898
1684.506326281419,1684.506326281419,0.9999737578779078,0.0006966101647851785
1684.5132706602249,1684.5132706602249,1.0004338367989836,0.0006963052448501538
1684.520215039124,1684.520215039124,1.000113434288719,0.0006971917565961253
1684.5271594179762,1684.5271594179762,1.0005148626226201,0.0006966344199051684
1684.5341037969688,1684.5341037969688,0.9997097398864236,0.0006968166808956111
1684.541048175914,1684.541048175914,1.0009632220772606,0.0006971879748320074
1684.547992554953,1684.547992554953,0.9996223291036819,0.0006969962175581702
1684.5549369339449,1684.5549369339449,0.9993997579288141,0.0006975388435181001
1684.5618813130307,1684.5618813130307,1.0000890167405887,0.0006973347182811524
1684.5688256921621,1684.5688256921621,1.0001902511408307,0.0006975683490750283
1684.5757700712475,1684.5757700712475,0.9997229103776206,0.0006973839279172579
1684.5827144504722,1684.5827144504722,0.9995507821980436,0.0006983982013085775
1684.5896588296514,1684.5896588296514,1.0002493252670823,0.0006980023007372607
1684.5966032088763,1684.5966032088763,1.0001213782073783,0.0006987777149306017
1684.603547588194,1684.603547588194,0.9994595554385363,0.0006987150002724535
1684.6104919674658,1684.6104919674658,1.0000333235693244,0.0006988116341614374
1684.617436346784,1684.617436346784,1.0010126791040597,0.000699117188066697
1684.624380726195,1684.624380726195,1.000239273535673,0.0006991080177940214
1684.631325105606,1684.631325105606,1.000347712702855,0.0006986956405921655
1684.6382694850174,1684.6382694850174,0.99917330475302,0.000699523598997621
1684.6452138644756,1684.6452138644756,0.9995964918722235,0.0006991924576073282
1684.65215824398,1684.65215824398,0.9994177254408371,0.0006994592259585579
1684.659102623531,1684.659102623531,0.9994011284141123,0.0006992502123746144
1684.666047003082,1684.666047003082,1.0007357256462648,0.0006993477122858778
1684.6729913827264,1684.6729913827264,1.0006562068348295,0.0006994745637861414
1684.6799357623702,1684.6799357623702,1.000466159905745,0.0006996221436739279
1684.686880142014,1684.686880142014,0.9999746280254971,0.0006992460974502327
1684.6938245217048,1684.6938245217048,0.9999092529827746,0.0006999064804745466
1684.7007689014888,1684.7007689014888,1.000101134657965,0.0007003535096905895
1684.7077132812726,1684.7077132812726,0.9998352086934853,0.0007000830877339369
1684.7146576610562,1684.7146576610562,1.0001352923349707,0.0006995389635319196
1684.72160204084,1684.72160204084,1.000282573903363,0.0006998731197903933
1684.728546420857,1684.728546420857,0.9995697433944697,0.0007003636042932992
1684.7354908006869,1684.7354908006869,0.9990023405576457,0.0006999721572505339
1684.7424351806571,1684.7424351806571,1.0000197454626873,0.0006999898183187183
1684.7493795606272,1684.7493795606272,1.0003032591065049,0.0007005674339304065
1684.756323940644,1684.756323940644,1.000219190250451,0.0006998848869137392
1684.7632683206605,1684.7632683206605,0.9999748016052002,0.0007001870748374683
1684.7702127007701,1684.7702127007701,1.0003888212695649,0.000700368007825978
1684.77715708088,1684.77715708088,0.9996108972094783,0.0007001858408315538
1684.7841014610829,1684.7841014610829,0.9998176822600549,0.0007007928630509578
1684.7910458412396,1684.7910458412396,1.0012753004847097,0.0007003255763937495
1684.7979902214422,1684.7979902214422,0.9997321201682006,0.0007001475069261049
1684.8049346016912,1684.8049346016912,0.9995239846485091,0.0007005396114005576
1684.8118789819412,1684.8118789819412,0.9997234825537114,0.000701200199330207
1684.818823362284,1684.818823362284,1.0002065152800421,0.0007007921772756607
1684.825767742673,1684.825767742673,0.9992022039889765,0.0007007441745599915
1684.8327121230152,1684.8327121230152,0.9994935975145862,0.0007008091080547082
1684.8396565034514,1684.8396565034514,1.0009071376191194,0.0007007520235554732
1684.8466008839337,1684.8466008839337,1.0004189989765822,0.0007012436560686523
1684.853545264416,1684.853545264416,1.0010391078822085,0.00070113443032837
1684.8604896448978,1684.8604896448978,0.9991357004168272,0.0007011630556407052
1684.8674340254734,1684.8674340254734,0.9999553496892789,0.0007011924237179245
1684.8743784060957,1684.8743784060957,0.9995840699539235,0.0007019733930216633
1684.8813227867176,1684.8813227867176,1.0005364728291286,0.0007013861955165961
1684.888267167386,1684.888267167386,1.0010746414637826,0.0007018181365081296
1684.8952115480547,1684.8952115480547,0.9989066395558798,0.0007014964933286967
1684.9021559288162,1684.9021559288162,0.9964690186664139,0.0007016872581571575
1684.9091003095782,1684.9091003095782,0.9954207303374645,0.0007008096793347213
1684.9160446903861,1684.9160446903861,0.9950301038587053,0.0007011556021718941
1684.9229890711952,1684.9229890711952,0.9959435082875595,0.00070185208528455
1684.9299334520497,1684.9299334520497,0.996653861690443,0.0007012793613387044
1684.9368778329972,1684.9368778329972,0.997233973495822,0.0007012760282724042
1684.9438222139456,1684.9438222139456,0.998196573226451,0.0007017637374725536
1684.9507665948931,1684.9507665948931,0.9993403599211798,0.000701184798195953
1684.9577109758416,1684.9577109758416,1.000973794590491,0.0007016373853869483
1684.9646553569753,1684.9646553569753,1.0006774218477863,0.0007015449909364158
1684.9715997379699,1684.9715997379699,1.0017667319991337,0.000701412672355195
1684.9785441191511,1684.9785441191511,1.0020222323273613,0.0007009833821742853
1684.9854885002849,1684.9854885002849,0.9992150388976295,0.000700022148727199
1684.9924328814657,1684.9924328814657,1.0010544401443329,0.0007001206664732528
1684.9993772626465,1684.9993772626465,0.9989847275541637,0.0007007464950824709
1685.0063216439207,1685.0063216439207,1.000097303373952,0.0007000932818329497
1685.0132660251943,1685.0132660251943,0.999961110667812,0.0007002363874759781
1685.0202104065615,1685.0202104065615,0.9994503925735441,0.0007004284029332194
1685.027154787882,1685.027154787882,0.9994640495187994,0.000700187868216487
1685.0340991692494,1685.0340991692494,1.0000926161259707,0.0006999081868648442
1685.041043550663,1685.041043550663,0.9998313539024961,0.0007005121487009643
1685.0479879321695,1685.0479879321695,1.0000492520067807,0.000699974874209095
1685.054932313583,1685.054932313583,1.0005841319214988,0.0007003303703159177
1685.0618766951363,1685.0618766951363,1.000339661050512,0.0007004709072807524
1685.0688210767362,1685.0688210767362,0.9998016122785216,0.0007003830730251136
1685.0757654582897,1685.0757654582897,0.9999321288397149,0.000700195598322165
1685.0827098399361,1685.0827098399361,0.9999717783629437,0.0007006494340527292
1685.0896542216294,1685.0896542216294,0.9994466337438059,0.0007002766820631119
1685.096598603322,1685.096598603322,0.9999817568547946,0.0007011192422630717
1685.1035429850613,1685.1035429850613,1.0003585707300018,0.0007002655796028185
1685.1104873668476,1685.1104873668476,1.0000725247874853,0.0007010085144940005
1685.117431748634,1685.117431748634,0.999042174281038,0.0007012794275332774
1685.1243761305134,1685.1243761305134,1.0001015550008208,0.0007010217316544447
1685.1313205123456,1685.1313205123456,1.000341052051353,0.0007008369330125146
1685.138264894272,1685.138264894272,1.000430248888931,0.0007011762271629261
