time,time,flux,flux_err
1410.9101524576024,1410.9101524576024,1.000012499934368,0.0001854960974688736
1410.9177916297913,1410.9177916297913,0.9999887948082371,0.0001693315222782435
1410.924736331536,1410.924736331536,0.9997678890468832,0.00016931748968001357
1410.931681033187,1410.931681033187,0.9997645119763094,0.00016931434098394635
1410.9386257348383,1410.9386257348383,1.0001639967522844,0.00016932958808225067
1410.9455704362103,1410.9455704362103,0.9999152987740876,0.00016930731071289787
1410.9525151378612,1410.9525151378612,0.9999898568551668,0.00016930128766901167
1410.9594598390477,1410.9594598390477,1.0003743894423467,0.00016933533442928941
1410.9677934804697,1410.9677934804697,1.0001540087379017,0.0001692578292380519
1410.9839051868478,1410.9839051868478,0.9999704974140471,0.000169169504100062
1410.991405463849,1410.991405463849,0.9999653743919605,0.0001691845769057201
1411.0011280447638,1411.0011280447638,0.9999157758579942,0.00016911012085095182
1411.0108506256788,1411.0108506256788,1.000184941030555,0.00016918460611701821
1411.0177953262123,1411.0177953262123,0.9997606972225425,0.00016912054632725734
1411.0247400264666,1411.0247400264666,1.0002398988275236,0.00016915683588232734
1411.0316847268145,1411.0316847268145,1.0000788436924593,0.00016911490383482707
1411.0386294268815,1411.0386294268815,0.9998949048215291,0.00016908847458945768
1411.0455741268574,1411.0455741268574,1.0001183939362999,0.00016908208717362732
1411.0536299789283,1411.0536299789283,1.0000264219371886,0.00016905328752315287
1411.0608524666713,1411.0608524666713,1.0000420186131147,0.0001690516870350626
1411.0677971663667,1411.0677971663667,1.0001042063194725,0.00016905081065145283
1411.074741865969,1411.074741865969,0.9999000238328628,0.00016904818685303455
1411.0816865653856,1411.0816865653856,0.9996541681268205,0.00016901782850276052
1411.0886312648013,1411.0886312648013,1.0001706697111206,0.00016903395920488283
1411.0955759641245,1411.0955759641245,1.0001174810766256,0.00016904671944942146
1411.1025206631682,1411.1025206631682,1.0000107980052708,0.0001690725560898455
1411.1094653623045,1411.1094653623045,0.9999611835621888,0.00016901869139567503
1411.1164100611625,1411.1164100611625,0.9997143652036659,0.00016898730210143165
1411.123354760019,1411.123354760019,0.9999644320831106,0.00016899715643851107
1411.1302994585972,1411.1302994585972,0.9999062484979293,0.00016896632912912407
1411.1372441571752,1411.1372441571752,1.0002788036290877,0.00016900680266169257
1411.1441888555662,1411.1441888555662,1.0000712511615748,0.00016896984947884628
1411.151133553959,1411.151133553959,1.0001450652652482,0.0001689740272257483
1411.1580782521637,1411.1580782521637,1.0000886723144897,0.00016892927791072577
1411.1650229501834,1411.1650229501834,0.9998720081803192,0.000168934479357569
1411.171967648202,1411.171967648202,0.9996500260014016,0.00016886395824141227
1411.1789123461278,1411.1789123461278,1.0001230206113418,0.00016890745418164513
1411.185857043775,1411.185857043775,0.9997593606524411,0.00016885924294423037
1411.1928017414214,1411.1928017414214,0.9998880666308964,0.00016888038862341605
1411.1997464388817,1411.1997464388817,1.0000846458500663,0.00016889186425178852
1411.206691136249,1411.206691136249,0.9999566949299913,0.0001688652539365713
1411.2136358335224,1411.2136358335224,1.0000422125987876,0.0001688594744404254
1411.2205805307042,1411.2205805307042,1.000321432314669,0.00016887714766643068
1411.2275252276052,1411.2275252276052,0.9998684132204527,0.00016884523851419726
1411.234469924507,1411.234469924507,1.0002623353890532,0.0001688624580312501
1411.2414146213155,1411.2414146213155,1.00004291726059,0.00016885180267294986
1411.2483593180302,1411.2483593180302,1.000041731047535,0.00016888622860826555
1411.2553040145601,1411.2553040145601,1.0006101512500003,0.00016891732731173475
1411.2622487108092,1411.2622487108092,0.9998835738100906,0.00016886533568002688
1411.2691934071522,1411.2691934071522,0.999863783131377,0.00016885977032996772
1411.2761381032155,1411.2761381032155,1.0005141177891406,0.00016890620178042082
1411.2830827991852,1411.2830827991852,0.9997629332359492,0.00016885369743334974
1411.2900274950628,1411.2900274950628,0.9999436144729735,0.0001688516070706235
1411.2969721908464,1411.2969721908464,0.9999730447581727,0.0001688861409331303
1411.3039168865375,1411.3039168865375,1.0000322408852247,0.00016888149048608004
1411.3108615820422,1411.3108615820422,0.999839557042751,0.00016888728122243146
1411.3178062773602,1411.3178062773602,1.0001405395986436,0.0001688998487249596
1411.324750972679,1411.324750972679,0.9999121374930204,0.0001689020867377063
1411.3316956677174,1411.3316956677174,1.000068864992746,0.0001688901016764573
1411.3386403628497,1411.3386403628497,0.9999487589525987,0.0001688556383193076
1411.3455850576088,1411.3455850576088,0.9999570502816383,0.00016888028189174912
1411.3525297523686,1411.3525297523686,0.9999257461780594,0.00016885081710361557
1411.3594744470352,1411.3594744470352,0.9999682659881619,0.00016884848989566357
1411.3664191413284,1411.3664191413284,1.0000507756640944,0.0001688258249335325
1411.3733638359959,1411.3733638359959,1.0000522737521014,0.00016883804390947326
1411.3803085301956,1411.3803085301956,0.9998765081186003,0.0001688361601080581
1411.387253224117,1411.387253224117,1.0004357797950116,0.00016885890002378223
1411.3941979181318,1411.3941979181318,1.0001013941144654,0.0001688206751488741
1411.4011426119594,1411.4011426119594,1.0000745863048615,0.00016879537928561289
1411.408087305695,1411.408087305695,0.9997878771454743,0.00016878418925929446
1411.4150319992436,1411.4150319992436,0.9994763933092055,0.00016876701303015793
1411.4219766927924,1411.4219766927924,1.0000524969467297,0.0001687661526992545
1411.428921386062,1411.428921386062,1.0000059256767577,0.0001687863946206849
1411.4358660792375,1411.4358660792375,0.9999128291840604,0.00016875771062337756
1411.4428107723213,1411.4428107723213,1.0003376604144292,0.00016875247127826897
1411.449755465311,1411.449755465311,1.0000044265962431,0.00016874261916894858
1411.4567001580215,1411.4567001580215,1.0007506885876554,0.00016884910999701578
1411.4636448506394,1411.4636448506394,1.0005131287431936,0.00016881988304323758
1411.4705895433494,1411.4705895433494,1.0000570393252366,0.00016874273055929531
1411.4775342356884,1411.4775342356884,0.9997764815147232,0.00016873677573200706
1411.4844789279327,1411.4844789279327,0.9996301105805511,0.00016871340257050717
1411.491423620178,1411.491423620178,0.9998500281605545,0.0001687550126278551
1411.4983683120504,1411.4983683120504,1.0000263881289777,0.0001687842814067353
1411.5053130039223,1411.5053130039223,1.0001102585326287,0.00016878801967405306
1411.5122576957951,1411.5122576957951,1.0000903965385541,0.00016876412675064827
1411.519202387481,1411.519202387481,1.0003333884083192,0.00016878809207491883
1411.5261470789812,1411.5261470789812,0.9999532189736611,0.0001687948848528093
1411.5330917702947,1411.5330917702947,1.0002200785459974,0.00016880807079615523
1411.5400364616082,1411.5400364616082,0.9999815604485391,0.00016876836367843588
1411.546981152643,1411.546981152643,1.000029290680881,0.000168768313200136
1411.5539258436766,1411.5539258436766,0.9997897174504964,0.00016875369490571284
1411.560870534525,1411.560870534525,1.0001453626123307,0.00016879142568012229
1411.5678152252792,1411.5678152252792,0.9999773431729526,0.00016877865390703097
1411.574759915755,1411.574759915755,0.9999930026915109,0.0001687778104658311
1411.5817046063237,1411.5817046063237,1.0001734124387878,0.00016879552354830525
1411.5886492966122,1411.5886492966122,1.0001368558026622,0.00016880969720801616
1411.5955939868093,1411.5955939868093,1.0000479561637698,0.00016882799770552
1411.602538676818,1411.602538676818,1.0001452623757388,0.00016882428040653505
1411.6094833667353,1411.6094833667353,0.9998518620382475,0.00016882308181738367
1411.6164280566518,1411.6164280566518,0.999762062104878,0.00016881121677308147
1411.6233727461954,1411.6233727461954,1.0000531718494954,0.00016881089691783826
1411.6303174357404,1411.6303174357404,1.0000134947576413,0.00016882528521714127
1411.637262125284,1411.637262125284,0.9997501473363888,0.00016880305781905207
1411.6442068144556,1411.6442068144556,0.9999133215070026,0.00016880032862602828
1411.6511515036273,1411.6511515036273,1.000025942689528,0.00016883049461109413
1411.6580961927054,1411.6580961927054,1.0001636188117007,0.00016882830091707193
1411.6650408815049,1411.6650408815049,1.0002473114738646,0.0001688303241724627
1411.6719855703034,1411.6719855703034,0.9999901976908205,0.00016880695353514607
1411.6789302589166,1411.6789302589166,1.0001934050609536,0.0001688171384838373
1411.685874947343,1411.685874947343,0.9997629979113423,0.00016875852334273663
1411.6928196356764,1411.6928196356764,0.9999836039974206,0.00016879213387497238
1411.6997643240102,1411.6997643240102,0.9997765796342077,0.00016877449422750626
1411.7067090120636,1411.7067090120636,0.999912779024568,0.00016877424624145022
1411.7136537000251,1411.7136537000251,1.0000244200963784,0.000168774006785095
1411.7205983878923,1411.7205983878923,1.0000336531672938,0.00016880926011526403
1411.727543075667,1411.727543075667,1.0000308466081553,0.00016880926965869627
1411.734487763162,1411.734487763162,0.9999127984705343,0.00016878491659860258
1411.7414324507504,1411.7414324507504,0.9999459494392486,0.0001687853644553475
1411.7483771379666,1411.7483771379666,1.000113478581388,0.00016880286419991949
1411.755321825182,1411.755321825182,1.000001355862635,0.00016878157409482084
1411.7622665123054,1411.7622665123054,0.9999938126788978,0.00016880218504681014
1411.7692111991482,1411.7692111991482,0.9999174620360705,0.00016880868629028084
1411.7761558858986,1411.7761558858986,1.0001353062287806,0.00016881168482748478
1411.7831005725552,1411.7831005725552,1.0001330656768812,0.0001688347441540583
1411.7900452591189,1411.7900452591189,1.000099864226769,0.0001688021868980602
1411.796989945497,1411.796989945497,0.999897134352344,0.0001687959571284503
1411.8039346318742,1411.8039346318742,0.9995554033543026,0.00016879494359616304
1411.8108793178797,1411.8108793178797,1.0001549230908247,0.0001688106659145508
1411.8178240039779,1411.8178240039779,0.9999678197079446,0.0001688160199383527
1411.8247686898894,1411.8247686898894,1.0001254869042524,0.00016882697725473193
1411.8317133757091,1411.8317133757091,1.0002550953761484,0.00016883140570422234
1411.8386580613408,1411.8386580613408,1.0000644113865673,0.00016880751484936216
1411.8456027467878,1411.8456027467878,0.9998954394601147,0.00016881607659916017
1411.8525474321405,1411.8525474321405,0.9996912236082525,0.00016878994852168158
1411.8594921174936,1411.8594921174936,1.0000970829559992,0.00016882629445720267
1411.8664368024745,1411.8664368024745,0.9997605711588615,0.00016878760121717118
1411.8733814873617,1411.8733814873617,0.9999035151599784,0.00016880204117218089
1411.8803261722496,1411.8803261722496,1.0001423957776958,0.0001688077510849639
1411.8872708571366,1411.8872708571366,1.000229739360132,0.00016882533834070755
1411.894215541652,1411.894215541652,1.0001365146656174,0.0001688114549747413
1411.9011602261667,1411.9011602261667,1.0001398177710992,0.00016881482111166048
1411.908104910589,1411.908104910589,1.0002018983190013,0.00016878924584810443
1411.915049594638,1411.915049594638,0.9994958036549241,0.00016874520358070368
1411.9219942787804,1411.9219942787804,0.9998280963525501,0.0001687669365232609
1411.9289389628302,1411.9289389628302,0.9999742294251426,0.00016879281786236097
1411.9358836465995,1411.9358836465995,1.0001537725993384,0.00016879183159570677
1411.9428283302768,1411.9428283302768,0.9998192871345422,0.00016876760014019587
1411.94977301386,1411.94977301386,1.0002909333013241,0.00016879910776163883
1411.9567176973503,1411.9567176973503,1.0002318191575126,0.0001687983082492757
1411.963662380655,1411.963662380655,1.0000084951301318,0.00016877863476051733
1411.9706070638656,1411.9706070638656,0.999923736348579,0.00016876514954722142
1411.977551746891,1411.977551746891,0.9999558639689232,0.00016873548972645697
1411.9844964298227,1411.9844964298227,0.9997916476340108,0.00016873774813206023
1411.9914411127545,1411.9914411127545,0.9997090633738109,0.00016874256380109597
1411.9983857953139,1411.9983857953139,1.0001255485393947,0.0001687286684855103
1412.0053304778726,1412.0053304778726,1.0000564816692137,0.00016876325204591894
1412.0122751604324,1412.0122751604324,1.0004926640049863,0.00016878119049841886
1412.0192198425252,1412.0192198425252,1.0001461277682668,0.00016875300508210472
1412.0261645248056,1412.0261645248056,0.999830112663955,0.000168740403954804
1412.0331092068986,1412.0331092068986,1.0001320550169712,0.00016873913633315955
1412.0400538888061,1412.0400538888061,0.9999745437371343,0.00016871183149080464
1412.0469985706204,1412.0469985706204,0.9999708104761027,0.00016868726475621903
1412.053943252248,1412.053943252248,1.0000623522710121,0.00016873516364131848
1412.0608879337835,1412.0608879337835,1.0001258967899023,0.0001687344616217434
1412.0678326152242,1412.0678326152242,0.9997732712359928,0.00016871666712116757
1412.0747772964805,1412.0747772964805,0.9999867708338135,0.00016875288007388696
1412.081721977642,1412.081721977642,1.000255045980364,0.00016875178718136433
1412.088666658618,1412.088666658618,0.9999241078301997,0.00016870217718993526
1412.0956113396874,1412.0956113396874,0.9995952736619487,0.00016868724363618219
1412.1025560203834,1412.1025560203834,0.9999444033668599,0.00016872235310634142
1412.1095007010808,1412.1095007010808,1.0004175044111057,0.0001687544480945939
1412.1164453815904,1412.1164453815904,0.9998066443964622,0.0001687166451557643
1412.1233900618215,1412.1233900618215,0.9998404239569247,0.0001687191936525897
1412.1303347425178,1412.1303347425178,0.9999755688329696,0.0001687040779432588
1412.1372794222834,1412.1372794222834,1.0001441327371956,0.0001687131848721179
1412.1442241025143,1412.1442241025143,1.000271298332415,0.00016870279341903212
1412.1511687823725,1412.1511687823725,1.000248554091329,0.0001687254932264308
1412.1581134622313,1412.1581134622313,0.999993815631583,0.00016869508376157703
1412.165058141903,1412.165058141903,0.999655586855319,0.0001686950748783063
1412.172002821389,1412.172002821389,1.0000049460017353,0.00016870428093907944
1412.1789475008748,1412.1789475008748,0.9998513246428068,0.0001686804181747602
1412.1858921800813,1412.1858921800813,0.9998361728312737,0.00016872430055434243
1412.1928368593806,1412.1928368593806,1.000226893981065,0.00016872260131960452
1412.1997815384007,1412.1997815384007,0.9999709798725274,0.0001686971905015614
1412.2067262172354,1412.2067262172354,1.0001392731862988,0.00016871191405277972
1412.2136708960684,1412.2136708960684,0.9998860148224239,0.00016866856137182716
1412.2206155746235,1412.2206155746235,0.9997324033712969,0.00016863905964723214
1412.2275602532711,1412.2275602532711,0.9998175058409009,0.0001686604143434325
1412.2345049317323,1412.2345049317323,0.9997944592395408,0.00016864572242037925
1412.2414496099148,1412.2414496099148,1.0000536343766373,0.00016862531473409322
1412.2483942882823,1412.2483942882823,1.0001037751806137,0.00016859771365614854
1412.2561723275337,1412.2561723275337,0.9999206902784271,0.0001685748051806659
1412.2647837281327,1412.2647837281327,1.0009551431757808,0.0001685782504468678
1412.2747840642196,1412.2747840642196,0.9999102114213798,0.0001685285956932059
1412.2861733353284,1412.2861733353284,1.0001006227415492,0.00016850436838827167
1412.2942291611357,1412.2942291611357,1.0000677454492886,0.00016852035057448065
1412.3011738382936,1412.3011738382936,1.0000903628116862,0.0001685793157997151
1412.308118515451,1412.308118515451,0.9998805778035577,0.0001685492671442063
1412.3150631925155,1412.3150631925155,1.000058758498335,0.00016855800219836196
1412.3220078693007,1412.3220078693007,0.9999115141786353,0.00016858047695964413
1412.3289525459923,1412.3289525459923,0.9997155540227862,0.00016851800467456546
1412.3358972227777,1412.3358972227777,0.9999340900050239,0.00016860087658633437
1412.3428418992828,1412.3428418992828,1.0000925425751137,0.00016861162999902215
1412.349786575696,1412.349786575696,1.0002196493502058,0.00016859511835290705
1412.3567312519215,1412.3567312519215,1.0005086924625104,0.00016862990020879707
1412.3636759281483,1412.3636759281483,1.000065467632867,0.00016857768050040263
1412.3706206040947,1412.3706206040947,0.9998845434975372,0.00016859460872719234
1412.3775652800416,1412.3775652800416,0.9997154314544847,0.00016860817142757322
1412.3845099558025,1412.3845099558025,0.9998890554688028,0.00016861448809119873
1412.3914546316555,1412.3914546316555,1.0000357692124076,0.00016864260677336554
1412.3983993072306,1412.3983993072306,1.0003343766030706,0.00016865920099795072
1412.4053439823388,1412.4053439823388,0.999918737141218,0.0001686069676359408
1412.4122886578202,1412.4122886578202,1.000142589557766,0.00016861335980966646
1412.4192333330218,1412.4192333330218,1.0000492053114491,0.00016856481616642178
1412.4261780080371,1412.4261780080371,0.9997430250098942,0.0001685918189539963
1412.4331226830532,1412.4331226830532,0.9995144048064859,0.0001685725419005971
1412.4400673578818,1412.4400673578818,0.9999419141660946,0.0001686120593194557
1412.4470120325254,1412.4470120325254,1.0002787233566148,0.00016857313797947308
1412.453956707168,1412.453956707168,1.000098788593736,0.00016858525403510045
1412.460901381718,1412.460901381718,1.0001132211727177,0.00016854734484911057
1412.4678460559883,1412.4678460559883,1.000281366955425,0.00016856325277710374
1412.4747907301658,1412.4747907301658,1.0001332595651145,0.00016854085233097973
1412.481735404343,1412.481735404343,1.000061693245463,0.0001685077140366579
1412.4886800783336,1412.4886800783336,0.9997296777105031,0.00016855722229355605
1412.495624752139,1412.495624752139,0.9996962141943424,0.0001685489852975782
1412.5025694259432,1412.5025694259432,0.9998342975476456,0.0001685563022619599
1412.5095140996557,1412.5095140996557,1.0004477452309628,0.000168621085578878
1412.5164587730874,1412.5164587730874,0.9998363956765907,0.00016858437331736562
1412.523403446613,1412.523403446613,1.0001915846486145,0.00016863181445709563
1412.5303481198591,1412.5303481198591,0.9999917229936329,0.00016862896026646903
1412.5372927931046,1412.5372927931046,0.9998934165168343,0.00016862292836642006
1412.5442374658853,1412.5442374658853,0.9995755999575884,0.0001685937351159072
1412.5511821389446,1412.5511821389446,1.0002903164513195,0.00016864888580673957
1412.5581268117253,1412.5581268117253,1.0000814716064204,0.00016864308491955737
1412.5650714844123,1412.5650714844123,1.0000633265309364,0.00016864124352752836
1412.5720161570066,1412.5720161570066,1.0001705674948234,0.0001686687261753641
1412.5789608295074,1412.5789608295074,1.0000934912351243,0.00016863137954811622
1412.5859055018223,1412.5859055018223,0.9996537045914099,0.0001686160358596127
1412.592850174044,1412.592850174044,0.9998529562039382,0.0001686383792045417
1412.599794846172,1412.599794846172,1.000145618610172,0.0001686313600764811
1412.6067395182076,1412.6067395182076,0.9997777376876504,0.00016860587360523918
1412.613684190056,1412.613684190056,1.0002002601869882,0.00016863677110201
1412.6206288618125,1412.6206288618125,0.9999157834247823,0.0001686225627087799
1412.6275735333816,1412.6275735333816,1.000331267626913,0.00016860222696123427
1412.6345182049515,1412.6345182049515,0.9999905797779249,0.00016861615545585073
1412.641462876335,1412.641462876335,0.9998978742028941,0.00016862211238967949
1412.648407547625,1412.648407547625,0.9998632902947057,0.00016861362441386083
1412.6553522187294,1412.6553522187294,0.9999131538894543,0.0001686148978551686
1412.6622968898328,1412.6622968898328,1.0000485503240923,0.0001685978536440512
1412.6692415609373,1412.6692415609373,1.0000407240919735,0.00016859816285185784
1412.676186231482,1412.676186231482,1.0000516864980813,0.0001685857249524013
1412.6831309024,1412.6831309024,0.9998624468454672,0.0001685371131608332
