time,time,flux,flux_err
1325.3003667762578,1325.3003667762578,0.9998046946461127,0.0004573893747248338
1325.3087000558708,1325.3087000558708,1.0003586110446239,0.00045763610149680844
1325.3170333356397,1325.3170333356397,0.9997811459800575,0.0004576027647471666
1325.3246721756198,1325.3246721756198,1.0004063632762112,0.0004179594595568188
1325.3316165757533,1325.3316165757533,0.9996819114095865,0.0004180253947988037
1325.338560976027,1325.338560976027,0.9993306885166297,0.00041815908520003396
1325.3455053764171,1325.3455053764171,1.0003657660518717,0.0004184509591181933
1325.35244977697,1325.35244977697,1.0002145413567352,0.0004185860821785432
1325.3593941776157,1325.3593941776157,0.9998232172173575,0.00041873728086787917
1325.366338578425,1325.366338578425,0.9999932709347595,0.00041893224057371336
1325.3732829793735,1325.3732829793735,1.0002689695036875,0.0004191197340990292
1325.3802273804154,1325.3802273804154,1.000380823308365,0.0004193136000905036
1325.3871717816203,1325.3871717816203,0.9999695299484574,0.00041949977962225504
1325.3941161829646,1325.3941161829646,0.9997449508493681,0.0004196584471452544
1325.4010605844255,1325.4010605844255,0.9991425319829507,0.0004196639814646932
1325.4080049860029,1325.4080049860029,0.9993836347792235,0.00041985009120185996
1325.4149493877198,1325.4149493877198,1.0008246593883563,0.0004203396096496867
1325.4218937895535,1325.4218937895535,1.000716434718574,0.00042043636454944244
1325.428838191503,1325.428838191503,1.0006893295670731,0.0004205751388499603
1325.4357825935926,1325.4357825935926,0.9998444688955811,0.00042063334479086785
1325.4427269958219,1325.4427269958219,0.9998237945273971,0.0004207121328167472
1325.4496713981443,1325.4496713981443,0.9994568624701058,0.0004208235301171876
1325.45661580056,1325.45661580056,1.0001581453250226,0.0004210887847365845
1325.4635602031149,1325.4635602031149,0.9993993410012209,0.00042114597730529707
1325.4705046058332,1325.4705046058332,0.9999235509394822,0.0004213490131761199
1325.477449008598,1325.477449008598,1.0000097938339771,0.0004216488014631521
1325.4843934115256,1325.4843934115256,0.9998679293021613,0.0004218182151543021
1325.4913378145698,1325.4913378145698,1.000505645309016,0.0004220504725538879
1325.4982822177074,1325.4982822177074,1.0003012200326344,0.0004221867119710678
1325.505226620961,1325.505226620961,1.0001327364675061,0.00042240257133635507
1325.5121710243316,1325.5121710243316,0.9994271439391079,0.00042246297203136417
1325.519115427794,1325.519115427794,1.00061957936835,0.00042288355353499945
1325.5260598314205,1325.5260598314205,0.999308549634876,0.0004228429295308371
1325.5330042351397,1325.5330042351397,0.9999812516085376,0.00042317323074237307
1325.539948638929,1325.539948638929,1.0002011288090438,0.000423359322451427
1325.5468930428349,1325.5468930428349,1.0004481644516037,0.000423585858661203
1325.5538374468565,1325.5538374468565,0.9999800030910844,0.00042373721848605546
1325.5607818509955,1325.5607818509955,0.9996830444836016,0.000423907017473922
1325.5677262552267,1325.5677262552267,1.0002273253188494,0.00042414183538147244
1325.5746706595748,1325.5746706595748,0.9997494012149692,0.0004242848229442169
1325.581615063993,1325.581615063993,0.9998361752049354,0.0004244339915604323
1325.58855946855,1325.58855946855,0.9999988879370058,0.0004245622134711203
1325.5955038731543,1325.5955038731543,0.9996954041114945,0.0004246608153292468
1325.6024482779214,1325.6024482779214,0.9992863857987633,0.0004247035189825996
1325.6093926827818,1325.6093926827818,0.999474032092554,0.0004248513235717066
1325.6163370876889,1325.6163370876889,1.0009777400343887,0.0004251333003595856
1325.623281492735,1325.623281492735,0.9998490873229506,0.0004249885225228593
1325.6302258978515,1325.6302258978515,1.0006472961425383,0.00042517392503494696
1325.6371703030609,1325.6371703030609,1.0000115850045077,0.0004250617150027795
1325.6441147083865,1325.6441147083865,1.0005324115327103,0.00042516705295832425
1325.6510591138058,1325.6510591138058,0.9998421127009692,0.00042509434444363376
1325.6580035193178,1325.6580035193178,0.9992871439168288,0.0004249818374050053
1325.6649479249,1325.6649479249,0.9997491321373697,0.00042507721140354685
1325.6718923305748,1325.6718923305748,0.9997843718534829,0.0004250585904807364
1325.6788367363433,1325.6788367363433,0.9996942138344711,0.0004251120265302493
1325.6857811421817,1325.6857811421817,1.0002983261637912,0.00042526145466234273
1325.6927255481594,1325.6927255481594,1.0003360167164377,0.00042529426240764856
1325.6996699541837,1325.6996699541837,1.000476352997539,0.00042534467328864134
1325.7066143603015,1325.7066143603015,1.0002549596611805,0.0004254127795021623
1325.7135587665118,1325.7135587665118,1.000339312762105,0.0004254355848403283
1325.7205031727692,1325.7205031727692,0.9994006369861204,0.00042543428649627026
1325.7274475791894,1325.7274475791894,0.9994622178645122,0.0004255105951838106
1325.7343919856094,1325.7343919856094,0.999884293426563,0.00042567866134501995
1325.741336392123,1325.741336392123,1.0001119843243287,0.00042581714292603764
1325.7482807987292,1325.7482807987292,0.9998733103119196,0.00042589515256740275
1325.7552252054288,1325.7552252054288,1.0001473752212187,0.00042604743852424907
1325.7621696121985,1325.7621696121985,1.0004457188143028,0.0004261687224015781
1325.7691140190377,1325.7691140190377,0.9990072753923005,0.00042613071900080517
1325.7760584259934,1325.7760584259934,1.0005737412870377,0.00042648791954261677
1325.7830028329959,1325.7830028329959,1.0001792044748588,0.000426458753122473
1325.7899472400447,1325.7899472400447,0.9998315967868393,0.00042659199965723886
1325.7968916471866,1325.7968916471866,1.000286973758076,0.0004267465771781513
1325.803836054445,1325.803836054445,1.0005197362015479,0.00042692986302048
1325.8107804617268,1325.8107804617268,1.0002009363350286,0.0004269322303114822
1325.8177248691013,1325.8177248691013,0.9997267095753173,0.0004269369243823593
1325.8246692765463,1325.8246692765463,0.999421227968457,0.0004269423285657136
1325.8316136841072,1325.8316136841072,0.999556899291272,0.0004270232499744661
1325.8385580916915,1325.8385580916915,0.9997429890726796,0.0004270002436159875
1325.8455024992993,1325.8455024992993,1.0001527355120088,0.00042715024882739185
1325.8524469070228,1325.8524469070228,0.9996978930222797,0.00042708014536990354
1325.8593913148175,1325.8593913148175,1.0008620233946552,0.000427150262264823
1325.866335722704,1325.866335722704,0.9996756238956339,0.0004269049944116811
1325.8732801305914,1325.8732801305914,1.0002633607652018,0.0004268466689026049
1325.8802245385714,1325.8802245385714,1.0001644404616212,0.0004267263173983742
1325.8871689466446,1325.8871689466446,1.0003610708096953,0.00042664272106619007
1325.894113354811,1325.894113354811,0.9998216371129031,0.00042647917527936124
1325.9010577629776,1325.9010577629776,1.0000681603803125,0.0004264632789904059
1325.9080021711904,1325.9080021711904,0.9999257078885367,0.0004264752556383626
1325.9149465794967,1325.9149465794967,1.0000038870696433,0.0004263410832539772
1325.9218909878723,1325.9218909878723,1.0000355886387766,0.0004263534891180036
1325.9288353963188,1325.9288353963188,0.9997421787855056,0.0004263093664156522
1325.9357798047874,1325.9357798047874,1.0000507660321594,0.00042632067926060165
1325.9427242133265,1325.9427242133265,0.999802506583702,0.0004262692762377898
1325.9496686219586,1325.9496686219586,0.9996621249375843,0.0004262142158534531
1325.9566130306373,1325.9566130306373,1.000219683135507,0.00042628242547945483
1325.964390768436,1325.964390768436,0.999781404973852,0.00042622315964620645
1325.971890729884,1325.971890729884,1.0006963428964668,0.0004262219301586526
1325.9788351387492,1325.9788351387492,0.9998244157233855,0.00042611496979028834
1325.9857795476605,1325.9857795476605,0.9996222089433543,0.0004261302141847107
1325.9927239566184,1325.9927239566184,1.0004454346958658,0.00042623244202332367
1325.9996683655997,1325.9996683655997,0.9993389987327316,0.0004261293448682816
1326.0066127746975,1326.0066127746975,1.000394665282284,0.0004263607261811646
1326.0135571838186,1326.0135571838186,0.9999731331577284,0.0004263703041815895
1326.0205015930096,1326.0205015930096,1.0004077498564825,0.0004265993981817461
1326.0274460022008,1326.0274460022008,0.9999930862853688,0.00042660854121645927
1326.0343904115311,1326.0343904115311,1.0001010983108476,0.00042665408396784987
1326.0413348208613,1326.0413348208613,0.9995256210023233,0.0004265086603933853
1326.0482792301923,1326.0482792301923,1.0000796105758973,0.0004266739304609011
1326.0552236396393,1326.0552236396393,0.9999861255138566,0.0004266142020468589
1326.0621680491327,1326.0621680491327,0.9996228668659548,0.0004266056316338334
1326.0691124586497,1326.0691124586497,1.000424482822665,0.0004267920367031354
1326.0760568682358,1326.0760568682358,1.000212284439216,0.0004268148742454004
1326.08300127787,1326.08300127787,1.0003639394975954,0.0004267976224066475
1326.0899456875263,1326.0899456875263,1.000915066921118,0.0004269916310721641
1326.0968900972296,1326.0968900972296,0.9993455075547372,0.00042679272153658303
1326.1038345070026,1326.1038345070026,0.9993059308710665,0.00042672850364753836
1326.1107789168218,1326.1107789168218,1.0003907216171988,0.0004268979750163346
1326.1177233266412,1326.1177233266412,1.0002379600332063,0.00042690367265935174
1326.1246677365539,1326.1246677365539,0.9999205880056486,0.00042677985615241075
1326.131612146467,1326.131612146467,0.9996884208353226,0.00042687265768131524
1326.1385565564956,1326.1385565564956,1.000322510066826,0.00042693254904561863
1326.145500966502,1326.145500966502,0.999666883537788,0.0004268571829435197
1326.1524453766006,1326.1524453766006,1.0001667731163724,0.00042693375797565994
1326.1593897866992,1326.1593897866992,0.999916130675175,0.00042685437758397445
1326.1663341968451,1326.1663341968451,0.9999892658772161,0.00042680830067380853
1326.1732786070368,1326.1732786070368,1.0006534838208254,0.000426868329231625
1326.1802230172757,1326.1802230172757,0.9994859668981885,0.0004266983716295175
1326.187167427561,1326.187167427561,1.0000570123361874,0.00042672443975948443
1326.194111837869,1326.194111837869,0.9999018955470547,0.0004267515292822861
1326.2010562482246,1326.2010562482246,1.00026451658189,0.00042681604839248734
1326.208000658626,1326.208000658626,0.9999753597123695,0.000426757018878023
1326.214945069028,1326.214945069028,0.999735729774018,0.000426684881642065
1326.2218894795226,1326.2218894795226,1.0000464858518971,0.0004267519123011855
1326.228833890017,1326.228833890017,0.9999546650994521,0.0004266378107556818
1326.2357783005584,1326.2357783005584,1.0003031800865945,0.0004267789074165698
1326.242722711146,1326.242722711146,0.9997736727797732,0.00042670644432151193
1326.2496671217575,1326.2496671217575,0.9994880843031183,0.00042664019976251035
1326.2566115324148,1326.2566115324148,1.0000217099706408,0.0004266862620148475
1326.2635559430964,1326.2635559430964,1.0006024569558036,0.0004267783867755461
1326.2705003538006,1326.2705003538006,1.000201113550848,0.00042676266597029564
1326.277444764551,1326.277444764551,1.0000768129257802,0.0004267363596763312
1326.284389175349,1326.284389175349,1.0000643599860972,0.0004266787153443207
1326.2913335861695,1326.2913335861695,1.0002019597719372,0.00042674623171482266
1326.2982779970134,1326.2982779970134,0.9995957492767251,0.0004266797688051279
1326.3052224079272,1326.3052224079272,0.9998663723974751,0.00042670374015243577
1326.312166818818,1326.312166818818,0.9994231065819308,0.00042658874944844925
1326.3191112297784,1326.3191112297784,0.9997938469470611,0.00042671656585146296
1326.326055640785,1326.326055640785,1.0002339635344861,0.0004268205471211501
1326.3330000517458,1326.3330000517458,1.0004456831831885,0.0004268766737823974
1326.3399444628226,1326.3399444628226,1.0002042581267243,0.000426751165733653
1326.3474444267856,1326.3474444267856,0.9998583049120855,0.0004268220122617515
1326.35661104943,1326.35661104943,0.9999759994833213,0.0004269203722488263
1326.3635554606,1326.3635554606,0.9995438425411983,0.00042680285817148233
1326.37049987177,1326.37049987177,0.9999642048204415,0.0004268785444815189
1326.3774442829633,1326.3774442829633,1.0001905227388481,0.00042696048325727425
1326.3843886942263,1326.3843886942263,1.000098973881003,0.0004269716515042731
1326.3913331054662,1326.3913331054662,1.0006143080317258,0.0004270709844598129
1326.3982775167526,1326.3982775167526,0.9998825401750866,0.0004270354815775064
1326.4052219280854,1326.4052219280854,1.0003457664525013,0.00042712371746272124
1326.4121663393955,1326.4121663393955,0.999495269333422,0.00042702783739184734
1326.4191107507515,1326.4191107507515,0.9994102355996255,0.0004270672613368827
1326.4260551621778,1326.4260551621778,1.0005136493964537,0.00042734461733378486
1326.4329995735802,1326.4329995735802,1.000326490506318,0.000427336945074229
1326.4399439850527,1326.4399439850527,0.9994553242162526,0.0004272717322559229
1326.4468883965023,1326.4468883965023,1.0002851560856882,0.0004273866194783067
1326.4538328080214,1326.4538328080214,0.9997334746801853,0.00042734603240891355
1326.4607772195407,1326.4607772195407,0.9997263341846316,0.00042738398503124693
1326.46772163106,1326.46772163106,1.000187057366348,0.00042748325719952826
1326.4746660426256,1326.4746660426256,0.9999968163891284,0.00042746639749765343
1326.4816104542613,1326.4816104542613,0.9998951222182526,0.00042753101629073204
1326.4885548658035,1326.4885548658035,1.0000798942637363,0.00042762221101184304
1326.4954992774626,1326.4954992774626,1.0005801751001722,0.00042770143584373014
1326.5024436891213,1326.5024436891213,1.0001916653951801,0.00042768867794552997
1326.5093881008038,1326.5093881008038,0.9997751967109053,0.0004276617410236787
1326.5163325125557,1326.5163325125557,1.0004728495444617,0.00042782244237839884
1326.523276924238,1326.523276924238,0.9994575581712126,0.00042772137853697633
1326.5302213359903,1326.5302213359903,0.9995717826535457,0.00042772008546239246
1326.5371657477651,1326.5371657477651,0.9995056458331846,0.00042784494520002066
1326.544110159564,1326.544110159564,0.9999685067147623,0.00042793110495800544
1326.551054571386,1326.551054571386,1.0002559333602246,0.0004281592621784984
1326.5579989832077,1326.5579989832077,1.0005540049692139,0.00042817866486249463
1326.564943395053,1326.564943395053,0.9997195064274298,0.00042802403569460617
1326.5718878069213,1326.5718878069213,1.0004872979187793,0.00042817930075361694
1326.5788322188132,1326.5788322188132,1.000188616710156,0.0004281328431659439
1326.5857766307279,1326.5857766307279,1.0000150999424224,0.0004281882600909731
1326.5927210426432,1326.5927210426432,0.9999829513960858,0.0004281817324049457
1326.599665454581,1326.599665454581,1.0002068575188678,0.00042829803365973355
1326.6066098665663,1326.6066098665663,0.9987999125383217,0.0004280804018077959
1326.6135542785512,1326.6135542785512,0.9995460449948024,0.000428206339315981
1326.620498690559,1326.620498690559,1.000278775216937,0.00042841097279714454
1326.6274431025677,1326.6274431025677,1.000817646159993,0.00042846942830660883
1326.6343875145988,1326.6343875145988,1.0003045931684869,0.0004283989673243106
1326.6413319266537,1326.6413319266537,0.999505234391801,0.0004282249111302361
1326.6482763387316,1326.6482763387316,0.9995860874253223,0.00042827718497307334
1326.6552207508096,1326.6552207508096,1.0006985979139542,0.00042836700936349574
1326.662165162911,1326.662165162911,0.9999791143685692,0.0004282427541645343
1326.6691095750352,1326.6691095750352,0.9997190831915441,0.00042815518738778546
1326.67605398716,1326.67605398716,0.999794123738137,0.0004280118899843248
1326.6829983993314,1326.6829983993314,1.0003761400967455,0.0004281945160678127
1326.6910539174376,1326.6910539174376,1.000431323545541,0.00042814034545395627
1326.6982761060983,1326.6982761060983,0.9993394430633131,0.0004278503468563077
1326.7052205182927,1326.7052205182927,1.0001019191620741,0.00042790702622783826
1326.7127204835133,1326.7127204835133,0.9997302290932717,0.0004277314556972057
1326.720498225223,1326.720498225223,0.9996942832349,0.00042772674526959443
1326.727442637464,1326.727442637464,1.0003415740250554,0.00042776317829889806
1326.7343870497048,1326.7343870497048,1.0003063144714943,0.00042770596162176514
1326.741331461946,1326.741331461946,1.0001300695917323,0.000427638118408708
1326.7482758742333,1326.7482758742333,1.0003800374576965,0.0004276314866038856
1326.755220286544,1326.755220286544,1.0000593423990785,0.0004275589277979762
1326.762164698855,1326.762164698855,0.999883862116447,0.00042744795293407227
1326.7691091111658,1326.7691091111658,0.999656492888446,0.000427352950207142
1326.7760535234997,1326.7760535234997,0.9995227457452416,0.0004273244616441978
1326.7829979358576,1326.7829979358576,0.9998388244849175,0.0004273756063694456
1326.7899423482147,1326.7899423482147,0.9995511031967824,0.0004272075874422165
1326.7968867605955,1326.7968867605955,1.0001712632413284,0.00042740392528120016
1326.8038311729765,1326.8038311729765,1.0005624626816014,0.0004274485238971883
1326.810775585357,1326.810775585357,1.0002752172680212,0.00042735985915724067
1326.8177199977838,1326.8177199977838,1.0002606550776458,0.00042741285449466194
1326.824664410188,1326.824664410188,1.0000617215720626,0.00042730817301386576
1326.8316088226386,1326.8316088226386,1.0000555486088927,0.00042731075826339595
1326.838553235066,1326.838553235066,0.9994847677313716,0.0004272511657189235
1326.845497647493,1326.845497647493,1.0001662988755196,0.00042730254771256607
1326.8524420599667,1326.8524420599667,1.0000597788606806,0.0004273087424309837
1326.8593864724405,1326.8593864724405,0.9996868762919859,0.0004271976618413748
1326.866330884915,1326.866330884915,0.9992949653761549,0.0004271197229235496
1326.873275297412,1326.873275297412,1.001138028831291,0.00042737569507927725
1326.8802197098853,1326.8802197098853,0.9990707088085673,0.0004269736247928837
1326.8871641224061,1326.8871641224061,1.000508364420451,0.00042711138520931766
1326.8941085349493,1326.8941085349493,0.9995819681896556,0.0004268794168638073
1326.9010529474235,1326.9010529474235,0.9994508779706847,0.00042661465895824845
1326.9079973599669,1326.9079973599669,0.9995603428806656,0.00042662123561735345
1326.9149417725341,1326.9149417725341,1.000439197808333,0.0004265568058132228
1326.9218861850775,1326.9218861850775,1.000151254800593,0.0004264386217363093
1326.9288305976213,1326.9288305976213,0.9997623686456432,0.0004260809044742686
1326.9357750101885,1326.9357750101885,1.0011810309169393,0.0004263368578863237
1326.9427194227783,1326.9427194227783,0.9996704522234875,0.0004259000227265481
1326.9496638353453,1326.9496638353453,0.9998940318744778,0.00042576996981066493
1326.9566082479355,1326.9566082479355,1.0001976908005052,0.0004257153820954833
1326.9635526605261,1326.9635526605261,0.9996892264046181,0.0004254961075721193
1326.9704970731395,1326.9704970731395,0.999347781367625,0.00042531064611327115
1326.9774414857525,1326.9774414857525,1.0004811380915362,0.00042547696015389264
1326.9843858983666,1326.9843858983666,0.9998647463457904,0.0004253204478271896
1326.9913303110031,1326.9913303110031,0.9998120855506538,0.00042526316963657453
1326.9982747236404,1326.9982747236404,1.0002410142560139,0.0004252146783406188
1327.0052191362536,1327.0052191362536,1.000133852269025,0.0004252057961410912
1327.0121635488904,1327.0121635488904,1.0003999639339876,0.0004252346384224048
1327.0191079615502,1327.0191079615502,1.000440529306432,0.0004251768915107641
1327.0260523741872,1327.0260523741872,0.9989570730802256,0.00042494711360134194
1327.0329967868474,1327.0329967868474,0.9999822421531785,0.00042513873744982384
1327.0399411995304,1327.0399411995304,1.0004656510393888,0.00042519874812368345
1327.0468856121677,1327.0468856121677,0.9995101503586007,0.0004250511769390678
1327.0538300248509,1327.0538300248509,1.0001385358333041,0.00042514735690701535
1327.0616077670732,1327.0616077670732,0.9991887405250699,0.000425045285229928
