time,time,flux,flux_err
1517.3518519171653,1517.3518519171653,,
1517.3532408175788,1517.3532408175788,,
1517.3546297179928,1517.3546297179928,,
1517.3560186179398,1517.3560186179398,,
1517.358796418765,1517.358796418765,,
1517.360185319179,1517.360185319179,,
1517.361574219592,1517.361574219592,,
1517.3629631200051,1517.3629631200051,1.0022163,0.0038853344
1517.3643520204184,1517.3643520204184,1.003449,0.003809357
1517.3671298217096,1517.3671298217096,0.99575925,0.0036901801
1517.3685187221236,1517.3685187221236,0.99332595,0.0036440536
1517.3699076225366,1517.3699076225366,0.9985709,0.0036058354
1517.3712965229493,1517.3712965229493,1.0032096,0.0035711762
1517.3740743242424,1517.3740743242424,1.0009605,0.003510174
1517.375463224655,1517.375463224655,1.0005139,0.003484506
1517.3768521250681,1517.3768521250681,0.99740225,0.0034595055
1517.3782410259469,1517.3782410259469,0.9983883,0.0034369088
1517.37962992636,1517.37962992636,1.0015491,0.003411871
1517.3810188272387,1517.3810188272387,0.99649656,0.0033876635
1517.3824077276518,1517.3824077276518,0.9979082,0.003365398
1517.3837966285307,1517.3837966285307,1.0024195,0.0033470083
1517.385185528943,1517.385185528943,0.99975044,0.0033282728
1517.3865744298228,1517.3865744298228,1.0016843,0.0033087067
1517.3879633302365,1517.3879633302365,0.99646723,0.0032866625
1517.3893522311146,1517.3893522311146,0.99688303,0.0032672293
1517.3907411315272,1517.3907411315272,0.9998551,0.003251808
1517.3921300324066,1517.3921300324066,1.0025709,0.0032330928
1517.393518933286,1517.393518933286,1.0031452,0.0032177165
1517.3949078336987,1517.3949078336987,0.9998857,0.0031988933
1517.3962967345774,1517.3962967345774,0.99414486,0.0031805448
1517.3976856354561,1517.3976856354561,0.9958075,0.0031650478
1517.3990745363349,1517.3990745363349,0.99999267,0.0031513774
1517.401852337627,1517.401852337627,0.9980274,0.0031169627
1517.4032412385059,1517.4032412385059,0.99782753,0.003102225
1517.4046301393837,1517.4046301393837,0.99897444,0.003085992
1517.4060190402633,1517.4060190402633,0.998105,0.0030716092
1517.407407941143,1517.407407941143,0.99916255,0.0030568058
1517.4087968420208,1517.4087968420208,1.0014778,0.003042831
1517.410185742434,1517.410185742434,0.99938035,0.0030288012
1517.4115746433135,1517.4115746433135,0.9989591,0.0030154116
1517.4129635441923,1517.4129635441923,1.0021833,0.0030008834
1517.4143524455362,1517.4143524455362,1.001836,0.0029880984
1517.415741346415,1517.415741346415,1.001316,0.0029744413
1517.4171302472937,1517.4171302472937,0.9992367,0.002958967
1517.4185191481724,1517.4185191481724,0.9984028,0.0029479677
1517.419908049052,1517.419908049052,1.000792,0.0029347378
1517.4212969499308,1517.4212969499308,1.0004001,0.0029211487
1517.422685850809,1517.422685850809,0.99945796,0.0029097896
1517.424074751687,1517.424074751687,0.9998645,0.0028964519
1517.4254636530322,1517.4254636530322,1.0033481,0.0028864834
1517.4268525539119,1517.4268525539119,1.0013485,0.002874155
1517.4282414547897,1517.4282414547897,1.0025855,0.0028646954
1517.4296303556687,1517.4296303556687,1.0033945,0.0028527067
1517.4310192570138,1517.4310192570138,0.9991111,0.0028403674
1517.4324081578925,1517.4324081578925,1.001758,0.0028303931
1517.4337970587708,1517.4337970587708,1.0005149,0.0028179644
1517.4351859601152,1517.4351859601152,1.0013613,0.0028075029
1517.436574860994,1517.436574860994,0.99946934,0.002797459
1517.4379637623383,1517.4379637623383,1.0048338,0.0027868075
1517.439352663218,1517.439352663218,1.0089023,0.0027783993
1517.4407415645624,1517.4407415645624,0.9981818,0.0027661456
1517.4421304654406,1517.4421304654406,0.99681133,0.002757847
1517.4435193663194,1517.4435193663194,0.9946846,0.0027479816
1517.4449082676647,1517.4449082676647,1.0006821,0.0027372632
1517.446297169009,1517.446297169009,0.9996102,0.0027290345
1517.447686069887,1517.447686069887,0.9989931,0.0027206836
1517.4490749712315,1517.4490749712315,0.9979514,0.0027146852
1517.450463872111,1517.450463872111,1.0007818,0.0027039007
1517.4518527734554,1517.4518527734554,1.0006605,0.0026992997
1517.4532416748,1517.4532416748,0.9997338,0.0026867434
1517.454630575679,1517.454630575679,1.0002346,0.0026784085
1517.4560194770224,1517.4560194770224,1.0009189,0.0026728024
1517.4574083783668,1517.4574083783668,0.9999454,0.0026647483
1517.4587972792465,1517.4587972792465,0.9989306,0.002656331
1517.4601861805909,1517.4601861805909,0.9967812,0.002647848
1517.4615750819348,1517.4615750819348,1.0004377,0.002641668
1517.4629639832792,1517.4629639832792,0.999175,0.0026331714
1517.4643528846245,1517.4643528846245,1.002936,0.0026294428
1517.4657417855033,1517.4657417855033,1.0002153,0.0026206481
1517.467130686847,1517.467130686847,1.0028801,0.0026138157
1517.4685195881916,1517.4685195881916,0.9976091,0.002607516
1517.4699084895365,1517.4699084895365,0.99861586,0.0026002103
1517.4712973908809,1517.4712973908809,0.99761397,0.0025937224
1517.4726862922255,1517.4726862922255,0.9973202,0.0025867464
1517.4740751935701,1517.4740751935701,0.9938112,0.0025818083
1517.4754640949136,1517.4754640949136,0.99847645,0.002577375
1517.476852996259,1517.476852996259,1.0006386,0.0025680263
1517.4782418976042,1517.4782418976042,1.0003513,0.002562723
1517.4796307989477,1517.4796307989477,0.998543,0.002555868
1517.4810197002917,1517.4810197002917,0.9973402,0.0025496695
1517.482408601636,1517.482408601636,1.0007786,0.0025440292
1517.4837975029814,1517.4837975029814,0.99466735,0.0025402799
1517.4851864043258,1517.4851864043258,0.9973012,0.0025324498
1517.4865753056702,1517.4865753056702,0.99685985,0.0025263072
1517.4879642070146,1517.4879642070146,0.99724555,0.0025211016
1517.489353108359,1517.489353108359,0.9988983,0.0025171316
1517.4907420097036,1517.4907420097036,1.0028327,0.002513086
1517.4921309115139,1517.4921309115139,0.997198,0.0025006863
1517.4935198128583,1517.4935198128583,0.9960219,0.0024965536
1517.4949087142018,1517.4949087142018,1.0009444,0.0024914914
1517.496297615547,1517.496297615547,0.995026,0.0024843533
1517.4976865168924,1517.4976865168924,0.9946315,0.0024792198
1517.4990754187015,1517.4990754187015,0.9942174,0.002479093
1517.5004643200455,1517.5004643200455,0.99606746,0.0024689296
1517.5018532213899,1517.5018532213899,0.99723977,0.0024646434
1517.5032421232008,1517.5032421232008,0.99748415,0.0024565079
1517.5046310245452,1517.5046310245452,0.99644214,0.0024514317
1517.5060199258896,1517.5060199258896,0.9976052,0.0024466042
1517.5074088276997,1517.5074088276997,0.99759114,0.002441006
1517.508797729044,1517.508797729044,1.0011052,0.0024420726
1517.5101866303894,1517.5101866303894,0.99950415,0.0024311007
1517.5115755321995,1517.5115755321995,0.997835,0.0024277791
1517.5129644335434,1517.5129644335434,0.99924463,0.0024203216
1517.5143533353528,1517.5143533353528,0.9971738,0.0024142067
1517.5157422366979,1517.5157422366979,0.9937758,0.0024124833
1517.5171311380432,1517.5171311380432,0.9971862,0.0024053906
1517.5185200398525,1517.5185200398525,0.99986905,0.0024002313
1517.5199089411972,1517.5199089411972,0.9980716,0.0023962464
1517.5212978430072,1517.5212978430072,0.99950767,0.0023891472
1517.5226867443516,1517.5226867443516,0.9936311,0.0023840303
1517.5240756461617,1517.5240756461617,0.99890786,0.002382097
1517.525464547506,1517.525464547506,0.99579555,0.002375759
1517.5268534493161,1517.5268534493161,0.99878323,0.0023728309
1517.5282423511264,1517.5282423511264,0.99835116,0.0023674935
1517.5296312524715,1517.5296312524715,0.99474555,0.0023607886
1517.5310201542816,1517.5310201542816,0.9971208,0.0023564459
1517.5324090556255,1517.5324090556255,0.991831,0.0023507178
1517.533797957435,1517.533797957435,0.9963525,0.0023476037
1517.5351868592456,1517.5351868592456,0.997155,0.0023470311
1517.536575760591,1517.536575760591,0.9985202,0.0023402595
1517.5379646624003,1517.5379646624003,0.9984294,0.0023375538
1517.5393535642106,1517.5393535642106,0.9979376,0.002331849
1517.540742465555,1517.540742465555,0.9965466,0.0023320378
1517.542131367365,1517.542131367365,0.99812365,0.0023241413
1517.5435202691751,1517.5435202691751,0.9999226,0.0023193562
1517.5449091709852,1517.5449091709852,0.9978132,0.0023162616
1517.5462980723296,1517.5462980723296,0.99988115,0.0023113966
1517.5476869741399,1517.5476869741399,0.99580336,0.0023059177
1517.5490758759506,1517.5490758759506,0.997252,0.002303278
1517.5504647777607,1517.5504647777607,0.99778235,0.0023010103
1517.5518536795703,1517.5518536795703,0.99713373,0.0022986329
1517.5532425809147,1517.5532425809147,0.99757403,0.002292407
1517.5546314827257,1517.5546314827257,0.99613947,0.0022874565
1517.5560203845357,1517.5560203845357,0.99911344,0.0022832872
1517.5574092863453,1517.5574092863453,0.9990811,0.002281708
1517.5587981881554,1517.5587981881554,0.996514,0.0022766858
1517.5601870899654,1517.5601870899654,1.0036248,0.0022744995
1517.5615759917755,1517.5615759917755,0.9964399,0.002270515
1517.5629648931208,1517.5629648931208,0.9972287,0.0022658657
1517.5643537949309,1517.5643537949309,0.99827063,0.0022626284
1517.5657426967402,1517.5657426967402,0.997672,0.002257783
1517.5671315985505,1517.5671315985505,0.99984556,0.0022564493
1517.568520500361,1517.568520500361,1.0034972,0.0022573299
1517.5699094021713,1517.5699094021713,0.9991485,0.0022510686
1517.5712983039807,1517.5712983039807,0.99559385,0.0022458492
1517.5726872057908,1517.5726872057908,0.9980258,0.002241995
1517.5740761076017,1517.5740761076017,0.9980082,0.0022377842
1517.5754650094118,1517.5754650094118,0.9955975,0.0022340068
1517.5768539112214,1517.5768539112214,0.99988675,0.0022315143
1517.5782428130315,1517.5782428130315,0.99838555,0.002228761
1517.5796317148415,1517.5796317148415,0.99620885,0.0022295592
1517.5810206166516,1517.5810206166516,0.9995493,0.0022215808
1517.5824095184626,1517.5824095184626,1.0002815,0.0022229222
1517.5837984202726,1517.5837984202726,0.9972377,0.0022153298
1517.585187322082,1517.585187322082,0.9975226,0.002211962
1517.5865762243584,1517.5865762243584,1.0004567,0.0022107216
1517.5879651261694,1517.5879651261694,0.99671984,0.0022064915
1517.5893540279787,1517.5893540279787,0.99825984,0.0022053553
1517.5907429297881,1517.5907429297881,0.99821347,0.0022018598
1517.5921318315982,1517.5921318315982,0.9964783,0.0021979308
1517.5935207334092,1517.5935207334092,1.0000236,0.0021937247
1517.5949096352192,1517.5949096352192,0.9989938,0.0021917494
1517.596298537495,1517.596298537495,0.99876845,0.0021919752
1517.597687439305,1517.597687439305,1.0005053,0.0021880644
1517.5990763411146,1517.5990763411146,1.0011641,0.002184084
1517.6004652429247,1517.6004652429247,0.99697393,0.0021842816
1517.6018541447356,1517.6018541447356,1.0000244,0.0021777763
1517.6032430470113,1517.6032430470113,0.9982172,0.002175349
1517.604631948821,1517.604631948821,0.99934053,0.0021720186
1517.6060208506315,1517.6060208506315,0.99586165,0.0021686552
1517.6074097524424,1517.6074097524424,1.0001911,0.0021671623
1517.608798654252,1517.608798654252,0.9989958,0.0021639368
1517.6101875565269,1517.6101875565269,0.9951228,0.0021605266
1517.611576458337,1517.611576458337,0.99732727,0.0021581315
1517.6129653601479,1517.6129653601479,1.0006177,0.002156829
1517.6143542624236,1517.6143542624236,1.0015681,0.002152563
1517.6157431642337,1517.6157431642337,0.9984507,0.0021514222
1517.617132066044,1517.617132066044,0.99766797,0.0021495272
1517.618520968319,1517.618520968319,0.9962566,0.002145069
1517.61990987013,1517.61990987013,1.0004512,0.0021443383
1517.6212987719407,1517.6212987719407,0.9988041,0.0021392643
1517.6226876742157,1517.6226876742157,1.0000327,0.0021381532
1517.6240765760253,1517.6240765760253,0.9974623,0.0021349993
1517.6254654778359,1517.6254654778359,0.9974615,0.0021372589
1517.6268543801125,1517.6268543801125,0.99845976,0.002130976
1517.628243281922,1517.628243281922,0.99836606,0.0021287804
1517.6296321837322,1517.6296321837322,0.99872786,0.002125708
1517.6310210860079,1517.6310210860079,0.9997989,0.002124779
1517.632409987818,1517.632409987818,0.999003,0.002121336
1517.6337988900937,1517.6337988900937,0.99988836,0.0021279077
1517.6351877919037,1517.6351877919037,0.9983442,0.0021179519
1517.636576693714,1517.636576693714,0.99870944,0.0021159453
1517.637965595989,1517.637965595989,1.0002519,0.0021132622
1517.6393544978,1517.6393544978,1.0008576,0.002111115
1517.6407434000764,1517.6407434000764,1.0001335,0.0021096228
1517.6421323018858,1517.6421323018858,0.99686277,0.0021065038
1517.643521204161,1517.643521204161,0.99831873,0.0021056775
1517.6449101059718,1517.6449101059718,0.99672097,0.002101999
1517.6462990082482,1517.6462990082482,0.99803275,0.0021001406
1517.6476879100578,1517.6476879100578,0.99580616,0.0021000993
1517.6490768123335,1517.6490768123335,0.9987121,0.0020947398
1517.6504657141436,1517.6504657141436,0.999319,0.0020935985
1517.6518546164193,1517.6518546164193,1.0017885,0.00209303
1517.6532435182303,1517.6532435182303,1.0001855,0.0020962676
1517.654632420506,1517.654632420506,1.0007133,0.0020909535
1517.6560213223156,1517.6560213223156,0.99951684,0.0020873419
1517.6574102245904,1517.6574102245904,1.0004294,0.0020844506
1517.6587991264014,1517.6587991264014,0.9969681,0.002084267
1517.660188028678,1517.660188028678,0.9973688,0.0020784943
1517.6615769304872,1517.6615769304872,0.9970634,0.0020762652
1517.662965832763,1517.662965832763,0.9974792,0.0020780123
1517.6643547350395,1517.6643547350395,0.9983901,0.0020761397
1517.6657436368496,1517.6657436368496,0.9986294,0.0020716724
1517.6671325391249,1517.6671325391249,0.99862796,0.0020705627
1517.668521440935,1517.668521440935,0.9995036,0.0020684188
1517.6699103432106,1517.6699103432106,1.0009433,0.0020721972
1517.6712992454864,1517.6712992454864,0.99625987,0.0020671147
1517.6726881472973,1517.6726881472973,0.9984281,0.002063181
1517.674077049573,1517.674077049573,0.9990741,0.0020621757
1517.6754659513826,1517.6754659513826,0.99640125,0.002061793
1517.6768548536575,1517.6768548536575,0.999371,0.002055802
1517.678243755934,1517.678243755934,1.0003124,0.0020565146
1517.679632657745,1517.679632657745,0.9972763,0.00205311
1517.6810215600199,1517.6810215600199,1.0001557,0.0020517332
1517.6824104622958,1517.6824104622958,0.9970596,0.002047958
1517.6837993641066,1517.6837993641066,0.9957821,0.002045569
1517.6851882663823,1517.6851882663823,0.9965202,0.0020467697
1517.6865771686575,1517.6865771686575,0.99756354,0.0020438365
1517.6879660704676,1517.6879660704676,0.99871445,0.0020411653
1517.6893549727433,1517.6893549727433,0.99595106,0.002038429
1517.690743875019,1517.690743875019,0.99763805,0.0020368425
1517.69213277683,1517.69213277683,0.99758685,0.002034607
1517.6935216791057,1517.6935216791057,0.99909705,0.002034781
1517.694910581381,1517.694910581381,0.9987879,0.0020315668
1517.696299483191,1517.696299483191,0.99889,0.002032713
1517.6976883854677,1517.6976883854677,0.9998374,0.0020313498
1517.6990772877434,1517.6990772877434,0.99862283,0.0020262266
1517.7004661900182,1517.7004661900182,0.99729514,0.0020297586
1517.7018550918285,1517.7018550918285,0.9986089,0.0020224482
1517.703243994105,1517.703243994105,0.9979544,0.0020258417
1517.7046328963806,1517.7046328963806,0.99689966,0.002021506
1517.706021798191,1517.706021798191,0.993824,0.0020162098
1517.7074107004669,1517.7074107004669,1.0000314,0.0020162254
1517.7087996027417,1517.7087996027417,0.99790806,0.0020143383
1517.7101885050174,1517.7101885050174,0.99664485,0.0020093312
1517.711577407294,1517.711577407294,0.99955827,0.0020126433
1517.712966309104,1517.712966309104,0.9983614,0.0020127003
1517.7143552113794,1517.7143552113794,1.0001118,0.0020057287
1517.715744113655,1517.715744113655,0.9971174,0.0020047973
1517.7171330159317,1517.7171330159317,0.997732,0.0020062202
1517.7185219177418,1517.7185219177418,0.99711555,0.0020019002
1517.7199108200168,1517.7199108200168,1.0005456,0.002000577
1517.7212997222928,1517.7212997222928,0.99885225,0.0019972736
1517.722688624569,1517.722688624569,0.999888,0.0019958536
1517.7240775268447,1517.7240775268447,0.9992979,0.0019954033
1517.725466428655,1517.725466428655,0.99950135,0.002003101
1517.726855330931,1517.726855330931,0.9996996,0.0019934229
1517.7282442332057,1517.7282442332057,0.9955848,0.001987838
1517.7296331354823,1517.7296331354823,0.9980786,0.0019865911
1517.731022037759,1517.731022037759,0.9990135,0.0019994306
1517.7324109395681,1517.7324109395681,0.9977846,0.001984929
1517.7337998418434,1517.7337998418434,0.99954873,0.0019860023
1517.7351887441191,1517.7351887441191,0.99992305,0.0019832067
1517.7365776463957,1517.7365776463957,0.9966397,0.001976945
1517.7379665486715,1517.7379665486715,1.0003183,0.0019869914
1517.7393554509472,1517.7393554509472,0.99942714,0.0019783492
1517.7407443527572,1517.7407443527572,1.0014567,0.0019749724
1517.742133255033,1517.742133255033,0.9972387,0.001971828
1517.743522157309,1517.743522157309,0.9986398,0.0019749112
1517.7449110595849,1517.7449110595849,0.9995983,0.0019672583
1517.7462999618606,1517.7462999618606,0.99791706,0.0019682
1517.7476888641354,1517.7476888641354,1.0017021,0.001968454
1517.749077766412,1517.749077766412,1.0000054,0.001967333
1517.750466668223,1517.750466668223,0.9965599,0.0019599826
1517.7518555704978,1517.7518555704978,0.9997251,0.0019591232
1517.753244472773,1517.753244472773,1.0015823,0.0019634326
1517.7546333750488,1517.7546333750488,0.99865997,0.0019550375
1517.7560222773254,1517.7560222773254,0.99666095,0.001954099
1517.7574111796011,1517.7574111796011,0.99771637,0.001952822
1517.7588000818769,1517.7588000818769,0.9963509,0.0019490971
1517.7601889841526,1517.7601889841526,0.99778235,0.0019511608
1517.7615778864283,1517.7615778864283,1.0026067,0.0019509549
1517.7629667882386,1517.7629667882386,0.9967759,0.0019447386
1517.7643556905145,1517.7643556905145,0.9971259,0.0019425822
1517.7657445927903,1517.7657445927903,0.9992396,0.0019432699
1517.7671334950653,1517.7671334950653,1.0001436,0.0019443985
1517.7685223973417,1517.7685223973417,1.0012522,0.0019455379
1517.7699112996183,1517.7699112996183,1.0018337,0.0019378116
1517.7713002018934,1517.7713002018934,0.99720764,0.0019364413
1517.7726891041693,1517.7726891041693,0.9992609,0.0019359523
1517.774078006445,1517.774078006445,0.9998999,0.0019351888
1517.7754669087208,1517.7754669087208,1.0004579,0.0019373518
1517.7768558109965,1517.7768558109965,0.99930245,0.0019286651
1517.7782447128066,1517.7782447128066,0.998022,0.0019285434
1517.7796336150823,1517.7796336150823,0.9980318,0.0019264191
1517.7810225173582,1517.7810225173582,0.9970149,0.0019238866
1517.7824114196346,1517.7824114196346,0.99718386,0.0019281192
1517.7838003219103,1517.7838003219103,0.9987303,0.0019216299
1517.7851892241856,1517.7851892241856,1.0008633,0.001924767
1517.7865781264607,1517.7865781264607,0.9990073,0.0019193857
1517.787967028737,1517.787967028737,1.0005627,0.0019182588
1517.7893559310137,1517.7893559310137,0.9990862,0.0019157411
1517.7907448332887,1517.7907448332887,1.0006169,0.0019150088
1517.7921337355647,1517.7921337355647,0.9981587,0.0019164328
1517.7935226378404,1517.7935226378404,0.997235,0.0019095426
1517.7949115401161,1517.7949115401161,0.99787724,0.0019166707
1517.7963004423918,1517.7963004423918,1.0014148,0.0019083999
1517.7976893446676,1517.7976893446676,0.995979,0.0019063014
1517.7990782469433,1517.7990782469433,0.9992862,0.0019057047
1517.8004671492192,1517.8004671492192,0.99912494,0.0019069253
1517.8018560514956,1517.8018560514956,0.99728084,0.0019052026
1517.8032449533057,1517.8032449533057,0.9977413,0.00190078
1517.804633855581,1517.804633855581,0.99928325,0.0018998573
1517.8060227578562,1517.8060227578562,0.9977393,0.0018999344
1517.8074116601324,1517.8074116601324,1.0012755,0.0018987122
1517.808800562409,1517.808800562409,0.9962596,0.0018932702
1517.8101894646843,1517.8101894646843,1.0005658,0.0018975241
1517.81157836696,1517.81157836696,0.99598867,0.0018914297
1517.8129672692357,1517.8129672692357,1.0015234,0.0018955631
1517.8143561715115,1517.8143561715115,0.99920607,0.0018905647
1517.815745073788,1517.815745073788,0.9995045,0.0018954589
1517.8171339760638,1517.8171339760638,1.0004913,0.0018939811
