time,time,flux,flux_err
1517.3657694576955,1517.3657694576955,1.0004037229202645,0.0008015262516585624
1517.3743806750888,1517.3743806750888,0.9993393359128842,0.0007562673844293198
1517.3816029868526,1517.3816029868526,0.9992257209420721,0.000733464518298592
1517.3885475176965,1517.3885475176965,0.9996252771939027,0.0007147156746142387
1517.3954920488195,1517.3954920488195,0.9997416992957641,0.0006977435845972194
1517.4038254866887,1517.4038254866887,0.9993037723172149,0.0006792785957081071
1517.41077001865,1517.41077001865,0.9999349517745403,0.0006643316007353045
1517.4177145508904,1517.4177145508904,1.0010146772289668,0.0006500894505889154
1517.4246590833172,1517.4246590833172,0.9992112162272748,0.0006365689024507273
1517.4316036160235,1517.4316036160235,0.9998070170830443,0.000624346575377431
1517.4385481491024,1517.4385481491024,1.0007995599105917,0.000612871629004492
1517.4454926825538,1517.4454926825538,1.0007012483492266,0.0006021819830833844
1517.4524372160054,1517.4524372160054,0.9997390057730794,0.0005924601072037495
1517.459381749922,1517.459381749922,0.9997566222178609,0.0005834791295375287
1517.4663262840254,1517.4663262840254,1.000102745250371,0.000575595261218938
1517.4732708185013,1517.4732708185013,1.0001528633519414,0.0005680227398901232
1517.4802153531632,1517.4802153531632,0.99998815867087,0.0005612904784697101
1517.4871598878253,1517.4871598878253,0.9998525472485253,0.0005547300586549915
1517.494104423046,1517.494104423046,0.9990289009591885,0.0005486425006691416
1517.5010489582667,1517.5010489582667,1.001404087401141,0.0005432071580732968
1517.5079934937673,1517.5079934937673,0.9988605629378181,0.0005376456180419889
1517.51493802964,1517.51493802964,1.0008927850784595,0.000532851147632087
1517.5218825655127,1517.5218825655127,1.000420071142741,0.0005279881930552881
1517.5288271016648,1517.5288271016648,1.0000767422391494,0.0005233146709550023
1517.5357716380033,1517.5357716380033,1.000043655346953,0.0005192705335150211
1517.5427161744346,1517.5427161744346,0.9995984039934094,0.0005152633605249312
1517.5496607112389,1517.5496607112389,1.0000246477671493,0.0005115157044593289
1517.55660524795,1517.55660524795,1.0001612829013946,0.0005082671424550644
1517.5635497851265,1517.5635497851265,1.0005754936494335,0.0005050448244145877
1517.5704943223961,1517.5704943223961,1.0004573693368486,0.0005019609910686084
1517.577438859759,1517.577438859759,0.9994147549242296,0.0004990891561642473
1517.5843833973086,1517.5843833973086,1.0002192200144089,0.00049641378425561
1517.5913279350436,1517.5913279350436,1.0000437956174915,0.0004937344892580865
1517.5982724728722,1517.5982724728722,0.9994185529165387,0.0004910479055535921
1517.6052170107941,1517.6052170107941,0.9990367858627576,0.0004888013012211109
1517.6121615489017,1517.6121615489017,1.0006130653235505,0.00048670398053607676
1517.6191060872893,1517.6191060872893,1.0002569670900092,0.00048444720108764577
1517.6260506255833,1517.6260506255833,0.999887753458325,0.0004823139385147704
1517.632995164157,1517.632995164157,0.9999873642114732,0.0004802908054581731
1517.6399397028235,1517.6399397028235,0.9993758236400957,0.0004781316955304005
1517.6468842415838,1517.6468842415838,0.999667595768652,0.0004761963074579966
1517.6538287804365,1517.6538287804365,1.0001274037014443,0.0004745281658917618
1517.660773319476,1517.660773319476,1.0005729526453038,0.00047295439612929325
1517.6677178584218,1517.6677178584218,1.0004564847079545,0.0004711862815087501
1517.6746623977406,1517.6746623977406,0.9994641112817007,0.0004693481983244917
1517.6816069370593,1517.6816069370593,0.9994189403621464,0.00046779266662924965
1517.6885514763776,1517.6885514763776,1.0007496527796869,0.0004662889762688968
1517.695496015883,1517.695496015883,1.0007765172481748,0.00046464634535162965
1517.7024405554807,1517.7024405554807,0.9993557021207691,0.0004629769239439342
1517.7093850951721,1517.7093850951721,0.9997349844333889,0.0004615880922277044
1517.716329634863,1517.716329634863,0.9995448828515189,0.0004601974991906126
1517.7232741746477,1517.7232741746477,0.9998826759510511,0.00045872314760190354
1517.7302187146183,1517.7302187146183,0.9999544921364956,0.00045739521195564047
1517.7371632545887,1517.7371632545887,1.0006256557508248,0.00045590078608222
1517.7441077946526,1517.7441077946526,1.0001614598799944,0.0004544567455047892
1517.7510523347162,1517.7510523347162,1.0000831730014546,0.00045315489456944054
1517.7579968749662,1517.7579968749662,1.000103326034866,0.0004515850654486054
1517.764941415123,1517.764941415123,0.9999074085825118,0.00045014935002625186
1517.7718859554664,1517.7718859554664,0.9995407378860864,0.0004487317078539324
1517.7788304958092,1517.7788304958092,0.9999457999947448,0.0004475805851771362
1517.7857750362455,1517.7857750362455,0.9994933414044189,0.0004460903487845676
1517.7927195767747,1517.7927195767747,0.9998000810649236,0.00044482236486642797
1517.799664117211,1517.799664117211,1.0003630893283977,0.0004436875163250707
1517.8066086577403,1517.8066086577403,1.0010238383165853,0.0004425762419852386
1517.8135531984562,1517.8135531984562,0.9995912688145546,0.0004412032078571661
1517.8204977389855,1517.8204977389855,1.0006675556852669,0.0004403405274288668
1517.827442279701,1517.827442279701,0.9998064241020892,0.0004391776099201126
1517.8343868204167,1517.8343868204167,0.9998748440465703,0.0004381963306540939
1517.8413313612255,1517.8413313612255,0.9998477084074,0.0004374800570383781
1517.8482759019412,1517.8482759019412,1.0004079173576135,0.0004365544635377237
1517.855220442843,1517.855220442843,1.0000439235240601,0.00043578804548281575
1517.8621649837448,1517.8621649837448,1.000064348244945,0.0004350164348860627
1517.8691095245536,1517.8691095245536,0.9992060489586662,0.00043430901696130917
1517.8760540654557,1517.8760540654557,1.0001065953561468,0.0004336100209894337
1517.8829986063574,1517.8829986063574,1.000907709638303,0.00043308016908369254
1517.8899431473524,1517.8899431473524,0.9992347870203304,0.0004324016471918571
1517.8968876882548,1517.8968876882548,0.9993539844984687,0.00043175833164925143
1517.9038322292495,1517.9038322292495,1.0007833359169376,0.0004316355670933833
1517.9107767702446,1517.9107767702446,0.9997487261112609,0.00043096516844228736
1517.917721311333,1517.917721311333,1.0003660033068016,0.0004305638406546956
1517.9246658523275,1517.9246658523275,0.9995455399297534,0.00043018598176236935
1517.9316103933227,1517.9316103933227,0.9997822898737967,0.0004298196509644754
1517.9385549344108,1517.9385549344108,0.9997146409197862,0.00042937732996920256
1517.9466106020693,1517.9466106020693,1.0002836659982084,0.0004290043695821922
1517.9538329247305,1517.9538329247305,1.0006159038707443,0.00042875151315389573
1517.9607774658184,1517.9607774658184,1.0001900316568193,0.00042812002977514853
1517.9677220069066,1517.9677220069066,1.0000174563307473,0.000427897625667318
1517.974666547902,1517.974666547902,1.0001409791143203,0.0004274827850690851
1517.9816110889901,1517.9816110889901,0.9995804527940566,0.00042698824862860593
1517.988555630078,1517.988555630078,0.9998191253716,0.0004266695663798678
1517.9955001711664,1517.9955001711664,0.9998220918989734,0.0004265306735412902
1518.002444712161,1518.002444712161,0.9995648236171801,0.00042593640245507683
1518.009389253249,1518.009389253249,1.0009110241450467,0.0004258815322324623
1518.016333794338,1518.016333794338,1.0005214274152396,0.0004254335677617304
1518.0232783353324,1518.0232783353324,1.0003183483870033,0.00042509606824097144
1518.0302228763278,1518.0302228763278,0.9995705963694872,0.000424891575334215
1518.037167417416,1518.037167417416,1.0000879905777151,0.0004245433268641259
1518.0441119583177,1518.0441119583177,0.9995094561286997,0.0004242884788796247
1518.051056499406,1518.051056499406,0.9998244717849103,0.00042400482665264923
1518.0580010403078,1518.0580010403078,1.0004020216654281,0.000423724105398195
1518.0649455813025,1518.0649455813025,1.0000717151458378,0.00042330688057007885
1518.0718901222044,1518.0718901222044,0.9994919858849526,0.0004230920939105729
1518.0788346631996,1518.0788346631996,1.0002972437870068,0.0004227938666396774
1518.0857792041015,1518.0857792041015,1.0005181113933825,0.00042247175780348175
1518.0927237450037,1518.0927237450037,1.0005987329568458,0.0004221869337049424
1518.0996682858124,1518.0996682858124,0.9996951257042616,0.00042180630171115475
1518.106612826714,1518.106612826714,0.9993103632890058,0.00042150536367893167
1518.1135573674296,1518.1135573674296,1.0001360187366872,0.0004217417266656035
1518.1205019083316,1518.1205019083316,0.9997278738008737,0.00042103267994784716
1518.127446449047,1518.127446449047,0.9998525486737728,0.00042094610110256084
1518.134390989763,1518.134390989763,1.0000345410627882,0.00042060234462608706
1518.1413355304783,1518.1413355304783,1.0002884915697394,0.00042048509548911516
1518.148280071194,1518.148280071194,0.9997722182818203,0.000420193030448025
1518.1552246118167,1518.1552246118167,0.9995095874216672,0.0004198030275138322
1518.162169152532,1518.162169152532,1.0008824319214678,0.00041953623388466134
1518.1691136930615,1518.1691136930615,1.0003885525838514,0.0004193499725631669
1518.176058233591,1518.176058233591,0.9993901204817373,0.00041900759019184504
1518.1830027742135,1518.1830027742135,1.0002495591735951,0.00041887283955085704
1518.1899473147428,1518.1899473147428,1.0003906079444083,0.0004185932692378526
1518.1968918551793,1518.1968918551793,0.9995647861482532,0.0004182983113370519
1518.203836395522,1518.203836395522,0.9995156818030925,0.0004181402890753549
1518.2107809359582,1518.2107809359582,1.0003495020055053,0.0004180968116979062
1518.2177254763014,1518.2177254763014,0.9993756614466596,0.0004180038052568655
1518.2246700166445,1518.2246700166445,1.0003261476207432,0.0004181122306956069
1518.2316145568948,1518.2316145568948,1.000526533354654,0.00041773989149525797
1518.2385590971446,1518.2385590971446,1.0000633101280982,0.0004176009172824072
1518.2455036373944,1518.2455036373944,1.0000051712380342,0.00041753937362005105
1518.2524481775515,1518.2524481775515,0.9998714095484118,0.0004176522483268436
1518.2593927176151,1518.2593927176151,0.9995648791130289,0.00041750676780123876
1518.2666150393445,1518.2666150393445,1.0002286392401722,0.00041733845198945135
1518.2746707058857,1518.2746707058857,1.001126926783435,0.0004175314076970414
1518.2816152457629,1518.2816152457629,0.9993768120560498,0.00041713210471215335
1518.2885597857332,1518.2885597857332,1.0001275823003446,0.0004171516203350371
1518.295504325611,1518.295504325611,1.0001308078869224,0.0004171424273366594
1518.3024488654887,1518.3024488654887,0.9994136822178186,0.00041689010397859977
1518.3093934052727,1518.3093934052727,1.0003116433765997,0.00041687327987862115
1518.317726853014,1518.317726853014,0.9999725940841604,0.00041669912825234633
1518.3246713927049,1518.3246713927049,1.0004641062284902,0.0004164979846235507
1518.3316159323035,1518.3316159323035,1.0005621267186326,0.00041671546030619297
1518.3385604720872,1518.3385604720872,1.0002912322966548,0.00041647484747076474
1518.345505011499,1518.345505011499,0.9994461536546465,0.00041620620883528773
1518.3524495511906,1518.3524495511906,0.9992636336251106,0.0004161159146486345
1518.3593940905089,1518.3593940905089,1.0001112554613727,0.0004161078271669971
1518.3663386298276,1518.3663386298276,0.9998597614564421,0.0004160536005690473
1518.3732831691464,1518.3732831691464,1.0003575317771651,0.00041585239827092706
1518.380227708465,1518.380227708465,0.9997941263095536,0.0004155867600552905
1518.3871722477834,1518.3871722477834,0.9999974287959759,0.0004156411887021117
1518.3941167871021,1518.3941167871021,1.000616169327023,0.0004155077626258005
1518.4010613264204,1518.4010613264204,1.0002365335183758,0.00041534371753684205
1518.408005865367,1518.408005865367,0.9996827556905942,0.0004153283943999289
1518.4157837492178,1518.4157837492178,0.9999379752506027,0.0004152146022429159
1518.4232838513092,1518.4232838513092,0.9994884959789017,0.00041514587021276937
1518.4302283902555,1518.4302283902555,1.0001980711465142,0.0004150951342546686
1518.4371729291088,1518.4371729291088,1.000172475572545,0.0004149319658540393
1518.4441174679612,1518.4441174679612,0.9998241053939789,0.00041471124591823
1518.4510620067213,1518.4510620067213,0.9994505997755889,0.00041472170519891316
1518.458006545388,1518.458006545388,1.0000073891054995,0.0004147857273693388
1518.4663399918254,1518.4663399918254,1.001094950564751,0.0004146810974608469
1518.4732845303988,1518.4732845303988,0.9997287610041881,0.00041469981280971887
1518.4802290688792,1518.4802290688792,0.9999585901253738,0.0004145819424025006
1518.4871736074529,1518.4871736074529,1.000381225918499,0.0004146023436869993
1518.4941181458398,1518.4941181458398,0.9996044068076347,0.00041451568178664495
1518.5010626842272,1518.5010626842272,0.9995307242296455,0.00041436037461398025
1518.5080072225214,1518.5080072225214,0.9996396997330337,0.0004142328888097287
1518.5149517607229,1518.5149517607229,1.0004547704277247,0.0004143795075213187
1518.5218962990168,1518.5218962990168,1.0002775997666393,0.00041419857419482483
1518.5288408370318,1518.5288408370318,0.9998363441536273,0.0004143292759659735
1518.5357853751393,1518.5357853751393,0.9995710337931285,0.00041429983606084797
1518.542729913154,1518.542729913154,1.0002775112529316,0.0004141011343596489
1518.549674451076,1518.549674451076,0.9998079119404453,0.00041423251720249475
1518.5566189889976,1518.5566189889976,1.0003015956184176,0.00041430773079053647
1518.563563526733,1518.563563526733,0.9998364299564766,0.0004140803552159206
1518.5705080645616,1518.5705080645616,0.99922581843597,0.0004139782447952588
1518.5774526022037,1518.5774526022037,1.0004385920204313,0.0004140712245628097
1518.5843971398463,1518.5843971398463,0.9994685967050092,0.00041408622192870933
1518.5913416773951,1518.5913416773951,0.9999424707578999,0.00041396771607323126
1518.5982862149442,1518.5982862149442,1.0005553793878548,0.0004143211942490589
1518.6052307524,1518.6052307524,0.9997123416249888,0.0004143520263555615
1518.6121752897632,1518.6121752897632,1.0005493012246873,0.0004141478938957572
1518.6191198270326,1518.6191198270326,1.0010638931239302,0.00041431977569510224
1518.626064364396,1518.626064364396,0.9996569356115661,0.00041398753180155396
1518.6330089014791,1518.6330089014791,0.9998965407776723,0.00041412665065828193
1518.6399534384695,1518.6399534384695,0.998955908656113,0.00041405410466299416
1518.6468979754598,1518.6468979754598,0.999745982090114,0.0004141624640040668
1518.6538425124504,1518.6538425124504,0.9998969555376209,0.00041427550922981237
1518.6607870494404,1518.6607870494404,1.0000189658681662,0.0004142955895984991
1518.6677315864308,1518.6677315864308,0.9999890367372222,0.0004142064118008458
1518.6746761232348,1518.6746761232348,1.000393270379281,0.0004141851225601249
1518.6816206599456,1518.6816206599456,1.0006228594734903,0.00041420350981017154
1518.6885651965636,1518.6885651965636,0.9997557620809955,0.0004141241741091391
1518.6955097331813,1518.6955097331813,1.0010846913210143,0.00041431158918020733
1518.702454269706,1518.702454269706,0.9993428548796072,0.0004140469253640112
1518.7093988062304,1518.7093988062304,0.9990139800731415,0.0004139129433699283
1518.716343342569,1518.716343342569,1.0005429013480185,0.0004140805063279937
1518.7232878789077,1518.7232878789077,1.0003835044779725,0.00041396339536397083
1518.7302324151528,1518.7302324151528,1.0000537366704023,0.00041405004097349213
1518.7371769513052,1518.7371769513052,0.999348326473173,0.00041397397759719145
1518.7441214874573,1518.7441214874573,0.9997842981895542,0.00041417601856487553
1518.751066023423,1518.751066023423,0.9996510968530254,0.00041414795470784833
1518.758010559482,1518.758010559482,1.0000693758423953,0.0004141517705394666
1518.764955095355,1518.764955095355,1.0014625588053883,0.00041433491119353597
1518.7718996311341,1518.7718996311341,0.9993886559312282,0.0004140619340146039
1518.7788441670068,1518.7788441670068,1.0002494335875771,0.00041408849288242743
1518.7857887026935,1518.7857887026935,0.9999127063038724,0.0004142244506598859
1518.7927332382865,1518.7927332382865,1.0001678840685406,0.00041427168957034247
1518.7996777738804,1518.7996777738804,0.9992419476748837,0.0004139418720903052
1518.8066223092874,1518.8066223092874,0.9998803885448257,0.0004142788442057292
1518.8135668447874,1518.8135668447874,0.9996337465118641,0.00041413469094682756
1518.8205113801014,1518.8205113801014,1.0001438208639406,0.0004142164106669643
1518.8274559154156,1518.8274559154156,1.0004861500004663,0.00041423769886797534
1518.834400450543,1518.834400450543,0.9998816051189566,0.00041416484214838414
1518.841344985671,1518.841344985671,1.0001268903082852,0.00041411513191953514
1518.8482895207053,1518.8482895207053,1.000224617920352,0.00041412571506937106
1518.855234055833,1518.855234055833,0.9999513695990381,0.0004142604920544087
1518.8621785905882,1518.8621785905882,0.9995643632050408,0.00041403071213536675
1518.8691231256225,1518.8691231256225,0.9997781429462556,0.00041403639101932033
1518.8760676602847,1518.8760676602847,1.0006428062218897,0.0004141675281578619
1518.8830121949463,1518.8830121949463,1.0004356676459065,0.0004141890281115189
1518.8899567296085,1518.8899567296085,0.9992119980303246,0.00041392907301663554
1518.8969012642706,1518.8969012642706,1.0000787560694353,0.00041416258991968275
1518.9038457985603,1518.9038457985603,1.000030387176536,0.00041419314190223116
1518.9107903331292,1518.9107903331292,1.0003587683636144,0.00041414486643527143
1518.9177348673252,1518.9177348673252,1.0008866411645656,0.00041427302937837847
1518.9246794016149,1518.9246794016149,1.0000750079656533,0.00041418134589226336
1518.931623935811,1518.931623935811,0.9999463965115268,0.00041421823857477864
1518.9385684700076,1518.9385684700076,0.9999833809124586,0.0004140017999192462
1518.9455130039246,1518.9455130039246,0.9996182911140679,0.0004140151097765157
1518.9524575380276,1518.9524575380276,0.9997019952509982,0.0004142443209168227
1518.9594020718519,1518.9594020718519,0.9996584382947601,0.00041406701417321355
1518.9663466056752,1518.9663466056752,1.0001442613691933,0.00041402697379953256
1518.9732911394062,1518.9732911394062,1.0003993300740253,0.000414205787610771
1518.980235673137,1518.980235673137,1.0005502233944377,0.0004143176270534666
1518.9871802065882,1518.9871802065882,0.9999306199904053,0.0004141233660289842
1518.9941247401323,1518.9941247401323,0.9997153157639357,0.0004141453511333255
1519.0010692735839,1519.0010692735839,0.9994083155731565,0.0004139610832602329
1519.0080138070352,1519.0080138070352,1.000386519030205,0.00041414707513888325
1519.0149583403,1519.0149583403,1.000014392818909,0.00041427154715906666
1519.0219028735653,1519.0219028735653,1.0003290706748154,0.0004141879360248323
1519.028847406737,1519.028847406737,0.9999575217340316,0.00041405809724846115
1519.0357919397227,1519.0357919397227,1.0004594906322772,0.0004141824849996675
1519.0427364728014,1519.0427364728014,0.999699700290385,0.00041403685742578766
1519.049681005694,1519.049681005694,1.000164079440054,0.00041418799532340984
1519.0566255384936,1519.0566255384936,0.9994497651238639,0.0004140879807988698
1519.0635700712926,1519.0635700712926,1.0000404358329016,0.0004141605933357325
1519.0705146039058,1519.0705146039058,1.000039895634035,0.00041419908223678316
1519.077459136612,1519.077459136612,1.0001322962898056,0.000414251562714277
1519.0844036689462,1519.0844036689462,0.9998219525657353,0.0004141198853662584
1519.0913482016517,1519.0913482016517,0.9997325554187413,0.00041420139246180297
1519.0982927340788,1519.0982927340788,0.9996793924874912,0.0004140154761159007
1519.1052372664126,1519.1052372664126,1.0005960095976687,0.0004142185709506368
1519.1121817983735,1519.1121817983735,0.9999062092044465,0.0004141015731920606
1519.119126330614,1519.119126330614,0.9994132530875405,0.0004140708361228842
1519.1260708626685,1519.1260708626685,1.0002016339922044,0.0004140763625426002
