time,time,flux,flux_err
1325.3015860110047,1325.3015860110047,1.0008225093757803,0.0013003689706718752
1325.3099193976232,1325.3099193976232,0.9987381123042752,0.0013008324311015718
1325.3182527842807,1325.3182527842807,1.0016414680663568,0.0013019837368530578
1325.3265861709767,1325.3265861709767,1.0013004112970418,0.0013025676329683795
1325.334225108831,1325.334225108831,0.9978147251399883,0.0011891035160623018
1325.3411695979294,1325.3411695979294,1.0018697045477887,0.001190708616404673
1325.3481140869815,1325.3481140869815,0.9990638181862259,0.0011905268852400856
1325.3550585760797,1325.3550585760797,0.9997603437284683,0.0011912278106211347
1325.3620030652246,1325.3620030652246,1.000956529749048,0.0011919288801565933
1325.3689475544163,1325.3689475544163,0.9999467403253186,0.0011923057972910256
1325.3758920437006,1325.3758920437006,1.0015904383328689,0.001192921214900371
1325.3828365329855,1325.3828365329855,1.0005655922594008,0.0011931629742626237
1325.3897810223632,1325.3897810223632,0.9988902185462563,0.0011935513149800817
1325.396725511694,1325.396725511694,0.9993047368416551,0.0011933374267019538
1325.4036700011652,1325.4036700011652,0.9991876363042536,0.001193779547893505
1325.4106144905895,1325.4106144905895,0.9981667065654646,0.0011941984171202646
1325.4175589801537,1325.4175589801537,1.001690998619114,0.0011950840670617335
1325.424503469671,1325.424503469671,1.000300611454909,0.0011953072486814696
1325.4314479593281,1325.4314479593281,0.9999308806837993,0.0011952838851959954
1325.4383924489853,1325.4383924489853,1.0012260793808374,0.0011959563742029937
1325.4453369386424,1325.4453369386424,1.0008376094152147,0.0011963154817307099
1325.4522814282996,1325.4522814282996,0.9998718706036376,0.0011960316514020631
1325.4592259181895,1325.4592259181895,0.9987570161750945,0.0011962036365990591
1325.4661704079397,1325.4661704079397,0.9981606073790072,0.0011959896380593841
1325.473114897783,1325.473114897783,1.000993324052922,0.0011971021215664722
1325.48005938772,1325.48005938772,0.9996550870874363,0.001197182052846554
1325.4870038776096,1325.4870038776096,1.0007080873131522,0.0011981446356961177
1325.493948367593,1325.493948367593,1.0002099242226206,0.001198642706565974
1325.5008928576226,1325.5008928576226,1.0001637362030302,0.0011991114294938698
1325.5078373476522,1325.5078373476522,1.0021250220017144,0.0011999754844016625
1325.514781837775,1325.514781837775,0.9999788139519812,0.0012000526060352635
1325.5217263278978,1325.5217263278978,0.9990056019055586,0.0011999445912088031
1325.5286708180672,1325.5286708180672,0.999095752923895,0.0012005960886725875
1325.5356153083299,1325.5356153083299,0.9993045742087565,0.0012012650956037298
1325.5425597985454,1325.5425597985454,0.9984552895757988,0.001201478204265202
1325.5495042888083,1325.5495042888083,0.9993505156115623,0.001202322397453718
1325.5564487791173,1325.5564487791173,1.0022340671563914,0.0012033213067952754
1325.5633932694732,1325.5633932694732,0.9996582557414474,0.0012032071793765277
1325.5703377598288,1325.5703377598288,1.0022168506121767,0.0012043137020285584
1325.5772822502774,1325.5772822502774,1.0002561266169852,0.0012041194550235863
1325.5842267407265,1325.5842267407265,0.9991195294657522,0.0012045776702812188
1325.5911712312213,1325.5911712312213,1.0007840627309392,0.0012048451238272297
1325.598115721717,1325.598115721717,0.9986061946469873,0.0012045757408682405
1325.6050602123053,1325.6050602123053,0.9981998026391123,0.0012045799018256171
1325.612004702894,1325.612004702894,1.0017527995919142,0.0012059460254825144
1325.6189491935754,1325.6189491935754,0.9982146176324356,0.0012048519736844146
1325.6258936841637,1325.6258936841637,0.9990180154436803,0.001204776576174214
1325.6328381748922,1325.6328381748922,1.0014962019761267,0.0012054369008002042
1325.6397826655739,1325.6397826655739,1.001187160815552,0.00120490485809795
1325.646727156395,1325.646727156395,0.9997573660098134,0.0012047669684859276
1325.6536716472165,1325.6536716472165,1.0000170540036746,0.0012050070323964112
1325.6606161380373,1325.6606161380373,1.0002356184961936,0.0012046486923845668
1325.667560628859,1325.667560628859,1.0006300466915028,0.001204735318134519
1325.6745051196804,1325.6745051196804,1.001166875694518,0.0012048975463169282
1325.6814496106415,1325.6814496106415,0.9994949699449688,0.001205041078044217
1325.688394101556,1325.688394101556,0.999682072389134,0.0012052256345469125
1325.695338592563,1325.695338592563,0.9989946957493968,0.001205214105878412
1325.7022830835244,1325.7022830835244,0.9991834957237966,0.0012056719582007275
1325.7092275745786,1325.7092275745786,0.9979796334810194,0.0012058765692679791
1325.7161720656327,1325.7161720656327,1.0025223545251358,0.0012066733195451986
1325.7231165567332,1325.7231165567332,1.000454063202651,0.001206942862302613
1325.7300610477876,1325.7300610477876,0.9993492993710964,0.00120711207965085
1325.7370055389815,1325.7370055389815,1.0006020512608802,0.001207764673501862
1325.7439500301284,1325.7439500301284,1.0005223522129136,0.0012080332204115157
1325.750894521369,1325.750894521369,0.999309144570541,0.0012085694480647251
1325.7578390125632,1325.7578390125632,1.0011242451993525,0.0012090224506038872
1325.7647835037565,1325.7647835037565,0.9991891206287924,0.001209212193852401
1325.7717279950436,1325.7717279950436,0.9999685584100086,0.0012095402383896768
1325.7786724863304,1325.7786724863304,1.000035919042535,0.0012103908312488352
1325.7856169776642,1325.7856169776642,0.9989788786418835,0.0012105954594459343
1325.7925614689977,1325.7925614689977,0.9984086894893517,0.0012108399645808943
1325.7995059603313,1325.7995059603313,1.00185401953438,0.0012121260331175152
1325.8064504517583,1325.8064504517583,0.9998180239570326,0.0012120111047236933
1325.813394943138,1325.813394943138,1.0009745063864748,0.0012125514135493658
1325.8203394345646,1325.8203394345646,1.000365522613596,0.0012124278946395992
1325.827283926038,1325.827283926038,1.000649400726317,0.0012129196130886142
1325.8342284175112,1325.8342284175112,0.9977511720636141,0.001212595367283281
1325.8411729090308,1325.8411729090308,1.0015849784917112,0.0012132195991162828
1325.8481174005508,1325.8481174005508,1.0006083167008402,0.001213305758395709
1325.8550618920704,1325.8550618920704,0.9981962789263292,0.0012125288650486651
1325.862006383637,1325.862006383637,0.9987464249243313,0.001212820545456905
1325.8689508752034,1325.8689508752034,0.9999386422780023,0.0012128275748611564
1325.875895366863,1325.875895366863,1.0016314529956616,0.00121249200155492
1325.8828398584296,1325.8828398584296,1.0004419391802963,0.0012125009850420328
1325.889784350089,1325.889784350089,1.000598873344034,0.0012118172449305166
1325.8967288417016,1325.8967288417016,0.9989203100018882,0.0012113704136279323
1325.9036733334078,1325.9036733334078,1.0007735132749036,0.0012115331268112563
1325.9106178251138,1325.9106178251138,1.0001717751293284,0.0012112466547522286
1325.9175623168198,1325.9175623168198,0.9997025941409443,0.001210824519229148
1325.924506808526,1325.924506808526,0.9995419528717786,0.0012110006455929897
1325.9314513002787,1325.9314513002787,0.999536249716481,0.0012112859300395552
1325.9383957920777,1325.9383957920777,1.0014049814707175,0.0012116900950291372
1325.9453402838303,1325.9453402838303,1.0002155081215531,0.0012118498018003875
1325.9522847756296,1325.9522847756296,1.0013489069441677,0.0012117465626389028
1325.959229267429,1325.959229267429,1.000090765189389,0.0012119554976058474
1325.9672848779924,1325.9672848779924,1.0025100627042722,0.001211702483636745
1325.9745071494713,1325.9745071494713,0.9978683941892024,0.001211349081840939
1325.981451641363,1325.981451641363,0.9987430094937574,0.0012114380373165743
1325.988396133209,1325.988396133209,0.9994106898937627,0.0012115646910008358
1325.995340625148,1325.995340625148,0.9986524591208509,0.0012115084782182701
1326.0022851169474,1326.0022851169474,1.0000097367958145,0.0012119889358600195
1326.0092296089324,1326.0092296089324,1.0013688610856413,0.0012123716291050743
1326.0161741009183,1326.0161741009183,1.000340930245234,0.0012127766491194503
1326.0231185929035,1326.0231185929035,1.0012557517561027,0.00121355333599169
1326.0300630847028,1326.0300630847028,1.0008470886372272,0.0012138479164769207
1326.0370075766418,1326.0370075766418,0.9996635573667048,0.0012141994235016457
1326.043952068627,1326.043952068627,0.999178678013435,0.0012134449987273115
1326.050896560613,1326.050896560613,1.0008778747361915,0.001213825422624009
1326.057841052691,1326.057841052691,0.998855617674406,0.0012138618986971181
1326.0647855448162,1326.0647855448162,0.9997088342238023,0.0012146061466515366
1326.071730036802,1326.071730036802,0.9991359961957121,0.0012149426856321952
1326.0786745287874,1326.0786745287874,0.9985505157561784,0.001215189468716331
1326.0856190207728,1326.0856190207728,1.0014270972430084,0.0012156234962593026
1326.0925635129447,1326.0925635129447,1.0000448796281582,0.0012157432928545319
1326.0995080049765,1326.0995080049765,1.0012750876500873,0.001215803729050007
1326.1064524970086,1326.1064524970086,1.0000578136711407,0.001216058831214462
1326.1133969891803,1326.1133969891803,1.0009676168339128,0.0012165378405796284
1326.1203414811657,1326.1203414811657,0.9985217707201139,0.0012159767023925093
1326.127285973384,1326.127285973384,0.9978614687099515,0.0012158583444625624
1326.134230465416,1326.134230465416,1.0005148413698568,0.0012164916849060161
1326.1411749575877,1326.1411749575877,0.998843829986631,0.0012164445855138498
1326.1481194497132,1326.1481194497132,1.000324508220293,0.001216835911042186
1326.155063941792,1326.155063941792,0.9996588572093152,0.0012169389942163398
1326.16200843401,1326.16200843401,1.0008881348225602,0.0012169367485345478
1326.1689529261353,1326.1689529261353,1.0005226785615833,0.0012169958778588045
1326.1758974183067,1326.1758974183067,0.999392809340544,0.0012166157124279774
1326.182841910432,1326.182841910432,1.0010352599527705,0.001216935392025866
1326.18978640265,1326.18978640265,0.9997029724786985,0.0012164486007354494
1326.196730894822,1326.196730894822,0.9978296533911246,0.0012159635100958733
1326.2036753869938,1326.2036753869938,1.0005767415672273,0.001216393982383207
1326.2106198792121,1326.2106198792121,0.9998740336663445,0.0012164907116850871
1326.2175643713838,1326.2175643713838,1.0008881950840935,0.0012167312622976168
1326.2245088636023,1326.2245088636023,0.9997171099175531,0.0012163656440295914
1326.2314533557737,1326.2314533557737,1.0011682026604802,0.0012166222759431536
1326.2383978479922,1326.2383978479922,1.000995584115221,0.0012169908974875954
1326.2453423402103,1326.2453423402103,0.998923064834768,0.0012167664107959003
1326.252286832429,1326.252286832429,1.0015376945042809,0.001217093346189833
1326.2592313246469,1326.2592313246469,0.9998704721200671,0.0012170006214255041
1326.266175816912,1326.266175816912,0.9977226576538275,0.0012164015402603453
1326.2731203091303,1326.2731203091303,1.0005760097667236,0.001216516451293276
1326.2800648013485,1326.2800648013485,0.9993158124594753,0.0012160517977334692
1326.2870092936137,1326.2870092936137,0.998092839363444,0.0012158026145692384
1326.2939537858315,1326.2939537858315,0.9993188853541831,0.0012161763374332795
1326.3008982780966,1326.3008982780966,1.000800380673828,0.0012162708367149412
1326.3078427703147,1326.3078427703147,1.0006852528515489,0.0012163158565603777
1326.3147872625798,1326.3147872625798,1.0011448456090828,0.0012161378738656911
1326.3217317548447,1326.3217317548447,1.0002346528480501,0.0012162238814737612
1326.3286762471096,1326.3286762471096,1.001933515601252,0.001216462932330722
1326.335620739328,1326.335620739328,0.9999616367763258,0.0012164675408792252
1326.3425652315927,1326.3425652315927,0.9975936681705617,0.001216404396287721
1326.350620842622,1326.350620842622,0.9971341074344047,0.0012162129024722308
1326.3592320130097,1326.3592320130097,1.0006926411115682,0.001217480211071682
1326.3661765052748,1326.3661765052748,1.0001206778929261,0.0012180603715421397
1326.3731209975394,1326.3731209975394,1.0007219865737595,0.0012187037759205078
1326.3800654897577,1326.3800654897577,1.0010287829123605,0.00121900727403026
1326.387009982069,1326.387009982069,0.9997627141863472,0.0012189452117456817
1326.393954474334,1326.393954474334,1.0001277520724752,0.0012194201530595324
1326.4008989665526,1326.4008989665526,1.0004909199727787,0.0012198075465099214
1326.407843458817,1326.407843458817,1.0003943914411717,0.001219553372761931
1326.4147879510826,1326.4147879510826,0.997291883719895,0.0012191520332644858
1326.421732443347,1326.421732443347,0.9993232183519062,0.0012197789827300127
1326.4286769356117,1326.4286769356117,1.0006940216584161,0.0012201450064283764
1326.4356214278766,1326.4356214278766,1.001704046387017,0.0012207851513288286
1326.4425659200951,1326.4425659200951,0.9993548337237176,0.0012201960210385348
1326.4495104123598,1326.4495104123598,1.0001293856853777,0.001221096846139134
1326.456454904578,1326.456454904578,1.0008622480875387,0.0012210781530300478
1326.4633993968432,1326.4633993968432,1.0000834565430596,0.001221114263452033
1326.4703438891079,1326.4703438891079,1.0000092986563764,0.0012213754511447377
1326.4772883813725,1326.4772883813725,1.0025325197974806,0.0012218738623376714
1326.4842328735913,1326.4842328735913,0.9970691229070507,0.0012210122419370909
1326.4911773658096,1326.4911773658096,0.9994751942729639,0.0012219767391141762
1326.4981218580747,1326.4981218580747,0.9990121557855011,0.001222064852478668
1326.5050663502923,1326.5050663502923,0.9997094009143698,0.0012223637200698084
1326.512010842511,1326.512010842511,1.0014198498861688,0.0012224314625598745
1326.5189553347293,1326.5189553347293,1.0006134189300262,0.0012226933342888826
1326.5258998269478,1326.5258998269478,0.9992889109702368,0.001222394767522635
1326.532844319166,1326.532844319166,0.9991683629916469,0.001222604044916175
1326.539788811384,1326.539788811384,1.0011190097419074,0.0012232304419773138
1326.5467333036027,1326.5467333036027,1.0001258570111484,0.0012233441699591588
1326.553677795821,1326.553677795821,0.9995194990696064,0.0012234808768748437
1326.5606222879926,1326.5606222879926,1.0003085020478562,0.001223849780324335
1326.5675667802107,1326.5675667802107,0.9997730691143953,0.0012238161390132596
1326.5745112723828,1326.5745112723828,0.9994026864802382,0.0012237254448532434
1326.581455764601,1326.581455764601,1.0009998333833747,0.0012240355989484473
1326.5884002567723,1326.5884002567723,0.9998707284957706,0.001223970139122981
1326.5953447489446,1326.5953447489446,0.9985540539544312,0.0012242599732459013
1326.6022892410697,1326.6022892410697,1.0007162749542178,0.0012242647565328022
1326.6092337332414,1326.6092337332414,1.0009946687608275,0.0012245055016381736
1326.6161782254599,1326.6161782254599,1.0002924633369414,0.0012245263694473142
1326.6231227175845,1326.6231227175845,0.9991317928314597,0.0012241377151758742
1326.63006720971,1326.63006720971,0.9997435623818557,0.001224279380141964
1326.6370117018814,1326.6370117018814,1.0005451690896503,0.0012241931972237358
1326.6439561940067,1326.6439561940067,0.9986821356627285,0.0012240355722356034
1326.6509006860856,1326.6509006860856,1.0010329471862696,0.0012242222896622253
1326.657845178304,1326.657845178304,0.9990572467931967,0.001223510222282741
1326.6647896703357,1326.6647896703357,1.0018608630391204,0.0012241676688202804
1326.6717341625074,1326.6717341625074,0.9992027418648218,0.0012234932286946175
1326.678678654493,1326.678678654493,1.0005223108949255,0.001223248699669429
1326.6856231467114,1326.6856231467114,0.9985207731223571,0.0012228137699528527
1326.693956537094,1326.693956537094,1.0005029820223232,0.0012228580953492143
1326.7009010292657,1326.7009010292657,0.9996542694770291,0.0012226106092134447
1326.7078455212977,1326.7078455212977,1.0001505588190736,0.0012227825167824152
1326.7156233523215,1326.7156233523215,1.0013011301523325,0.0012229540114134098
1326.7231234038989,1326.7231234038989,0.9998981066542172,0.0012224595304472302
1326.730067895884,1326.730067895884,1.0003145545312995,0.001222934377973184
1326.7370123878698,1326.7370123878698,1.000502766671067,0.0012228944827068964
1326.7439568798554,1326.7439568798554,0.9992755394196315,0.001222746668879615
1326.7509013718404,1326.7509013718404,0.99987935582453,0.0012228406458993915
1326.7578458639189,1326.7578458639189,0.9991332555694269,0.0012228808455223479
1326.7647903560442,1326.7647903560442,0.9998667433069445,0.0012233129565656468
1326.7717348480298,1326.7717348480298,1.0006610020277051,0.0012232970586408762
1326.7786793400153,1326.7786793400153,1.0003701264670277,0.0012231412133183607
1326.785623831861,1326.785623831861,1.0000839498024978,0.0012230933677388378
1326.7925683237534,1326.7925683237534,0.9990380451718777,0.0012231151845758677
1326.7995128157386,1326.7995128157386,0.999672774496706,0.0012231653263760777
1326.8064573077247,1326.8064573077247,0.9998665232031243,0.0012230707984030986
1326.8134017997095,1326.8134017997095,1.0000760645765756,0.0012230105390447436
1326.8203462916022,1326.8203462916022,1.0003368586067158,0.0012228301694678396
1326.8272907834478,1326.8272907834478,1.0003586096253472,0.001222683914096681
1326.8342352754332,1326.8342352754332,0.9988360072300813,0.0012222243255295597
1326.8411797672793,1326.8411797672793,1.0018210558200253,0.0012226166828127403
1326.8481242591715,1326.8481242591715,0.9991985277568656,0.0012215071339611084
1326.8550687510638,1326.8550687510638,1.0007684506584797,0.0012217015870255236
1326.8620132429098,1326.8620132429098,0.9983900072325177,0.0012209025361400805
1326.8689577347557,1326.8689577347557,1.0009213247238185,0.0012211511441481899
1326.8759022266481,1326.8759022266481,0.9972149099992969,0.001220350722748981
1326.8828467184003,1326.8828467184003,1.0014038746449994,0.0012207709679608832
1326.8897912102461,1326.8897912102461,0.9998812405901812,0.0012203107823462248
1326.8967357020451,1326.8967357020451,1.0010166297028162,0.0012200531036742485
1326.903680193845,1326.903680193845,0.9989886884884058,0.0012194724912838848
1326.9106246856438,1326.9106246856438,1.0019208319416197,0.0012198491770827502
1326.9175691773964,1326.9175691773964,0.9999961391203243,0.0012188798107307453
1326.9245136691493,1326.9245136691493,0.9985741058846666,0.001218422372333564
1326.931458160902,1326.931458160902,0.9980294958707553,0.0012180796796934339
1326.9384026526081,1326.9384026526081,0.9997459568305389,0.0012174541395813714
1326.9453471443603,1326.9453471443603,1.0009870768508669,0.0012173711651350804
1326.952291636067,1326.952291636067,0.9991766729615936,0.001216989241152408
1326.9592361277726,1326.9592361277726,1.0020919433081183,0.0012170132311244079
1326.966180619479,1326.966180619479,0.9994843700963244,0.0012166447626063206
1326.9731251110918,1326.9731251110918,1.000586437500977,0.0012159680259075385
1326.9800696027978,1326.9800696027978,0.9993348060846845,0.001215400328041931
1326.9870140944108,1326.9870140944108,1.0017490135341276,0.001215454613864664
1326.9939585860707,1326.9939585860707,0.9996171887116999,0.0012146686245955037
1327.0009030776832,1327.0009030776832,0.9972976892416382,0.0012139909417919032
1327.007847569343,1327.007847569343,0.9991276207704131,0.0012142635382036986
1327.0147920609093,1327.0147920609093,1.0002469978627104,0.001214297507257205
1327.0217365524754,1327.0217365524754,1.0042747074026352,0.0012152457995109295
1327.028681044042,1327.028681044042,0.9996276684882355,0.0012141758532589865
1327.0356255356087,1327.0356255356087,1.0010488528232,0.0012142938987113065
1327.042570027128,1327.042570027128,0.9984901131106334,0.0012139561168612134
1327.0495145186947,1327.0495145186947,1.0002106226191725,0.001214174203183243
1327.0564590101678,1327.0564590101678,0.9995882398326172,0.0012141473191573605
1327.0645146203126,1327.0645146203126,1.0011629423320474,0.0012145701028309494
1327.071736891465,1327.071736891465,0.9999907561114808,0.0012143909568381535
1327.0786813829382,1327.0786813829382,0.9989350409592477,0.0012147696138702913
