time,time,flux,flux_err
1325.3000533541488,1325.3000533541488,1.0000821457649338,6.138277762164114e-05
1325.3083866848099,1325.3083866848099,0.9999225338970822,6.137862349050209e-05
1325.3167200156656,1325.3167200156656,0.9999981123573285,6.138197430199898e-05
1325.3243589024776,1325.3243589024776,1.0000298853361973,5.6036299705097264e-05
1325.331303345161,1325.331303345161,0.9999788409405905,5.603727063529945e-05
1325.3382477879964,1325.3382477879964,0.9999789483485093,5.603897484813244e-05
1325.3451922309828,1325.3451922309828,1.0000006438930602,5.6040033043651906e-05
1325.3521366740854,1325.3521366740854,0.9999028959167846,5.603947647762449e-05
1325.3590811173392,1325.3590811173392,1.000121158918048,5.604785293477595e-05
1325.3660255607215,1325.3660255607215,0.9999122786289856,5.6045127655684285e-05
1325.3729700042313,1325.3729700042313,0.9999788062860366,5.6048572552055317e-05
1325.3799144478812,1325.3799144478812,1.0000422926235237,5.6053502179225334e-05
1325.3868588916475,1325.3868588916475,0.9999317570209026,5.6053410613496967e-05
1325.3938033355766,1325.3938033355766,1.0000378824041107,5.6059893876353775e-05
1325.4007477795872,1325.4007477795872,1.0000502319817066,5.606334438100493e-05
1325.4076922237496,1325.4076922237496,1.000041947277976,5.606430901072129e-05
1325.4146366680393,1325.4146366680393,1.000052509068377,5.6063580389205536e-05
1325.4215811124461,1325.4215811124461,1.0000371441652596,5.606729679601915e-05
1325.428525556992,1325.428525556992,0.9999168554681699,5.6065566400462596e-05
1325.4354700016547,1325.4354700016547,0.9999439742424852,5.6071202920942066e-05
1325.4424144464224,1325.4424144464224,0.999911788663605,5.607095804948717e-05
1325.4493588913294,1325.4493588913294,0.9999986411091879,5.607737329195313e-05
1325.4563033363647,1325.4563033363647,0.9999817973248761,5.6078443713002485e-05
1325.4632477815044,1325.4632477815044,1.000097546251328,5.6081308216565626e-05
1325.470192226749,1325.470192226749,1.0000258079604234,5.6084275017974045e-05
1325.4771366721102,1325.4771366721102,1.0000044583774683,5.608315642280083e-05
1325.484081117611,1325.484081117611,0.9999531527866591,5.6084615390464654e-05
1325.4910255632167,1325.4910255632167,1.0000473479796066,5.608833212863083e-05
1325.4979700089273,1325.4979700089273,0.9999551794190769,5.608923835029503e-05
1325.5049144547656,1325.5049144547656,1.0000279419957216,5.609278689632825e-05
1325.5118589006975,1325.5118589006975,1.0000082134935098,5.609417389834579e-05
1325.518803346745,1325.518803346745,1.0000843986086587,5.609846958864515e-05
1325.5257477928978,1325.5257477928978,0.9999995828453956,5.6101754087474596e-05
1325.5326922391437,1325.5326922391437,0.9999678019203919,5.610220269937859e-05
1325.539636685506,1325.539636685506,0.9999039413213179,5.610184202556975e-05
1325.546581131985,1325.546581131985,0.9999687791653743,5.610745474995152e-05
1325.5535255785564,1325.5535255785564,1.0000703096256132,5.611206095654421e-05
1325.5604700252218,1325.5604700252218,1.0000005242865608,5.611029595440519e-05
1325.5674144720028,1325.5674144720028,0.9999066374868238,5.6109937455501635e-05
1325.5743589188892,1325.5743589188892,1.000040732946286,5.611614321292496e-05
1325.5813033658687,1325.5813033658687,1.0000371444107239,5.611735997162978e-05
1325.588247812929,1325.588247812929,0.9999547025610817,5.6115845975718e-05
1325.5951922601064,1325.5951922601064,0.9999805701480252,5.6116323125535554e-05
1325.6021367073768,1325.6021367073768,1.000006854274106,5.611982906130975e-05
1325.609081154752,1325.609081154752,1.000096291799824,5.61232144751292e-05
1325.6160256022088,1325.6160256022088,1.0000551912169107,5.612157222460219e-05
1325.6229700497465,1325.6229700497465,1.0000592677611775,5.612273537739511e-05
1325.6299144973896,1325.6299144973896,0.9998824920903152,5.611924601755409e-05
1325.6368589451254,1325.6368589451254,0.9999676013396751,5.6121340320876135e-05
1325.6438033929544,1325.6438033929544,0.9999795329991186,5.6120938279444244e-05
1325.6507478408653,1325.6507478408653,0.999964322805156,5.612026583865831e-05
1325.657692288869,1325.657692288869,0.9999400297766495,5.612079644006573e-05
1325.6646367369658,1325.6646367369658,1.0000581467113832,5.612184151595783e-05
1325.6715811851323,1325.6715811851323,1.0000669438967769,5.612309247023209e-05
1325.6785256333924,1325.6785256333924,1.0000804613398215,5.612368182473172e-05
1325.685470081734,1325.685470081734,1.0000359629207927,5.6122875267483195e-05
1325.6924145301568,1325.6924145301568,0.9999295046124397,5.6121159692155977e-05
1325.6993589786844,1325.6993589786844,0.9999239272498212,5.6120747477414584e-05
1325.7063034272587,1325.7063034272587,0.9999764095940537,5.612353817708978e-05
1325.7132478759372,1325.7132478759372,1.000012290070508,5.612562228314633e-05
1325.720192324698,1325.720192324698,1.000069830813769,5.612787852294388e-05
1325.7271367735166,1325.7271367735166,1.0000283124872262,5.612931677988391e-05
1325.7340812224165,1325.7340812224165,0.9999650835402211,5.6127454480039485e-05
1325.7410256714102,1325.7410256714102,1.0000732902387397,5.613057771773593e-05
1325.747970120473,1325.747970120473,0.9999494076902353,5.612884769447384e-05
1325.7549145696178,1325.7549145696178,0.9999109864974287,5.612960404650591e-05
1325.7618590188208,1325.7618590188208,0.9999807115317856,5.613370997587289e-05
1325.768803468105,1325.768803468105,0.9999208203658931,5.613268109645843e-05
1325.775747917459,1325.775747917459,1.000051845217246,5.613729483131665e-05
1325.782692366895,1325.782692366895,1.0000972539061064,5.614211975311287e-05
1325.7896368163888,1325.7896368163888,1.0000100733407469,5.6140807900299545e-05
1325.796581265964,1325.796581265964,1.0000545037352566,5.614198609330673e-05
1325.8035257156093,1325.8035257156093,1.000035203114379,5.613968759082695e-05
1325.8104701653244,1325.8104701653244,0.9999333488294504,5.613950020264452e-05
1325.8174146150975,1325.8174146150975,0.9999000170487482,5.613991515308915e-05
1325.8243590649408,1325.8243590649408,0.9999959587317097,5.614336627491108e-05
1325.8313035148535,1325.8313035148535,1.0000463971420663,5.614465139539613e-05
1325.8382479648365,1325.8382479648365,1.0000014188016668,5.614420362413694e-05
1325.845192414866,1325.845192414866,0.9999901413522947,5.614245504892785e-05
1325.8521368649763,1325.8521368649763,1.0000947119100927,5.6144584463471486e-05
1325.859081315146,1325.859081315146,0.9999078397330111,5.6138250694504974e-05
1325.8660257653846,1325.8660257653846,0.9999408609545946,5.613939260881058e-05
1325.8729702156704,1325.8729702156704,0.999963582070581,5.613999963042382e-05
1325.8799146660372,1325.8799146660372,1.0000130172696147,5.613790990042002e-05
1325.8868591164392,1325.8868591164392,1.0001357036167797,5.61407380227813e-05
1325.893803566911,1325.893803566911,1.0000824431599054,5.6139925424569725e-05
1325.9007480174528,1325.9007480174528,0.9999766358828712,5.613520292440512e-05
1325.907692468029,1325.907692468029,1.0000078795077871,5.6134507576848914e-05
1325.914636918687,1325.914636918687,0.999837725470367,5.612857481303471e-05
1325.9215813693913,1325.9215813693913,1.0000378832339152,5.613269481793502e-05
1325.9285258201664,1325.9285258201664,0.9999707828452383,5.613074310728627e-05
1325.9354702709754,1325.9354702709754,1.0000100134582854,5.613216111040061e-05
1325.942414721843,1325.942414721843,1.0000072475424648,5.613369323063459e-05
1325.9493591727921,1325.9493591727921,1.0000425926814702,5.613239792005907e-05
1325.9563036237528,1325.9563036237528,1.000022363080193,5.6132659967992024e-05
1325.9640814089094,1325.9640814089094,1.000027918320448,5.613087647129807e-05
1325.9715814160968,1325.9715814160968,0.9999248291813128,5.6126965729376185e-05
1325.9785258672557,1325.9785258672557,0.999987125830587,5.6128837318334184e-05
1325.9854703184258,1325.9854703184258,1.0000160805832603,5.613046382880395e-05
1325.992414769689,1325.992414769689,0.9999899151408874,5.613051377850895e-05
1325.9993592209873,1325.9993592209873,0.9999775176683124,5.613003181564453e-05
1326.0063036723438,1326.0063036723438,1.000009000135658,5.6132741056352286e-05
1326.0132481237356,1326.0132481237356,1.0000309582745341,5.6134722735460585e-05
1326.020192575185,1326.020192575185,1.0000250215694577,5.613492730227773e-05
1326.0271370266817,1326.0271370266817,1.000020300793715,5.6137331888754145e-05
1326.0340814782126,1326.0340814782126,1.0000030753686535,5.6136647347536916e-05
1326.041025929813,1326.041025929813,1.0000141266452358,5.6137365030360764e-05
1326.0479703814378,1326.0479703814378,1.0000087142883085,5.6135652537683356e-05
1326.0549148331086,1326.0549148331086,0.9999168392560145,5.613483136002977e-05
1326.061859284826,1326.061859284826,0.9998936534450035,5.6134120763002356e-05
1326.06880373659,1326.06880373659,1.0001193053387598,5.6142533752094584e-05
1326.0757481883884,1326.0757481883884,1.0000623714077146,5.614228384622293e-05
1326.0826926402578,1326.0826926402578,0.9999965308959295,5.613846651001728e-05
1326.0896370921496,1326.0896370921496,0.9999727842037764,5.613956191843782e-05
1326.0965815440768,1326.0965815440768,0.9999337661073326,5.613679662543593e-05
1326.1035259960622,1326.1035259960622,1.0000233767257145,5.613839524508242e-05
1326.1104704480817,1326.1104704480817,1.0000456691292043,5.61395064483878e-05
1326.1174149001367,1326.1174149001367,0.9999500634861546,5.613694943942307e-05
1326.12435935225,1326.12435935225,1.0000396249498942,5.613750523608582e-05
1326.1313038043636,1326.1313038043636,0.9998786202147837,5.61355376911359e-05
1326.138248256558,1326.138248256558,1.0000280261670635,5.613774826176972e-05
1326.1451927087646,1326.1451927087646,1.0001387588660404,5.614267158640353e-05
1326.1521371610056,1326.1521371610056,0.9999948024033616,5.6139300737486135e-05
1326.159081613305,1326.159081613305,1.0000233053067662,5.613910179050359e-05
1326.166026065628,1326.166026065628,0.9999107368595371,5.613567944492418e-05
1326.1729705179855,1326.1729705179855,0.9999608876138233,5.613653015549405e-05
1326.1799149703784,1326.1799149703784,0.9999769570960171,5.613573168222212e-05
1326.1868594228292,1326.1868594228292,1.0000015735060983,5.613563009966968e-05
1326.1938038752912,1326.1938038752912,1.0001259550363288,5.613989558095919e-05
1326.2007483278007,1326.2007483278007,1.0000142096943132,5.6136475328583134e-05
1326.2076927803328,1326.2076927803328,0.9999480243727559,5.613355493754549e-05
1326.214637232912,1326.214637232912,0.9999435069345566,5.613303460535446e-05
1326.2215816855257,1326.2215816855257,1.0000279425684058,5.613825746503321e-05
1326.228526138151,1326.228526138151,1.0000845793852826,5.613744806088703e-05
1326.2354705908347,1326.2354705908347,0.9999617219989853,5.6135495795943556e-05
1326.2424150435295,1326.2424150435295,0.9999459858890172,5.613334854448458e-05
1326.2493594962602,1326.2493594962602,0.9999991178755924,5.61346707512093e-05
1326.256303949025,1326.256303949025,0.9999877928418442,5.6136661765645245e-05
1326.2632484018256,1326.2632484018256,1.0000246999604139,5.613654033453422e-05
1326.270192854649,1326.270192854649,0.9999892717321884,5.613251547001766e-05
1326.277137307507,1326.277137307507,0.9999736197173575,5.613240665876255e-05
1326.2840817604006,1326.2840817604006,0.9999531884716543,5.613221811184131e-05
1326.291026213305,1326.291026213305,0.9999994637646532,5.613219280493979e-05
1326.2979706662566,1326.2979706662566,1.0001161423110074,5.6135732704401855e-05
1326.3049151192429,1326.3049151192429,0.9999503277337984,5.613108549944125e-05
1326.3118595722294,1326.3118595722294,1.0001288595244566,5.613702778153793e-05
1326.3188040252621,1326.3188040252621,0.9999316243933187,5.613118625610068e-05
1326.3257484783064,1326.3257484783064,1.0000007268014033,5.6134257232470806e-05
1326.332692931398,1326.332692931398,1.0000011325891205,5.613463452375568e-05
1326.3396373845121,1326.3396373845121,0.9999703293289418,5.6133985935719066e-05
1326.3471373939005,1326.3471373939005,0.9999372612649765,5.61316176988604e-05
1326.356304072075,1326.356304072075,0.9999752288813344,5.613596051695991e-05
1326.363248525271,1326.363248525271,1.0001415035862509,5.61409544169162e-05
1326.3701929784904,1326.3701929784904,1.000020897755068,5.613764703739115e-05
1326.3771374317562,1326.3771374317562,0.9999567258834509,5.613564774683232e-05
1326.3840818850333,1326.3840818850333,1.000030005558881,5.613924447374896e-05
1326.391026338311,1326.391026338311,0.99990769509903,5.613610466416954e-05
1326.397970791623,1326.397970791623,0.9999377241127869,5.613623698689855e-05
1326.4049152449586,1326.4049152449586,1.000023519967092,5.613930792455078e-05
1326.4118596983178,1326.4118596983178,0.9999854804545872,5.613926560347392e-05
1326.4188041517114,1326.4188041517114,1.000010669329324,5.6140109101889837e-05
1326.425748605117,1326.425748605117,0.9999785305824304,5.613713806110287e-05
1326.4326930585455,1326.4326930585455,1.0000368470744234,5.614098253845744e-05
1326.439637512009,1326.439637512009,1.0001300299864535,5.6141712360786065e-05
1326.4465819654847,1326.4465819654847,0.9999894858478573,5.613934731582439e-05
1326.4535264189713,1326.4535264189713,0.9999952078377762,5.614011861942138e-05
1326.4604708724814,1326.4604708724814,0.9999963287036426,5.614141253399434e-05
1326.4674153260269,1326.4674153260269,0.9999322415110568,5.6139083631922106e-05
1326.47435977956,1326.47435977956,0.9999581216082134,5.614056689031007e-05
1326.481304233152,1326.481304233152,1.0000433212374915,5.614490201484803e-05
1326.488248686755,1326.488248686755,1.000105645072794,5.614695363910084e-05
1326.4951931403702,1326.4951931403702,0.9998524867240433,5.6140914791720986e-05
1326.5021375939966,1326.5021375939966,1.0000752597689313,5.6147776587767566e-05
1326.5090820476585,1326.5090820476585,0.9999418354245397,5.614409205443144e-05
1326.5160265013199,1326.5160265013199,0.9999987840970492,5.614501435684725e-05
1326.5229709550163,1326.5229709550163,1.0000092510563579,5.614501083079513e-05
1326.5299154087365,1326.5299154087365,0.9999626634299311,5.614481150895223e-05
1326.536859862444,1326.536859862444,1.0000437739730188,5.614497406842914e-05
1326.5438043161876,1326.5438043161876,0.9999576088331643,5.614630223386447e-05
1326.5507487699422,1326.5507487699422,1.0000584845112412,5.6149214391000416e-05
1326.5576932237316,1326.5576932237316,0.9999592661680069,5.614697873454116e-05
1326.5646376775098,1326.5646376775098,1.0000204803658146,5.6147303288055046e-05
1326.5715821313224,1326.5715821313224,1.0001264935391418,5.615075945862118e-05
1326.5785265851355,1326.5785265851355,1.0000631926097718,5.614872673570156e-05
1326.585471038983,1326.585471038983,0.9998335839484312,5.6143845841465114e-05
1326.592415492843,1326.592415492843,0.9999243968469328,5.614617917530457e-05
1326.599359946702,1326.599359946702,0.9999973535098127,5.6149525475252646e-05
1326.6063044005964,1326.6063044005964,1.0000546342642056,5.615095206787638e-05
1326.613248854491,1326.613248854491,0.9999477260848721,5.614931929889126e-05
1326.6201933084085,1326.6201933084085,1.0000195148641977,5.6151785109696905e-05
1326.6271377623382,1326.6271377623382,1.0000529297106404,5.615215894207476e-05
1326.634082216267,1326.634082216267,1.0000743040851936,5.615381200509199e-05
1326.6410266702317,1326.6410266702317,0.9998766885072307,5.614781170532267e-05
1326.6479711242073,1326.6479711242073,0.9999359962334132,5.614862268185629e-05
1326.6549155781831,1326.6549155781831,0.9999541164819636,5.614954047525383e-05
1326.6618600321824,1326.6618600321824,1.0000660414524396,5.615039346774298e-05
1326.6688044861814,1326.6688044861814,0.9999908088718159,5.614580344476528e-05
1326.6757489402157,1326.6757489402157,1.000000047676534,5.6147159078129416e-05
1326.6826933942382,1326.6826933942382,0.9999941945287517,5.614460799254049e-05
1326.6907489609362,1326.6907489609362,1.0000221134238483,5.6146952851245e-05
1326.6979711931594,1326.6979711931594,1.0000084402428409,5.614606565342168e-05
1326.70491564724,1326.70491564724,0.9999818555214126,5.614342195372346e-05
1326.71241565763,1326.71241565763,0.9999748471360264,5.614390054797206e-05
1326.7201934462319,1326.7201934462319,1.0000703449354467,5.614709512427612e-05
1326.7271379003357,1326.7271379003357,1.000003111436854,5.614269426690482e-05
1326.7340823544396,1326.7340823544396,0.999913250631379,5.613983907765719e-05
1326.7410268085785,1326.7410268085785,1.0000164866373296,5.6140838673645025e-05
1326.7479712627287,1326.7479712627287,0.9999566792988954,5.6138672784998926e-05
1326.7549157168792,1326.7549157168792,1.0000025510136792,5.6139067345409135e-05
1326.7618601710299,1326.7618601710299,1.0000823267130923,5.614086449609632e-05
1326.76880462518,1326.76880462518,1.0000458359253117,5.61397541205125e-05
1326.7757490793772,1326.7757490793772,0.9999848484114995,5.6137362917238445e-05
1326.7826935335513,1326.7826935335513,0.9999324080168236,5.613665144909827e-05
1326.7896379877482,1326.7896379877482,0.9999284740910331,5.613497633387332e-05
1326.796582441957,1326.796582441957,1.0000270606351491,5.613777396188058e-05
1326.803526896166,1326.803526896166,1.0000589731761587,5.614055843819841e-05
1326.8104713503863,1326.8104713503863,0.9999700663611616,5.613705454651738e-05
1326.8174158046177,1326.8174158046177,1.000031007101858,5.613868385384524e-05
1326.82436025885,1326.82436025885,1.0000754246900478,5.614255856743421e-05
1326.8313047130937,1326.8313047130937,1.0000045062042897,5.6139214168767186e-05
1326.8382491673606,1326.8382491673606,0.9999172915770835,5.613675421280946e-05
1326.8451936216156,1326.8451936216156,0.9999552367288608,5.613790354435507e-05
1326.8521380758825,1326.8521380758825,1.0000308988453372,5.613674286173953e-05
1326.8590825301728,1326.8590825301728,0.9999752520575484,5.613538956175254e-05
1326.8660269844402,1326.8660269844402,1.0000487328001575,5.613756236518223e-05
1326.8729714387305,1326.8729714387305,1.0000028726836394,5.613546287464796e-05
1326.879915893032,1326.879915893032,0.9998839153134746,5.613149410190802e-05
1326.8868603473225,1326.8868603473225,1.000059115730668,5.613502295713861e-05
1326.8938048016469,1326.8938048016469,1.000000763117129,5.613170711569905e-05
1326.9007492559608,1326.9007492559608,1.0000557530277163,5.613035865659519e-05
1326.907693710274,1326.907693710274,1.000013780531631,5.61271822295748e-05
1326.914638164611,1326.914638164611,1.000049161918981,5.612848441461029e-05
1326.921582618936,1326.921582618936,1.0000119811363273,5.6125621037389485e-05
1326.9285270732846,1326.9285270732846,1.0000119924149042,5.61247173416302e-05
1326.9354715276215,1326.9354715276215,0.999848742557923,5.612094270522759e-05
1326.9424159819696,1326.9424159819696,1.0000435009113693,5.612446988012984e-05
1326.9493604363297,1326.9493604363297,1.0000028611836917,5.612328308014795e-05
1326.9563048906898,1326.9563048906898,1.0001016427065352,5.612540436996371e-05
1326.9632493450385,1326.9632493450385,0.9999143793591392,5.6119182129337615e-05
1326.97019379941,1326.97019379941,0.9999255384066192,5.611814756580653e-05
1326.9771382537929,1326.9771382537929,0.9999863260446082,5.6116474320923036e-05
1326.984082708165,1326.984082708165,1.0000169760714184,5.611557153692205e-05
1326.991027162548,1326.991027162548,1.0000103359051418,5.6115817602790064e-05
1326.997971616932,1326.997971616932,1.0000341424439878,5.611425111948434e-05
1327.004916071315,1327.004916071315,1.0000700967936988,5.611717990436215e-05
1327.0118605257098,1327.0118605257098,1.0000066520631414,5.611343258889828e-05
1327.0188049801047,1327.0188049801047,0.999986981988034,5.611382292979265e-05
1327.0257494345115,1327.0257494345115,0.9999365321446895,5.611135400543179e-05
1327.032693888895,1327.032693888895,1.0000833641039037,5.611486654174354e-05
1327.0396383433128,1327.0396383433128,0.999875127208407,5.6108418430557807e-05
1327.04658279772,1327.04658279772,0.9999834895754814,5.6112982454832346e-05
1327.0535272521263,1327.0535272521263,1.000105072073411,5.6114348313626976e-05
1327.0613050410777,1327.0613050410777,0.9999860525309554,5.611106721412026e-05
1327.0688050518395,1327.0688050518395,1.0000027180632747,5.611398324408324e-05
