time,time,flux,flux_err
1354.118617434203,1354.118617434203,1.000148687034706,0.0011939171546633974
1354.1267193905494,1354.1267193905494,0.9999920515376054,0.0010904115894543262
1354.1336639245603,1354.1336639245603,0.9994377309955806,0.0010901662435783954
1354.140608458106,1354.140608458106,0.9991042265373202,0.0010900532536157216
1354.147552991651,1354.147552991651,1.0016053409428924,0.0010910385934202913
1354.1544975249174,1354.1544975249174,0.9999403881286545,0.0010904455847653217
1354.1614420580904,1354.1614420580904,0.9992345965218057,0.0010902369807340518
1354.1683865910773,1354.1683865910773,1.000926627585932,0.001090824021769706
1354.1753311239704,1354.1753311239704,1.000489396178117,0.0010908984005478927
1354.182275656585,1354.182275656585,0.9996822505601276,0.0010904672647734477
1354.189220189106,1354.189220189106,0.9999903779752914,0.0010904591309939956
1354.1961647214407,1354.1961647214407,1.0000173773466783,0.0010904622069818656
1354.2031092536822,1354.2031092536822,0.9995539359017046,0.001090415871050142
1354.2100537856447,1354.2100537856447,0.9998890165510866,0.0010905986960800247
1354.2169983175136,1354.2169983175136,1.0006750288565722,0.001090639894047952
1354.2239428492899,1354.2239428492899,0.9988133431431336,0.0010899304433243857
1354.2308873806928,1354.2308873806928,1.000854495235068,0.0010901681691991212
1354.2378319123761,1354.2378319123761,0.9988341878216211,0.0010897606700247355
1354.2447764435933,1354.2447764435933,0.9998026188427165,0.0010901405859632199
1354.2517209744378,1354.2517209744378,1.001194753425302,0.0010904326895241347
1354.2586655054686,1354.2586655054686,0.9992001985709917,0.001089546423667843
1354.2656100362203,1354.2656100362203,1.0008925409317588,0.0010901247668528978
1354.2725545668786,1354.2725545668786,1.00135709219653,0.0010900856043895575
1354.279499097351,1354.279499097351,1.0002325329241935,0.0010897810712213096
1354.2864436276366,1354.2864436276366,0.9987845530041403,0.0010891609586976938
1354.2933881578294,1354.2933881578294,1.0003070096076276,0.001089549093918696
1354.3003326878356,1354.3003326878356,0.9995426903010861,0.0010895045815068948
1354.307277217749,1354.307277217749,0.9995838117786852,0.0010900270722607902
1354.3142217475695,1354.3142217475695,1.0006993573623946,0.0010898805870639917
1354.3211662770168,1354.3211662770168,0.9987354155047694,0.0010894332899135087
1354.3281108064646,1354.3281108064646,0.9996056386677379,0.0010897576726858363
1354.335055335819,1354.335055335819,1.0002617899098882,0.0010903441982487462
1354.341999864801,1354.341999864801,1.0009951238218737,0.001090192560276421
1354.3489443940628,1354.3489443940628,1.0005119171899781,0.001090011419687128
1354.355888922765,1354.355888922765,1.000349428562123,0.0010899863838257913
1354.362833451468,1354.362833451468,1.0005367579607376,0.001090189089324804
1354.3697779800777,1354.3697779800777,0.9999114822388661,0.0010900827259192967
1354.3767225085005,1354.3767225085005,0.999855352631627,0.0010897878195157687
1354.383667036831,1354.383667036831,0.9994014312132367,0.0010900004763575969
1354.3906115649745,1354.3906115649745,0.9985541764566734,0.0010895372961832366
1354.3975560930253,1354.3975560930253,1.0008090347525225,0.001090272758819301
1354.4045006208896,1354.4045006208896,0.9985370248104264,0.0010890838424906955
1354.411445148661,1354.411445148661,0.9997865978069604,0.0010894442783414022
1354.418389676246,1354.418389676246,1.0015783592629894,0.0010899107860398677
1354.425334203738,1354.425334203738,0.9998099178126655,0.0010892304532970744
1354.4322787310434,1354.4322787310434,0.9999580547146614,0.0010890230056466866
1354.4392232582559,1354.4392232582559,1.0000788851006372,0.0010886878760425903
1354.4461677852821,1354.4461677852821,1.0005587635302906,0.0010889919656742026
1354.4531123122154,1354.4531123122154,0.9999445779180334,0.0010886860281563594
1354.4600568391486,1354.4600568391486,1.0004538102200748,0.0010885815758582477
1354.4670013657092,1354.4670013657092,1.000884257779322,0.001088933810396093
1354.4739458922697,1354.4739458922697,0.9996857366109279,0.0010887436927503982
1354.480890418737,1354.480890418737,0.9989633346918417,0.0010887998887907384
1354.4878349449248,1354.4878349449248,1.0016457895876971,0.0010898683015176708
1354.4947794711134,1354.4947794711134,0.998256079490081,0.001088588102880237
1354.5017239972083,1354.5017239972083,1.0004252638315614,0.0010891049492522675
1354.5086685230235,1354.5086685230235,0.9989692281077038,0.0010887104597819381
1354.5156130488392,1354.5156130488392,0.9982451037836719,0.001088411266440262
1354.5225575744685,1354.5225575744685,0.9999146289787785,0.0010886965250578693
1354.5295021000045,1354.5295021000045,1.0013458462369946,0.001089181890839328
1354.5364466253545,1354.5364466253545,0.9999190896776653,0.0010888434309829428
1354.5433911507043,1354.5433911507043,1.0020841131192657,0.0010896296477556598
1354.550335675868,1354.550335675868,0.9999434816390995,0.0010889105560988026
1354.5572802009385,1354.5572802009385,1.0011130028413613,0.001089474002750382
1354.5642247257292,1354.5642247257292,0.9981880532575333,0.0010882491607841261
1354.5711692505204,1354.5711692505204,1.0006504796808362,0.0010891376779081341
1354.5781137752183,1354.5781137752183,0.9994410508215286,0.001088518406284103
1354.58505829973,1354.58505829973,0.9985530983828393,0.0010882318341261308
1354.592002824242,1354.592002824242,0.9999311670117474,0.0010885879828722777
1354.598947348474,1354.598947348474,0.9987969928706688,0.0010882579156695617
1354.6058918727065,1354.6058918727065,1.0006471025320791,0.0010882718413136889
1354.612836396752,1354.612836396752,1.0003064736553813,0.0010882697552813134
1354.619780920705,1354.619780920705,1.0016025220123173,0.0010887654642102854
1354.6267254444717,1354.6267254444717,1.0008007275873272,0.0010883510615166763
1354.633669968145,1354.633669968145,0.9993939773066108,0.0010882206469678833
1354.6406144918187,1354.6406144918187,1.0017481168053446,0.001089171308718904
1354.647559015306,1354.647559015306,0.9997539074732533,0.0010879050068374643
1354.6545035386996,1354.6545035386996,0.9994996932300729,0.0010882815734499338
1354.661448061908,1354.661448061908,1.0001248358950166,0.0010888771141786763
1354.6683925851157,1354.6683925851157,0.9972160848384896,0.0010882526263902815
1354.675337108137,1354.675337108137,0.9997903064276261,0.001088609889120541
1354.6822816309727,1354.6822816309727,1.0006747640020845,0.001089307293473486
1354.6892261538076,1354.6892261538076,1.000817668415558,0.0010897601206998095
1354.6961706764569,1354.6961706764569,0.9992365957455791,0.0010889098884857276
1354.703115199106,1354.703115199106,1.0005104796009205,0.0010893409371337255
1354.7100597215688,1354.7100597215688,1.0016687243972295,0.0010893607713944374
1354.7170042439382,1354.7170042439382,0.9990237674867408,0.0010887843824491535
1354.7239487660286,1354.7239487660286,0.9989336501770897,0.001088612607599813
1354.730893288398,1354.730893288398,1.0001281491135254,0.0010885053089004543
1354.7378378103024,1354.7378378103024,0.9995021569086102,0.0010881196566628825
1354.7447823322061,1354.7447823322061,1.0001295006776323,0.0010885348501264522
1354.7517268541098,1354.7517268541098,1.000197267343854,0.001088522397690961
1354.7586713757348,1354.7586713757348,1.0018945869324436,0.0010886998292355286
1354.765615897359,1354.765615897359,0.9985901295798966,0.0010879210883952893
1354.7725604187976,1354.7725604187976,0.9996292950707865,0.0010880967339707524
1354.7795049402357,1354.7795049402357,1.000832599147425,0.0010882144147111106
1354.7864494614878,1354.7864494614878,0.9996064957299688,0.0010878987531724358
1354.7933939827399,1354.7933939827399,1.0008354038817833,0.0010883918899336677
1354.8003385037125,1354.8003385037125,0.9998006627943244,0.0010881670655006116
1354.8072830247784,1354.8072830247784,0.9991865264602893,0.001087552572721155
1354.8142275455646,1354.8142275455646,1.0016293786005759,0.0010888388026255287
1354.821172066258,1354.821172066258,0.9989836337255898,0.0010876353023916404
1354.8281165870444,1354.8281165870444,0.9998317002025111,0.0010879706290132833
1354.8350611075516,1354.8350611075516,0.9989523054220204,0.001087990802889897
1354.8420056279651,1354.8420056279651,0.9997065661641917,0.0010876462062974338
1354.8489501483793,1354.8489501483793,1.0011776054420167,0.0010883357434723758
1354.8558946686067,1354.8558946686067,0.9997759807862178,0.001087719989713663
1354.862839188741,1354.862839188741,0.9994514578640648,0.001087926518929132
1354.8697837087827,1354.8697837087827,1.001050834119273,0.001088503684708752
1354.8767282288238,1354.8767282288238,1.0000739820430238,0.0010882466270197566
1354.883672748586,1354.883672748586,1.0017240991531517,0.0010886584989729356
1354.8906172684408,1354.8906172684408,0.9991330589243927,0.0010878909739126925
1354.8975617880164,1354.8975617880164,0.9991520764984694,0.0010881322180797456
1354.9045063075926,1354.9045063075926,1.0002382069962903,0.0010885126232874456
1354.9114508270745,1354.9114508270745,0.999244239400358,0.0010879786548001168
1354.9183953462777,1354.9183953462777,0.9991914599182798,0.0010880881649035828
1354.925339865574,1354.925339865574,1.0002430790662502,0.0010885007666380218
1354.9322843847772,1354.9322843847772,1.0004908453897794,0.0010880479242555987
1354.9403400268332,1354.9403400268332,1.0004064402682402,0.0010881186452022162
1354.94756232654,1354.94756232654,1.0005135649813908,0.0010880523294521103
1354.9545068454636,1354.9545068454636,1.0002743662312539,0.001088049529927021
1354.961451364108,1354.961451364108,1.0007457815285492,0.0010879955573183196
1354.9683958828457,1354.9683958828457,0.9994239162819258,0.0010876528716235467
1354.9753404013034,1354.9753404013034,0.998000365511194,0.0010871620506396208
1354.9822849197617,1354.9822849197617,0.9997210505456536,0.0010875530445104843
1354.9892294381268,1354.9892294381268,0.99874432978845,0.0010871789211262073
1354.9961739564915,1354.9961739564915,1.000017989154869,0.001087715038050128
1355.0031184746701,1355.0031184746701,1.0000522593159302,0.0010879313273907444
1355.0100629927558,1355.0100629927558,1.0010376394053027,0.0010881221251466443
1355.0170075107483,1355.0170075107483,1.0014786726619742,0.0010882360929805788
1355.0239520286473,1355.0239520286473,0.9994104904825031,0.0010875961684598736
1355.0308965464535,1355.0308965464535,1.000113284721774,0.0010878862084603392
1355.0378410641667,1355.0378410641667,0.9983000800274185,0.0010872882957327296
1355.0447855817868,1355.0447855817868,1.0002179398170632,0.0010875726654597298
1355.0517300993135,1355.0517300993135,1.0013212156004916,0.0010882841302300376
1355.0586746167469,1355.0586746167469,0.9996043968616162,0.0010878666952865612
1355.0656191342737,1355.0656191342737,0.9991175276581832,0.0010876398296849675
1355.0725636515215,1355.0725636515215,1.000453160839557,0.0010882119716922839
1355.0795081686751,1355.0795081686751,0.9976799589863232,0.001087321702842495
1355.08645268555,1355.08645268555,1.0016803703576778,0.0010879945491134504
1355.0933972027046,1355.0933972027046,1.000527765221186,0.0010879540745657188
1355.1003417195793,1355.1003417195793,1.0013285854648475,0.0010876540870558876
1355.107286236361,1355.107286236361,0.9989804949707807,0.001087694909172334
1355.1142307530495,1355.1142307530495,1.0008175898722516,0.001088142661868301
1355.1211752697382,1355.1211752697382,1.000421454631683,0.001088155436165709
1355.1281197862404,1355.1281197862404,0.997407646904583,0.0010867545466383423
1355.1350643027429,1355.1350643027429,1.0014091840170567,0.001088181027179214
1355.1420088190584,1355.1420088190584,0.9993176888078533,0.0010874966354371283
1355.1489533352817,1355.1489533352817,0.9995471562054196,0.0010880359759569997
1355.155897851598,1355.155897851598,0.9996758458877757,0.0010881682731492012
1355.1628423677273,1355.1628423677273,1.0019504912387607,0.0010884340633622867
1355.1697868836713,1355.1697868836713,1.0012171249142905,0.0010883439698289345
1355.1767313996147,1355.1767313996147,0.9997223025561072,0.001087616096527986
1355.1836759154653,1355.1836759154653,1.0002766767717028,0.0010880348070272244
1355.1906204312222,1355.1906204312222,1.000342732231346,0.001087854628567435
1355.1975649468864,1355.1975649468864,0.9989254042092444,0.0010875134562078055
1355.2045094624575,1355.2045094624575,1.001402878591153,0.0010887799652198802
1355.2114539779352,1355.2114539779352,0.998426026332431,0.0010876744447917603
1355.21839849332,1355.21839849332,0.9997506485270989,0.0010877727134875398
1355.2253430086118,1355.2253430086118,1.001656507999882,0.001088669186891219
1355.2322875239963,1355.2322875239963,0.998741932332355,0.0010878997435273257
1355.2392320390088,1355.2392320390088,1.0004930684661084,0.0010883875756897807
1355.2461765543,1355.2461765543,1.0003893236069825,0.0010881657933271517
1355.253121069219,1355.253121069219,1.000053608605318,0.0010881648811803244
1355.2600655841384,1355.2600655841384,0.9992447202938421,0.0010879201833498566
1355.2670100990574,1355.2670100990574,1.0016018240214113,0.001088383254294208
1355.2739546135106,1355.2739546135106,1.0002082227659428,0.0010879604380195996
1355.2808991283366,1355.2808991283366,0.9996210611945164,0.001087618492687101
1355.287843642883,1355.287843642883,1.002050880020253,0.001087972840871336
1355.2947881573368,1355.2947881573368,0.9986830294680311,0.0010867992168576114
1355.3017326716968,1355.3017326716968,1.000069307081389,0.0010871372708881623
1355.308677186057,1355.308677186057,0.9985465250512838,0.0010865138147638505
1355.3156217003245,1355.3156217003245,0.9986803612722184,0.0010866025439901581
1355.3225662144982,1355.3225662144982,0.9998037359053781,0.001086815155008635
1355.3295107284862,1355.3295107284862,1.0019371111435083,0.001087542739749659
1355.3370108036675,1355.3370108036675,1.0015661742982467,0.001087388687868307
1355.3447886592592,1355.3447886592592,0.9996673884153884,0.001086628495808035
1355.3517331730607,1355.3517331730607,1.0013313004909872,0.0010866345565899997
1355.3586776867692,1355.3586776867692,1.0000934489321245,0.0010870114774684703
1355.3656222003842,1355.3656222003842,0.9976462620401192,0.0010862292414481785
1355.3725667139993,1355.3725667139993,0.998655623543889,0.0010865481202038726
1355.3795112275216,1355.3795112275216,1.00159768323357,0.001087272335804714
1355.3864557409504,1355.3864557409504,0.9997426743214971,0.001086875625063061
1355.3934002541932,1355.3934002541932,0.9992328990897009,0.001086824614544986
1355.401178109133,1355.401178109133,1.000913246493433,0.0010866394491295516
1355.4086781832896,1355.4086781832896,0.9986122885155183,0.0010861510491671322
1355.4156226963464,1355.4156226963464,0.9973777469876527,0.0010860277051572332
1355.4225672094026,1355.4225672094026,1.0012470495035546,0.0010874893662813675
1355.4295117221795,1355.4295117221795,1.0000440382989293,0.00108739511958403
1355.4364562351432,1355.4364562351432,1.0037549347467178,0.001089328180730161
1355.4434007477334,1355.4434007477334,1.0029626048180909,0.0010894968704029894
1355.4503452603244,1355.4503452603244,1.0026142025245806,0.0010902243955558373
1355.4572897729154,1355.4572897729154,1.003169841788973,0.0010915266287871927
1355.464234285506,1355.464234285506,1.0007532960131351,0.001091618748482867
1355.4711787980966,1355.4711787980966,0.9962211455462313,0.0010906908099575154
1355.4781233104084,1355.4781233104084,0.996196702890707,0.0010915189803031953
1355.4850678228129,1355.4850678228129,0.9967981314572848,0.0010928564453820315
1355.492012334938,1355.492012334938,0.9954901655952545,0.0010929029895135546
1355.498956847063,1355.498956847063,0.9942264457142936,0.0010937225964021524
1355.5059013590949,1355.5059013590949,0.9953351906425928,0.001093941789427774
1355.5128458711265,1355.5128458711265,0.9931743700389861,0.0010917218022184734
1355.5197903829726,1355.5197903829726,0.9942031398844687,0.0010913593489122668
1355.5267348948178,1355.5267348948178,0.9948753943777561,0.0010933051850558254
1355.5336794065706,1355.5336794065706,0.9944779133055818,0.0010909842245028088
1355.5406239182303,1355.5406239182303,0.9940281094415836,0.0010893082696588536
1355.5475684297962,1355.5475684297962,0.9952735615474676,0.001089291239381576
1355.5545129413629,1355.5545129413629,1.0014918571713232,0.001091044438414916
1355.561457452836,1355.561457452836,1.002715871143383,0.0010903614152602296
1355.5684019641228,1355.5684019641228,1.00249979606879,0.0010901210504758818
1355.57534647541,1355.57534647541,0.999563688829985,0.0010888689693693194
1355.5822909866035,1355.5822909866035,1.000744321615938,0.0010879897551818152
1355.5892354977045,1355.5892354977045,1.0023992958313794,0.0010887675106471364
1355.5961800087116,1355.5961800087116,0.9992950166597842,0.0010871881830549004
1355.6031245198124,1355.6031245198124,0.9992229466926897,0.0010867403073998865
1355.6100690306337,1355.6100690306337,0.9987915815788269,0.0010864607133812608
1355.617013541455,1355.617013541455,0.9992670489846034,0.0010869940442295909
1355.623958052276,1355.623958052276,1.001273119567808,0.0010877069616676044
1355.6309025630046,1355.6309025630046,0.9987845510697693,0.0010871033142008265
1355.6378470736395,1355.6378470736395,1.000351976786256,0.0010870700236371128
1355.644791583995,1355.644791583995,1.0012710721379403,0.0010875895690344345
1355.6517360946298,1355.6517360946298,0.9986209040665402,0.0010865427173031594
1355.6586806049856,1355.6586806049856,1.000611800440105,0.001086973071198863
1355.6656251152478,1355.6656251152478,1.0000059259092164,0.0010868090867384669
1355.6725696255107,1355.6725696255107,1.0006385740799146,0.0010873844533436977
1355.679514135773,1355.679514135773,0.9996798463284765,0.0010871821967398596
1355.68645864557,1355.68645864557,1.0008978027401787,0.0010873489505495504
1355.6934031558321,1355.6934031558321,0.9991454285431113,0.0010872142336787046
1355.700347665629,1355.700347665629,0.9991402181756976,0.0010869529536621683
1355.707292175519,1355.707292175519,1.0007545304007945,0.00108740186482279
1355.7142366853157,1355.7142366853157,1.0003163920473541,0.0010872901355858374
1355.7211811951124,1355.7211811951124,1.0000185140178108,0.0010871836024705396
1355.72812570463,1355.72812570463,0.9990779215229061,0.001087079127520857
1355.7350702143335,1355.7350702143335,0.9997127266732531,0.001087083313015513
1355.7420147237578,1355.7420147237578,0.9999586211815142,0.0010873759550352829
1355.750070354638,1355.750070354638,1.000495126746301,0.0010872521036371149
1355.7572926443795,1355.7572926443795,0.9997569809164963,0.0010871962093843392
1355.7642371536174,1355.7642371536174,1.0007200198881454,0.0010876790111469111
1355.7711816627625,1355.7711816627625,1.000516436637779,0.001087343574908918
1355.7781261718142,1355.7781261718142,0.9999280670419104,0.001086981723231796
1355.785070680959,1355.785070680959,0.9985338173695271,0.0010872663704598472
1355.7920151900107,1355.7920151900107,0.999411101861486,0.001086612335745743
1355.7989596988766,1355.7989596988766,1.0012583456487687,0.0010874732082203024
1355.8059042076486,1355.8059042076486,0.9997770625359038,0.0010871153442508239
1355.812848716514,1355.812848716514,1.0017638697877607,0.0010872961708886717
1355.8197932251005,1355.8197932251005,0.9984316488176711,0.0010866182860176231
1355.8267377336863,1355.8267377336863,1.0003981026647966,0.0010876755087088179
1355.8336822422725,1355.8336822422725,0.998354084912594,0.0010860872426384954
1355.8406267507658,1355.8406267507658,0.999977264840328,0.0010869524386839036
1355.847571259165,1355.847571259165,1.0020824378357944,0.0010875480173777098
1355.8545157673786,1355.8545157673786,0.9995317517523882,0.0010874388404995398
1355.8614602757789,1355.8614602757789,1.0008239262486935,0.0010879651292392957
1355.868404783899,1355.868404783899,0.999550226296724,0.0010876430828794385
1355.8753492921128,1355.8753492921128,0.9978617917906025,0.0010871172378894075
1355.882293800047,1355.882293800047,1.0016283424763541,0.0010877795899285909
1355.8892383079813,1355.8892383079813,1.001584509926252,0.001088363475166724
1355.896182815915,1355.896182815915,0.998994203781111,0.001087392860358811
