time,time,flux,flux_err
1468.2768245815132,1468.2768245815132,0.9991522244604372,7.024509327019939e-05
1468.2837692064484,1468.2837692064484,0.9997043832362046,7.027901720444316e-05
1468.2907138313835,1468.2907138313835,0.9997523478217761,7.025030045985493e-05
1468.2976584562025,1468.2976584562025,0.9991728641280669,7.025345817420358e-05
1468.304603080998,1468.304603080998,0.9992609282988433,7.023284664265627e-05
1468.3115477057704,1468.3115477057704,1.0000704751699554,7.025058000399641e-05
1468.318492330449,1468.318492330449,1.0003599548501314,7.022741208249346e-05
1468.3254369550818,1468.3254369550818,0.9997457102381331,7.02558893724862e-05
1468.3323815796678,1468.3323815796678,0.9997394897378428,7.022094163514993e-05
1468.3393262042075,1468.3393262042075,1.0008193662049039,7.025723643091433e-05
1468.3462708286534,1468.3462708286534,1.0000331879182154,7.025411647350622e-05
1468.3532154531,1468.3532154531,1.0008423653726437,7.024594827419409e-05
1468.3601600775928,1468.3601600775928,1.0000396467518502,7.022966605517187e-05
1468.3671047017597,1468.3671047017597,0.9997420160712942,7.021899286273126e-05
1468.3740493260661,1468.3740493260661,1.0001089421717506,7.022504200817424e-05
1468.3887719293684,1468.3887719293684,1.0003615567357114,7.022715102946669e-05
1468.3976610482148,1468.3976610482148,1.000183234563431,7.025953799775719e-05
1468.4046056722425,1468.4046056722425,0.9989090696487206,7.017241176385857e-05
1468.4115502962693,1468.4115502962693,0.9996507047204455,7.025262664477283e-05
1468.418494920203,1468.418494920203,0.9999400412835693,7.023276513714101e-05
1468.4254395440444,1468.4254395440444,0.999891337208458,7.026069500895289e-05
1468.4323841678854,1468.4323841678854,1.0003917210272006,7.02598205677559e-05
1468.4393287916796,1468.4393287916796,0.9996796550928293,7.026017765850661e-05
1468.4462734154272,1468.4462734154272,0.9994408564241413,7.026255276102545e-05
1468.453218039082,1468.453218039082,0.999744155428475,7.025986275712816e-05
1468.46016266269,1468.46016266269,1.000411470430978,7.025348098231183e-05
1468.4671072862518,1468.4671072862518,1.0009384743220875,7.024259603345901e-05
1468.4740519098136,1468.4740519098136,0.9995393319380634,7.023523340864444e-05
1468.4809965332347,1468.4809965332347,0.9993216529457423,7.020651314811459e-05
1468.4879411566567,1468.4879411566567,0.9994714864675144,7.024784568649878e-05
1468.4948857800325,1468.4948857800325,1.000407087475388,7.027056676784825e-05
1468.5018304032678,1468.5018304032678,1.000768431455103,7.028266411842927e-05
1468.5087750266432,1468.5087750266432,1.000439561584254,7.02750244697167e-05
1468.5157196498317,1468.5157196498317,0.9998265963164013,7.02547407365784e-05
1468.5226642729278,1468.5226642729278,1.0002686535886596,7.027600866818586e-05
1468.5296088959772,1468.5296088959772,0.9990188469992798,7.026703281277575e-05
1468.536553519073,1468.536553519073,0.9998163601588935,7.027143810161088e-05
1468.543498142029,1468.543498142029,1.0000641630097171,7.02724245691297e-05
1468.5504427649853,1468.5504427649853,0.999877927991127,7.030327845743325e-05
1468.5573873878952,1468.5573873878952,0.999918122727394,7.032662030851578e-05
1468.5643320106653,1468.5643320106653,1.0003340792077957,7.034779072016568e-05
1468.5712766334814,1468.5712766334814,1.000761094181849,7.034705010953845e-05
1468.5782212562046,1468.5782212562046,1.0005926733632349,7.035624244017383e-05
1468.5851658788815,1468.5851658788815,0.9990206560001684,7.034191692048704e-05
1468.592110501465,1468.592110501465,0.9995134275538982,7.035074087724709e-05
1468.5990551240955,1468.5990551240955,0.9994494995650379,7.031402863658054e-05
1468.605999746586,1468.605999746586,1.0004887336501636,7.034666241928808e-05
1468.6129443690297,1468.6129443690297,1.0000051638715153,7.029353843356894e-05
1468.6198889914738,1468.6198889914738,1.0001465432744348,7.032963655142195e-05
1468.6268336138248,1468.6268336138248,1.0001093724907473,7.037485491012029e-05
1468.6337782361293,1468.6337782361293,1.000042999359191,7.036491211751734e-05
1468.6407228583862,1468.6407228583862,0.9966967222166383,7.032218404677058e-05
1468.6476674805976,1468.6476674805976,1.000107137209911,7.035657808617245e-05
1468.654612102669,1468.654612102669,1.0002278383256198,7.033769126896117e-05
1468.6615567248803,1468.6615567248803,0.999942270804473,7.035559623003214e-05
1468.6685013469519,1468.6685013469519,0.9998587996578255,7.035729210147878e-05
1468.6754459688368,1468.6754459688368,1.0000168964010898,7.037312757342119e-05
1468.6823905907684,1468.6823905907684,1.0003297991736697,7.033178787736048e-05
1468.6893352127004,1468.6893352127004,0.9998450506125035,7.035361922946494e-05
1468.6962798344925,1468.6962798344925,0.9997072958086617,7.034028358490735e-05
1468.703224456284,1468.703224456284,1.0001884357695732,7.033547054663166e-05
1468.7101690780296,1468.7101690780296,0.9995657418684409,7.036466232428453e-05
1468.7171136996353,1468.7171136996353,0.9999720784175725,7.035114434400972e-05
1468.7240583212877,1468.7240583212877,1.000830687523051,7.037003678929217e-05
1468.7310029428936,1468.7310029428936,0.99961933456126,7.033790322618735e-05
1468.7379475643595,1468.7379475643595,0.9997583210092618,7.03602703227027e-05
1468.7448921858722,1468.7448921858722,0.999411944355502,7.037281903575493e-05
1468.7518368072454,1468.7518368072454,1.000336446151289,7.036446064945932e-05
1468.758781428618,1468.758781428618,1.0005484584696016,7.038805593545611e-05
1468.7657260499448,1468.7657260499448,1.0002045618287898,7.037060054310145e-05
1468.7726706711778,1468.7726706711778,1.000069937978016,7.039988450429403e-05
1468.7796152923643,1468.7796152923643,0.9997271231033411,7.037583874685728e-05
1468.7865599135043,1468.7865599135043,1.000107850214685,7.039163172139346e-05
1468.793504534598,1468.793504534598,1.0002198275710406,7.041275713714191e-05
1468.8004491556453,1468.8004491556453,0.9996905919070208,7.039888802519286e-05
1468.807393776645,1468.807393776645,0.9997383604864201,7.04258331932245e-05
1468.814338397599,1468.814338397599,0.9999430112423063,7.044892265924642e-05
1468.82128301846,1468.82128301846,0.9997372696483069,7.044566189140892e-05
1468.8282276393206,1468.8282276393206,0.9978725425050332,7.041829843052586e-05
1468.8351722600416,1468.8351722600416,1.000334650659989,7.04352595576467e-05
1468.8421168808086,1468.8421168808086,1.0002313645213439,7.046028293191363e-05
1468.8490615014366,1468.8490615014366,0.9992304863187964,7.044032222703918e-05
1468.856006122065,1468.856006122065,0.9998466919080146,7.04579162675696e-05
1468.8629507425999,1468.8629507425999,1.000300154415735,7.048162359670392e-05
1468.869895363181,1468.869895363181,1.0003925365766697,7.045132549685142e-05
1468.8768399835758,1468.8768399835758,0.9998084564751443,7.050162868904632e-05
1468.8837846040176,1468.8837846040176,1.000321029592048,7.051158510047557e-05
1468.8907292243198,1468.8907292243198,1.0001206432277612,7.049200007614038e-05
1468.8976738446217,1468.8976738446217,1.00056415913034,7.048846871779787e-05
1468.9046184648766,1468.9046184648766,0.9995047333362127,7.050665729828362e-05
1468.9115630850852,1468.9115630850852,0.9998361405359283,7.05256777203362e-05
1468.9185077052475,1468.9185077052475,0.9996458347643851,7.051254014341923e-05
1468.9254523253169,1468.9254523253169,1.000179736547456,7.051988723747645e-05
1468.9323969453394,1468.9323969453394,0.9998766072770741,7.048503625355453e-05
1468.9393415653155,1468.9393415653155,1.0003356103379795,7.053894321026932e-05
1468.9462861852446,1468.9462861852446,1.0006749501171028,7.052468251419447e-05
1468.9532308051275,1468.9532308051275,0.9999383135849251,7.051517455219975e-05
1468.961286564115,1468.961286564115,1.00003085195456,7.055982343226847e-05
1468.9685089685995,1468.9685089685995,0.9995229446107883,7.05665811607125e-05
1468.975453588296,1468.975453588296,0.9997829358948852,7.056376311835733e-05
1468.9823982079924,1468.9823982079924,1.0000274813017636,7.054713125496293e-05
1468.9893428276894,1468.9893428276894,0.9994172948892945,7.055767082645451e-05
1468.9962874471532,1468.9962874471532,0.9997798725858622,7.053895319443807e-05
1469.0032320666635,1469.0032320666635,1.000363795596656,7.053639886422632e-05
1469.010176686127,1469.010176686127,1.0004093196191242,7.057334667764639e-05
1469.0171213054975,1469.0171213054975,1.0004732428443897,7.05764828730984e-05
1469.0240659248682,1469.0240659248682,1.0005222746513736,7.054633938928478e-05
1469.031010544099,1469.031010544099,0.9994068176880246,7.055040129461087e-05
1469.03795516333,1469.03795516333,0.999837612671002,7.053538734678818e-05
1469.044899782514,1469.044899782514,1.0002875445054777,7.058984232474317e-05
1469.051844401652,1469.051844401652,0.9999273011053486,7.058461802800517e-05
1469.058789020743,1469.058789020743,0.9989920900602467,7.054860545873113e-05
1469.0657336397414,1469.0657336397414,1.0002147918056497,7.061793383725297e-05
1469.072678258693,1469.072678258693,1.0004305205956574,7.061162388944674e-05
1469.0796228775978,1469.0796228775978,1.0001737155403816,7.064470286819629e-05
1469.0865674965028,1469.0865674965028,1.0002786895491966,7.065075917470129e-05
1469.0935121152677,1469.0935121152677,0.9994105454641709,7.061853489268575e-05
1469.1004567339864,1469.1004567339864,1.000407241409895,7.062149885921475e-05
1469.1074013527518,1469.1074013527518,1.0000803223414465,7.059873955346502e-05
1469.1143459712841,1469.1143459712841,0.9995292652090987,7.061294515755599e-05
1469.1212905900495,1469.1212905900495,1.0001057271709883,7.064723734861089e-05
1469.1282352085818,1469.1282352085818,0.9998676106024794,7.064213218785714e-05
1469.1351798269282,1469.1351798269282,0.9995641687546956,7.061564210124265e-05
1469.142124445414,1469.142124445414,1.000639642734062,7.061516173448712e-05
1469.14906906376,1469.14906906376,1.0002031908352862,7.064009439366117e-05
1469.156013682106,1469.156013682106,0.9993587977738109,7.06256450745887e-05
1469.1629583004055,1469.1629583004055,0.9994757934314841,7.063031960954828e-05
1469.1699029186118,1469.1699029186118,0.9995804324024711,7.061874458291211e-05
1469.1768475367721,1469.1768475367721,1.0003238920694706,7.060637031862411e-05
1469.1837921548852,1469.1837921548852,1.0003284918995456,7.06406102662821e-05
1469.1907367729518,1469.1907367729518,1.0004266604377738,7.062853629773082e-05
1469.1976813909255,1469.1976813909255,0.9999979434892848,7.061732387731463e-05
1469.2046260088991,1469.2046260088991,0.9996066276412872,7.065708631665425e-05
1469.2115706268264,1469.2115706268264,1.0005703637361194,7.066444391260452e-05
1469.2185152446605,1469.2185152446605,0.9999683024828471,7.06759753163661e-05
1469.2254598624472,1469.2254598624472,0.9991651948440342,7.066572728558113e-05
1469.2324044801883,1469.2324044801883,0.9999778631000564,7.064994118985635e-05
1469.2393490978359,1469.2393490978359,0.9999533440590005,7.068221936153612e-05
1469.2462937154837,1469.2462937154837,1.0000516108457738,7.069985147629783e-05
1469.2532383330847,1469.2532383330847,0.9995724985596974,7.06743448498404e-05
1469.2601829506389,1469.2601829506389,1.0003316551674606,7.070029127433717e-05
1469.2671275680539,1469.2671275680539,1.0003679072873664,7.069404318282906e-05
1469.2740721854223,1469.2740721854223,0.9997159507255018,7.064116148031743e-05
1469.2810168027906,1469.2810168027906,1.0006232951505227,7.066890379686192e-05
1469.2879614201588,1469.2879614201588,0.999297972057907,7.067483803447892e-05
1469.2949060374804,1469.2949060374804,1.0001364242597108,7.06592524826496e-05
1469.301850654662,1469.301850654662,0.9996139657739223,7.065023826536204e-05
1469.3087952717979,1469.3087952717979,1.0004474720501704,7.067005807202328e-05
1469.3157398888866,1469.3157398888866,1.0005614597846335,7.070092856579604e-05
1469.3226845059758,1469.3226845059758,0.9999192189340548,7.069367085825943e-05
1469.3296291229713,1469.3296291229713,0.9994697465332492,7.066672959047204e-05
1469.3365737398738,1469.3365737398738,0.9999951772053424,7.069531180736058e-05
1469.3435183567767,1469.3435183567767,1.0000087579242738,7.072290078282521e-05
1469.3504629736326,1469.3504629736326,1.0005143415578601,7.072444548356237e-05
1469.3574075903953,1469.3574075903953,0.9999499128196682,7.071797131010467e-05
1469.364352207112,1469.364352207112,0.9998699613300481,7.073373722308656e-05
1469.371296823781,1469.371296823781,1.0002347279933728,7.073433056443257e-05
1469.3782414404511,1469.3782414404511,0.9996560598234728,7.071943155408508e-05
1469.3851860569814,1469.3851860569814,0.9994747827349052,7.069288206239408e-05
1469.3921306735115,1469.3921306735115,0.9995206240344416,7.071889578707876e-05
1469.3990752899485,1469.3990752899485,1.0001157618518324,7.072195161555758e-05
1469.4060199063383,1469.4060199063383,1.0009554622293577,7.071166819713024e-05
1469.4129645227754,1469.4129645227754,0.9997623146868284,7.072306294321736e-05
1469.4199091389796,1469.4199091389796,0.9997470779474268,7.068595357457972e-05
1469.4268537551836,1469.4268537551836,0.9976056657204445,7.070939794267785e-05
1469.433798371388,1469.433798371388,1.000673974222928,7.070436905286598e-05
1469.4407429875916,1469.4407429875916,0.9997497869391164,7.072162840066946e-05
1469.4476876037027,1469.4476876037027,1.0003373548031413,7.071214446111744e-05
1469.4546322197207,1469.4546322197207,0.9996691876390551,7.071378871173848e-05
1469.461576835692,1469.461576835692,1.0001986156769629,7.07290591448259e-05
1469.4685214516169,1469.4685214516169,0.9998875718987327,7.074508008839195e-05
1469.475466067495,1469.475466067495,0.9995223023971359,7.071925270847837e-05
1469.4824106833262,1469.4824106833262,0.9998704981240142,7.07433520998966e-05
1469.4893552990648,1469.4893552990648,1.000347863419868,7.077128276680745e-05
1469.4962999148033,1469.4962999148033,1.0000506157398643,7.076803736740364e-05
1469.5032445304487,1469.5032445304487,1.0002488480988592,7.078564093829209e-05
1469.5101891460477,1469.5101891460477,0.9997257665605372,7.077915510517193e-05
1469.5171337615993,1469.5171337615993,0.9996967761877142,7.075647151166116e-05
1469.5240783770585,1469.5240783770585,1.0002082126985665,7.077022635333611e-05
1469.5310229925176,1469.5310229925176,0.9999573757726878,7.075974923371384e-05
1469.5379676079303,1469.5379676079303,0.9999222736790028,7.077199705469556e-05
1469.5449122232496,1469.5449122232496,1.0001917233813886,7.075553911605948e-05
1469.5518568385219,1469.5518568385219,1.0002922222670405,7.077053124171086e-05
1469.5588014537482,1469.5588014537482,0.9995610444589339,7.075434948186597e-05
1469.5657460689745,1469.5657460689745,0.9995192083369642,7.07906311725079e-05
1469.5726906840612,1469.5726906840612,0.9979819697545933,7.075931922203359e-05
1469.5796352991013,1469.5796352991013,1.000298040777969,7.078735152239101e-05
1469.586579914141,1469.586579914141,0.9998608914301019,7.080309587928484e-05
1469.5935245291807,1469.5935245291807,0.9997678105125752,7.077908768222526e-05
1469.600469143988,1469.600469143988,0.999291973330795,7.077039300894359e-05
1469.6074137588882,1469.6074137588882,1.00024552267159,7.079825250711931e-05
1469.6143583736953,1469.6143583736953,0.9999738940554395,7.078649313332311e-05
1469.6213029884095,1469.6213029884095,1.0009477691651936,7.080606293455196e-05
1469.6282476031233,1469.6282476031233,1.0002372702212816,7.078436197816353e-05
1469.6351922177441,1469.6351922177441,1.0004986111994487,7.076269731946947e-05
1469.6421368323186,1469.6421368323186,1.0003903480771554,7.07931778647363e-05
1469.649081446893,1469.649081446893,1.000063041184156,7.075287891080459e-05
1469.6560260613278,1469.6560260613278,0.9999084322291573,7.078432083347854e-05
1469.6629706758088,1469.6629706758088,1.0000582021176223,7.076677476803554e-05
1469.6699152901497,1469.6699152901497,0.9995462038600493,7.07775682088803e-05
1469.6768599044449,1469.6768599044449,0.9999500238173464,7.079722487597337e-05
1469.6838045187399,1469.6838045187399,0.9998991233809044,7.079442520166302e-05
1469.690749132895,1469.690749132895,1.0001366838575632,7.080174323592538e-05
1469.6976937470504,1469.6976937470504,1.0006946237398187,7.080306661158531e-05
1469.704638361205,1469.704638361205,0.999988113333222,7.083208464425725e-05
1469.7115829752674,1469.7115829752674,1.00032540986209,7.082867895783691e-05
1469.7185275891898,1469.7185275891898,0.9996368900544932,7.084429177319825e-05
1469.7254722030655,1469.7254722030655,0.9995842904588667,7.085493605157457e-05
1469.7324168169414,1469.7324168169414,0.9997769642761893,7.085771802766921e-05
1469.739361430817,1469.739361430817,0.9999462045353683,7.086639142187378e-05
1469.7463060446928,1469.7463060446928,1.000114534369534,7.087197876686483e-05
1469.7532506583825,1469.7532506583825,1.000210739762102,7.087549032766313e-05
1469.760195272072,1469.760195272072,0.9996886550817348,7.088110782395437e-05
1469.7671398856687,1469.7671398856687,1.0002684013457954,7.088370807022696e-05
1469.7740844992184,1469.7740844992184,0.9997895552994207,7.086841887663146e-05
1469.7810291127678,1469.7810291127678,1.0003393655503463,7.08771316695038e-05
1469.7879737262251,1469.7879737262251,1.0000256146938795,7.08713848594459e-05
1469.794918339588,1469.794918339588,0.9995559078209684,7.08390980422886e-05
1469.801862952952,1469.801862952952,0.9993703660117591,7.08645771716226e-05
1469.8088075662693,1469.8088075662693,1.000367184974221,7.085882215559189e-05
1469.8157521794926,1469.8157521794926,1.000420007428891,7.084106689215422e-05
1469.82269679267,1469.82269679267,1.0001360825223062,7.085531410148008e-05
1469.8296414057543,1469.8296414057543,0.9994509041888635,7.08438951052346e-05
1469.8365860188849,1469.8365860188849,1.0004017422870917,7.087512635970176e-05
1469.8435306318763,1469.8435306318763,1.0004563305744412,7.088619408313829e-05
1469.8504752448673,1469.8504752448673,1.0003248996818073,7.085111561582296e-05
1469.8574198578117,1469.8574198578117,1.0001412103537812,7.086373802939243e-05
1469.864364470616,1469.864364470616,0.9992977272252631,7.088195858982336e-05
1469.871309083514,1469.871309083514,0.9997716698007763,7.086438083082826e-05
1469.878253696226,1469.878253696226,0.9999726673568823,7.090566700993399e-05
1469.8851983089376,1469.8851983089376,1.0000833937178686,7.088432407448417e-05
1469.8921429216027,1469.8921429216027,0.9998650123871098,7.089676437766462e-05
1469.899087534128,1469.899087534128,1.0001466810056137,7.090604875866447e-05
1469.9060321466534,1469.9060321466534,1.0004589542389044,7.091189675012266e-05
1469.912976759179,1469.912976759179,0.9997387639717898,7.09147237507398e-05
1469.9199213716108,1469.9199213716108,0.9998383999842954,7.09259441731119e-05
1469.9268659839502,1469.9268659839502,1.0001046992509086,7.090485108266784e-05
1469.9338105962895,1469.9338105962895,0.9998200562935565,7.091996142800766e-05
1469.9407552085818,1469.9407552085818,0.9997234426852961,7.092178582940547e-05
1469.947699820781,1469.947699820781,1.0001828463649252,7.093580921030591e-05
1469.9546444329808,1469.9546444329808,1.0001262528781283,7.09174713449269e-05
1469.9615890450407,1469.9615890450407,1.000115742097655,7.091630717161393e-05
1469.9685336571006,1469.9685336571006,1.0002625149321458,7.094203370569114e-05
1469.9754782690666,1469.9754782690666,0.9997061875512394,7.089128528121626e-05
1469.9824228809864,1469.9824228809864,0.9994802779076964,7.090742909023703e-05
1469.9893674929067,1469.9893674929067,1.0000617828522003,7.094040154213598e-05
1469.9963121047335,1469.9963121047335,1.0002694520881485,7.09414017171938e-05
1470.003256716514,1470.003256716514,0.9997852250244097,7.091666809578298e-05
1470.0102013282014,1470.0102013282014,1.0007634041044293,7.096552470922519e-05
1470.0171459399814,1470.0171459399814,1.0000742769703952,7.093951977329864e-05
1470.0240905515288,1470.0240905515288,1.0000247258578159,7.094495229413965e-05
1470.0310351630765,1470.0310351630765,0.9992114244417328,7.095239392277741e-05
1470.037979774624,1470.037979774624,1.0005471123233611,7.096306973474972e-05
1470.0449243860783,1470.0449243860783,0.9997672847240437,7.094606249587585e-05
1470.0518689974863,1470.0518689974863,0.9992521333143003,7.094486297620462e-05
