time,time,flux,flux_err
1571.0168457645962,1571.0168457645962,1.0020668790449458,0.017756513624579258
1571.0251791649937,1571.0251791649937,1.0021316999112433,0.017605073089769656
1571.032818115368,1571.032818115368,0.9819357415513142,0.015934345890292606
1571.0397626157035,1571.0397626157035,0.9959935454374204,0.015827976903654374
1571.0467071160394,1571.0467071160394,0.9889716310137985,0.015702492291668903
1571.0536516164218,1571.0536516164218,0.9927717685549904,0.015583771147943551
1571.0605961167123,1571.0605961167123,1.0056393920239972,0.015465568033942547
1571.0675406170947,1571.0675406170947,0.9671774899744664,0.015337711851362493
1571.0744851174306,1571.0744851174306,1.0017256605580456,0.015226390336055617
1571.0814296177198,1571.0814296177198,1.0043664246520436,0.015095722305664732
1571.088374118102,1571.088374118102,1.0111881618708902,0.0149821908720015
1571.0953186184386,1571.0953186184386,1.0049635528873189,0.014845572299656013
1571.1022631187748,1571.1022631187748,0.9901146770282707,0.014708702592498351
1571.1092076191105,1571.1092076191105,1.0043877298402193,0.014602536666776597
1571.1161521193997,1571.1161521193997,0.9942744270781079,0.014485661253042001
1571.1230966197356,1571.1230966197356,0.9892232950947533,0.014405051215586958
1571.1300411200718,1571.1300411200718,1.0007727419685257,0.014314381903681842
1571.136985620315,1571.136985620315,1.0051169108644473,0.01424074322187346
1571.1439301206976,1571.1439301206976,1.0152214833682915,0.014185513255041892
1571.1508746209863,1571.1508746209863,0.985594647485837,0.0141379933028459
1571.157819121229,1571.157819121229,1.0085561556880625,0.014109147139757416
1571.1647636215191,1571.1647636215191,1.0040159275327327,0.014046508391402979
1571.171708121902,1571.171708121902,0.989603846084341,0.014015394222093145
1571.1786526221447,1571.1786526221447,0.9969153104027122,0.014003640965265263
1571.185597122434,1571.185597122434,1.0236616906805387,0.013970479713176387
1571.1925416226761,1571.1925416226761,0.9958942893949004,0.01390666545056135
1571.199486122873,1571.199486122873,0.9889285304673209,0.013853816990338056
1571.2064306231168,1571.2064306231168,0.9979479130980666,0.013815499347673038
1571.213375123359,1571.213375123359,0.999824043700982,0.01376369437694692
1571.2203196236485,1571.2203196236485,1.008635746996989,0.01369570244513616
1571.2272641237978,1571.2272641237978,0.9874839022278146,0.013618718214658826
1571.2342086240403,1571.2342086240403,0.9959243933309185,0.013552622461813973
1571.2411531241912,1571.2411531241912,1.0122017127919023,0.013486661591250202
1571.2480976243874,1571.2480976243874,1.0094412304740465,0.0134113850333653
1571.2550421245833,1571.2550421245833,1.0177313290554246,0.013354767613107915
1571.2619866247328,1571.2619866247328,0.9900748100674983,0.013289558562334233
1571.268931124882,1571.268931124882,0.9984114237608995,0.013232018746478025
1571.2758756250325,1571.2758756250325,1.0012641200291543,0.013195424930356293
1571.282820125136,1571.282820125136,0.9990544103258212,0.013133957635417515
1571.2897646252854,1571.2897646252854,1.0011146499201817,0.013073364872075286
1571.2967091253417,1571.2967091253417,0.993676039596304,0.013005123135465476
1571.303653625491,1571.303653625491,1.0085067915011476,0.012962236646220548
1571.310598125548,1571.310598125548,0.9950195445055761,0.012901580263188148
1571.3175426256053,1571.3175426256053,0.9827977217823435,0.012804698827301075
1571.3244871256152,1571.3244871256152,1.0027862714378981,0.012728931598389014
1571.3314316257183,1571.3314316257183,0.9977906564124239,0.012616760694364728
1571.3383761256814,1571.3383761256814,1.0038105354428888,0.01252854981921334
1571.3453206256913,1571.3453206256913,1.0124010909195926,0.012420789645225618
1571.3522651257017,1571.3522651257017,0.9930573718680037,0.012337514314335189
1571.3592096256655,1571.3592096256655,0.9880791217569664,0.012263322788339307
1571.3661541256288,1571.3661541256288,0.9967914543640519,0.012187610542815145
1571.3730986255455,1571.3730986255455,1.0042213422057675,0.012126108998846143
1571.3800431254617,1571.3800431254617,1.0131854231527693,0.012057313037894885
1571.3869876253789,1571.3869876253789,1.0006601667813992,0.01200201084065843
1571.3939321252965,1571.3939321252965,1.002320248177172,0.01195504003818976
1571.4008766251668,1571.4008766251668,0.9982230689633995,0.011908461086060161
1571.4078211249903,1571.4078211249903,0.9832381670971584,0.011887328850178023
1571.4147656248601,1571.4147656248601,0.9936895627395007,0.011839107253273518
1571.4217101246372,1571.4217101246372,1.010137329588296,0.011789689769527328
1571.4286546244614,1571.4286546244614,0.9913028945148532,0.011746029556908684
1571.4355991241925,1571.4355991241925,0.9928296427599592,0.011712928898841419
1571.4425436240626,1571.4425436240626,1.0049766989909392,0.011692133542608982
1571.4494881237465,1571.4494881237465,1.0051509198353457,0.011662475679524328
1571.4564326234301,1571.4564326234301,0.9860843012213929,0.011623424517581332
1571.4633771231142,1571.4633771231142,1.0166186833727227,0.011612825551651672
1571.4703216227992,1571.4703216227992,0.9897750622507029,0.011569261700943615
1571.477266122483,1571.477266122483,1.0101916473584258,0.011568921184670124
1571.484210622167,1571.484210622167,1.0087322089473638,0.011551112550311332
1571.4911551218506,1571.4911551218506,1.0100082291843364,0.01154415248950796
1571.4980996213017,1571.4980996213017,0.9843361344625723,0.011540205660672185
1571.5050441209864,1571.5050441209864,0.9930907051344603,0.011521177602927025
1571.5119886204843,1571.5119886204843,0.989316041487136,0.011531294088009139
1571.518933120075,1571.518933120075,1.0141799394799538,0.01151427039275103
1571.5258776195726,1571.5258776195726,0.9987571611204593,0.011488097365297089
1571.5328221190236,1571.5328221190236,1.0069665702345725,0.011500418895593653
1571.5397666185213,1571.5397666185213,1.0025581583145098,0.011490079676681676
1571.5467111179737,1571.5467111179737,1.0065382523020223,0.011495718930548533
1571.5536556174243,1571.5536556174243,0.9952560068642757,0.01147155176723631
1571.5606001167823,1571.5606001167823,0.9934987087291202,0.011443939368287855
1571.567544616187,1571.567544616187,1.0067659054589353,0.011430430568533365
1571.5744891155446,1571.5744891155446,0.9941187186014628,0.011417439719558655
1571.5814336148567,1571.5814336148567,1.0047190978442924,0.011428617957605037
1571.5883781141686,1571.5883781141686,0.9978443629691756,0.011421987317439467
1571.5953226134332,1571.5953226134332,0.9957338090344999,0.011419078265833014
1571.602267112698,1571.602267112698,1.0139150131228039,0.011415714105440289
1571.6092116119162,1571.6092116119162,1.0012398091727452,0.01140139553726934
1571.6161561111344,1571.6161561111344,1.0035277407091412,0.011383498775938215
1571.6231006103073,1571.6231006103073,1.004044308077334,0.011369726864915514
1571.6300451094326,1571.6300451094326,0.9922163021822602,0.011343719841269907
1571.6369896086503,1571.6369896086503,1.0049291682422268,0.01134343757628041
1571.6439341077291,1571.6439341077291,0.9733579560500276,0.011321632464052761
1571.650878606714,1571.650878606714,1.0027180120754713,0.011310189938097088
1571.6578231058393,1571.6578231058393,1.0025808521568176,0.011285876925409133
1571.664767604826,1571.664767604826,0.9978368289212197,0.011272864124497493
1571.6717121038578,1571.6717121038578,0.9928167760614123,0.011254684711124677
1571.6786566027968,1571.6786566027968,0.995690692360171,0.01122531850598555
1571.6856011017353,1571.6856011017353,1.0168776316900474,0.011202867527570317
1571.6925456006743,1571.6925456006743,0.9902042469393351,0.011189617733428027
1571.6994900995674,1571.6994900995674,1.0032501934305116,0.011154462236441568
1571.7064345984134,1571.7064345984134,1.001579099547321,0.011147760941842244
1571.7133790972123,1571.7133790972123,1.0060707397291981,0.011153673029393211
1571.720323596011,1571.720323596011,0.9976442521960458,0.01112617809860941
1571.7272680948106,1571.7272680948106,1.015495822008831,0.011095025288327303
1571.7342125935631,1571.7342125935631,1.004342317995261,0.011070171210339753
1571.7411570923164,1571.7411570923164,0.9899541869713655,0.011032380620239252
1571.7481015909766,1571.7481015909766,0.9922646341007993,0.011016155582860166
1571.7550460895893,1571.7550460895893,0.9988748786587103,0.010986825832157
1571.7619905883416,1571.7619905883416,0.99249360316864,0.01093412249401184
1571.7689350868613,1571.7689350868613,0.9824473899529791,0.010883887007217947
1571.7758795853806,1571.7758795853806,1.0286560673764196,0.010869297830026662
1571.782824083902,1571.782824083902,1.0035119543143896,0.010791297880628926
1571.7897685824219,1571.7897685824219,1.0019513436038463,0.010758208164142264
1571.7967130809411,1571.7967130809411,1.0053571497157028,0.010730300606718578
1571.8036575794608,1571.8036575794608,1.0038973867628571,0.010694694335896133
1571.8106020777946,1571.8106020777946,1.0016511045434544,0.010641967734857453
1571.8175465762674,1571.8175465762674,0.9967141764704006,0.010607248043241774
1571.8244910745557,1571.8244910745557,1.01236142614918,0.010586207882944213
1571.8314355728894,1571.8314355728894,0.9874627609727185,0.010547992522234496
1571.8383800712222,1571.8383800712222,0.997566874747973,0.010541198961267543
1571.845324569463,1571.845324569463,0.9762692872380357,0.010520240303614233
1571.8522690676564,1571.8522690676564,1.0046252418457016,0.010503647664552338
1571.859213565897,1571.859213565897,1.002481514107348,0.010478762559635235
1571.866158064045,1571.866158064045,1.0094294967121558,0.010472631562584834
1571.8731025621923,1571.8731025621923,0.999326713931979,0.010449849150607194
1571.880047060293,1571.880047060293,1.0035960642399329,0.010433673603319853
1571.8869915583937,1571.8869915583937,0.9974709965742065,0.010418471528637192
1571.8939360564473,1571.8939360564473,1.0141902506657596,0.010418523046548403
1571.9008805544086,1571.9008805544086,0.9970966772474655,0.010394446779397748
1571.907825052417,1571.907825052417,1.0035507211263546,0.01039448910708666
1571.914769550378,1571.914769550378,0.9851098236199242,0.010381698151435994
1571.9217140481992,1571.9217140481992,0.9957313252145699,0.01038624675209872
1571.9286585461136,1571.9286585461136,1.0066858658471356,0.010361822824762699
1571.9356030439346,1571.9356030439346,1.0109255522058784,0.01033690455667044
1571.942547541756,1571.942547541756,0.9944369197276881,0.01029899645759094
1571.9494920395316,1571.9494920395316,0.9971952635654038,0.010292342836818406
1571.95643653726,1571.95643653726,1.0020959968944791,0.010274180544333388
1571.9633810349412,1571.9633810349412,1.0098321515376092,0.010255815591523398
1571.9703255326228,1571.9703255326228,0.9957784374585582,0.010237994027188032
1571.9772700302576,1571.9772700302576,1.0009499381255176,0.010236487639451907
1571.9842145278462,1571.9842145278462,1.0035666700888715,0.010215363854704554
1571.9911590254358,1571.9911590254358,1.0004828851463305,0.01019924018695514
1571.998103522931,1571.998103522931,1.0047611723528675,0.01019360736279261
1572.0050480204725,1572.0050480204725,0.9964768102408647,0.010182158500212524
1572.0119925178285,1572.0119925178285,0.9889141403162262,0.010152443664156194
1572.0189370153698,1572.0189370153698,1.005201017607866,0.010153333533831233
1572.0258815127727,1572.0258815127727,1.0042758016242193,0.010148634923968412
1572.0328260101292,1572.0328260101292,1.0155918620353899,0.01016283432041417
1572.0397705073447,1572.0397705073447,1.0028895813840588,0.010163472778115714
1572.0467150046072,1572.0467150046072,0.9937278216815427,0.010139883405564546
1572.0536595019162,1572.0536595019162,0.9999857590909824,0.010132918056960174
1572.0606039990853,1572.0606039990853,0.999396779854402,0.010085481599487845
1572.067548496255,1572.067548496255,0.9996528384246126,0.010069439266483212
1572.0744929933785,1572.0744929933785,1.0020058114130743,0.01006258224699963
1572.0814374905012,1572.0814374905012,0.9911235285543285,0.010037034354580327
1572.0883819875312,1572.0883819875312,0.9881614288502943,0.010023014704518596
1572.0953264845605,1572.0953264845605,1.0101366836792507,0.009989098286784421
1572.1022709814965,1572.1022709814965,1.0039616375770688,0.00996897849203551
1572.10921547848,1572.10921547848,1.0154532480710048,0.009938275765404157
1572.1161599754175,1572.1161599754175,1.0014803241667143,0.00991785521688024
1572.1231044722608,1572.1231044722608,0.997858688999617,0.009914920505138671
1572.1300489691043,1572.1300489691043,0.9883067533615095,0.009906664761072943
1572.1369934658546,1572.1369934658546,0.9937264776370457,0.009902220106142645
1572.1439379626513,1572.1439379626513,1.0100154990530374,0.009905038703229263
1572.1508824594011,1572.1508824594011,1.0114939478589906,0.009905479619732146
1572.1578269560596,1572.1578269560596,0.9874759941092931,0.00989677910091454
1572.1647714527166,1572.1647714527166,1.004580495646884,0.009922096463996017
1572.1717159493269,1572.1717159493269,0.9938978435085459,0.009893284003215028
1572.178660445891,1572.178660445891,0.9994087590405514,0.009867588756688377
1572.1856049423618,1572.1856049423618,0.9945661518188311,0.009859126209687994
1572.1925494388793,1572.1925494388793,0.9998665650235268,0.009861014182288292
1572.1994939353506,1572.1994939353506,0.9989375884192734,0.009829182579582773
1572.2064384317287,1572.2064384317287,0.9949900860969253,0.009832975692957085
1572.2133829281063,1572.2133829281063,1.0152137693707544,0.009842438720548526
1572.2203274244844,1572.2203274244844,1.0010709984216355,0.009817575575871368
1572.227271920722,1572.227271920722,1.0056323610776963,0.009797232208543175
1572.2342164169131,1572.2342164169131,1.0047396725541922,0.009778688282781358
1572.241160913105,1572.241160913105,0.9989612549043972,0.00977776789582667
1572.2481054092975,1572.2481054092975,0.9768707287052365,0.009747547766234085
1572.2550499054887,1572.2550499054887,0.9900332828855589,0.009746719733120971
1572.2619944016337,1572.2619944016337,0.9897529719700261,0.009716944910038165
1572.2689388976385,1572.2689388976385,1.014032824061612,0.00972551461580301
1572.2758833936439,1572.2758833936439,1.0017646422618687,0.009683226094377417
1572.2828278896488,1572.2828278896488,0.9988459870112232,0.009673679031244732
1572.2897723855622,1572.2897723855622,1.0045455049954035,0.009652214148646959
1572.2967168814275,1572.2967168814275,0.9769020375779631,0.009629146727881725
1572.3036613772929,1572.3036613772929,1.008575155375902,0.009623094475024253
1572.3106058730655,1572.3106058730655,1.0015020885735635,0.00960210638321567
1572.317550368884,1572.317550368884,0.9965475162049631,0.009576183627737522
1572.3244948646097,1572.3244948646097,1.0107832206943888,0.009554578976574626
1572.33143936029,1572.33143936029,0.9919920777454012,0.009548496243941286
1572.3383838558761,1572.3383838558761,1.0053026187239635,0.009529331068185869
1572.345328351509,1572.345328351509,1.0001144886735764,0.009525241798502736
1572.3522728470948,1572.3522728470948,0.9934397451737883,0.00949611353590077
1572.3592173425877,1572.3592173425877,0.9971641786744655,0.009491986861671542
1572.3661618380804,1572.3661618380804,0.9957231203948915,0.009480653750430614
1572.3731063335272,1572.3731063335272,1.0012888284983688,0.009469000648793432
1572.3800508289282,1572.3800508289282,1.0109139377629928,0.009436531479592343
1572.3869953242345,1572.3869953242345,1.0093878441654702,0.00943063784463649
1572.3939398195878,1572.3939398195878,0.9871291973449725,0.009410983732970057
1572.400884314848,1572.400884314848,0.9895901850131391,0.009382567261776938
1572.4078288100611,1572.4078288100611,1.0023898461746474,0.009367677415599183
1572.4147733052746,1572.4147733052746,1.0065713758009498,0.009357962967606426
1572.4217178003496,1572.4217178003496,1.0090156097830514,0.00933210709593257
1572.4286622954237,1572.4286622954237,0.9950293025311192,0.009318771978009219
1572.4356067906372,1572.4356067906372,1.0073823792193894,0.0093232170644016
1572.4425512854777,1572.4425512854777,0.9878886149045819,0.00932445414867902
1572.4494957804586,1572.4494957804586,0.9989138071986623,0.009296508768671235
1572.4564402754859,1572.4564402754859,0.9995085489918821,0.009284987378301383
1572.4633847702805,1572.4633847702805,1.004245083126937,0.00927470712469124
1572.4703292651227,1572.4703292651227,0.9970018349284404,0.00928268241878339
1572.4772737599633,1572.4772737599633,1.0054500365879853,0.009300960780366784
1572.4842182547113,1572.4842182547113,0.9889679813620983,0.009305888100550962
1572.4911627493661,1572.4911627493661,1.0135409293029205,0.009310411995635912
1572.4981072440205,1572.4981072440205,1.0045815691799331,0.00929367477589559
1572.5050517386753,1572.5050517386753,0.9971280962389475,0.00929846713336329
1572.511996233238,1572.511996233238,1.0014971984836012,0.009306375047322147
1572.5189407277528,1572.5189407277528,0.9965661687634615,0.009323789720802837
1572.5258852222682,1572.5258852222682,0.993634863201927,0.009311364061788154
1572.53282971669,1572.53282971669,0.9950454358540866,0.009296954154519064
1572.5397742111118,1572.5397742111118,1.0002550361845608,0.009301908827169938
1572.5467187054405,1572.5467187054405,1.0063032444462259,0.009297273454904605
1572.5536631997695,1572.5536631997695,0.9903918501156934,0.009271668498550665
1572.5606076940528,1572.5606076940528,1.0062372672415858,0.009265753292414284
1572.5675521882417,1572.5675521882417,0.9956496488971947,0.009247558307205736
1572.574496682431,1572.574496682431,1.0029282343476713,0.009241249378520017
1572.5814411765732,1572.5814411765732,1.0150999985308384,0.009237535304781271
1572.5883856706223,1572.5883856706223,0.997974749710861,0.009215214414867008
1572.5953301646252,1572.5953301646252,1.004004231568159,0.009216674892146405
1572.6022746587219,1572.6022746587219,0.9932598155359089,0.009186269253480001
1572.613108069149,1572.613108069149,0.9956681556667857,0.009174479243815528
1572.625885937857,1572.625885937857,0.9942024361925494,0.009165336414038706
1572.6328304317199,1572.6328304317199,1.003649197881536,0.00922013687757579
1572.6397749254897,1572.6397749254897,1.0098450607624665,0.00926294470856264
1572.6467194191669,1572.6467194191669,1.0180426984013953,0.009265912376103972
1572.6536639128449,1572.6536639128449,1.0022344667278353,0.009277303627794335
1572.6606084064285,1572.6606084064285,0.985556789540458,0.009287273839345416
1572.667552900012,1572.667552900012,0.9861277005739162,0.009304269363184665
1572.6744973935026,1572.6744973935026,0.9689138206102111,0.00929693373472677
1572.681441886993,1572.681441886993,0.9728108174053529,0.009298766589185593
1572.6883863804371,1572.6883863804371,0.9837620015858738,0.009292319897738993
1572.695330873788,1572.695330873788,0.9843617591240751,0.009289513181356361
1572.7022753671401,1572.7022753671401,1.0053460408592882,0.009299392496212354
1572.7092198604446,1572.7092198604446,1.0214286348046744,0.009302419262255225
1572.716164353702,1572.716164353702,1.0189366791909509,0.00926256350591203
1572.7231088468666,1572.7231088468666,1.003517087925178,0.009210385281703275
1572.7300533400312,1572.7300533400312,0.9890719896824921,0.009156380131849554
1572.7369978331494,1572.7369978331494,0.9944593801992804,0.009127840745663907
1572.7439423261742,1572.7439423261742,0.9963904307061717,0.009129431279312598
1572.7508868191537,1572.7508868191537,1.0016334094753858,0.009118023364328421
1572.757831312132,1572.757831312132,1.0061542514370196,0.009107296047216785
1572.764775805064,1572.764775805064,1.0047504749289211,0.00911461892594206
1572.7717202979488,1572.7717202979488,1.0021241081198877,0.009093218051536588
1572.778664790741,1572.778664790741,0.9992145068520759,0.009086544817360485
1572.7856092834397,1572.7856092834397,0.9934971765545605,0.00905859593709418
1572.7925537761391,1572.7925537761391,0.9885600895689903,0.009062096224672822
1572.799498268839,1572.799498268839,0.9951270580723538,0.009052402563939126
1572.806442761538,1572.806442761538,1.0052285213709728,0.009047910374473736
1572.8133872541437,1572.8133872541437,1.0188519119946147,0.009049342747977368
