time,time,flux,flux_err
1385.9562293240967,1385.9562293240967,0.9699674134678621,0.056890971426840534
1385.9645629088634,1385.9645629088634,1.0206548841106258,0.05675428467980013
1385.972202028059,1385.972202028059,1.1100096214228052,0.05171550609921906
1385.9791466817455,1385.9791466817455,0.9884610601760879,0.051563591338696646
1385.9860913354335,1385.9860913354335,0.9373883953649063,0.05144990893524241
1385.9930359889345,1385.9930359889345,1.0254664672829161,0.051371695787624905
1385.9999806424346,1385.9999806424346,0.9353387560887052,0.05120390481875433
1386.0069252958428,1386.0069252958428,0.9252881625557062,0.05116247044980434
1386.0138699492509,1386.0138699492509,1.0046050911439381,0.051088917908432376
1386.0208146023783,1386.0208146023783,0.8954744629646534,0.051010664564432984
1386.0277592556006,1386.0277592556006,1.0236235044067263,0.05119771771549651
1386.0347039085427,1386.0347039085427,1.0942874636820545,0.051392663505249805
1386.0416485615776,1386.0416485615776,1.0707386667460475,0.05121069343382206
1386.0485932144268,1386.0485932144268,1.0129296704073758,0.05061100854021185
1386.055537867183,1386.055537867183,0.9907680484094294,0.05045735970946892
1386.0624825198452,1386.0624825198452,0.9358539718144179,0.05038980625645138
1386.069427172415,1386.069427172415,0.9664602498590632,0.0501847689085923
1386.076371824985,1386.076371824985,0.9614401446659689,0.05049704918171215
1386.0833164774613,1386.0833164774613,1.033038115788976,0.051058813637157086
1386.090261129751,1386.090261129751,0.9911257193782843,0.051310144669093935
1386.0972057820418,1386.0972057820418,1.0425156926094143,0.051531289983137205
1386.1041504340526,1386.1041504340526,1.0357501997185312,0.051865780044045705
1386.111095086156,1386.111095086156,0.9652107248035987,0.05151320054069218
1386.1180397380738,1386.1180397380738,1.0053824474457929,0.05139087086044082
1386.1249843899918,1386.1249843899918,0.9741764054010982,0.05160746829648279
1386.1319290418155,1386.1319290418155,1.0278627422600395,0.05205522789348316
1386.1388736935478,1386.1388736935478,0.9472597878743668,0.05215976970422026
1386.145818345093,1386.145818345093,1.0454925508660515,0.05233175986018719
1386.1527629966376,1386.1527629966376,1.0304475844306018,0.05249128559100763
1386.1597076481828,1386.1597076481828,0.9914340833376627,0.05220483089586699
1386.166652299449,1386.166652299449,0.9830020616298759,0.052408578692981246
1386.1735969508077,1386.1735969508077,0.9595273758580056,0.052406181268319384
1386.1805416019802,1386.1805416019802,1.0087263810285756,0.052088376720592175
1386.18748625306,1386.18748625306,0.9313967776288596,0.05198819991066937
1386.1944309040462,1386.1944309040462,1.0340361980898511,0.05165202906755152
1386.201375555032,1386.201375555032,1.0964097054843225,0.05146895487046654
1386.208320205833,1386.208320205833,0.9731409476415118,0.051549876360045974
1386.2152648565402,1386.2152648565402,0.98037525715981,0.05179368269908061
1386.2222095072461,1386.2222095072461,1.0294165893038314,0.051947446277335496
1386.2291541577674,1386.2291541577674,0.9105793310835351,0.05188224293415085
1386.2360988082883,1386.2360988082883,1.0901994592109456,0.051838456920460095
1386.243043458715,1386.243043458715,1.031260281746777,0.051749163096492155
1386.24998810905,1386.24998810905,0.9961921884125546,0.05173171327177708
1386.2569327591054,1386.2569327591054,0.9816694567569012,0.05174296423705492
1386.2638774095326,1386.2638774095326,0.9167300401729154,0.05186119529607448
1386.270822059494,1386.270822059494,0.973081569043417,0.05191285525739951
1386.2777667094565,1386.2777667094565,1.0079217103667975,0.05170499078234432
1386.2847113594185,1386.2847113594185,1.0055531954335089,0.0516279892911503
1386.2916560090075,1386.2916560090075,1.0719593885520484,0.05143888747891634
1386.2986006588765,1386.2986006588765,1.0168582214304618,0.05178354567299699
1386.305545308373,1386.305545308373,0.9330026495109933,0.052180638815285764
1386.3124899579614,1386.3124899579614,1.034086717354884,0.051662530277550425
1386.3194346074583,1386.3194346074583,1.0036819109444062,0.051415657368280264
1386.3263792566756,1386.3263792566756,0.9376330292556417,0.051175982964818276
1386.3333239060778,1386.3333239060778,0.9451791879563078,0.05112916431146958
1386.3402685552016,1386.3402685552016,1.0642835205141241,0.05103000620852851
1386.347213204326,1386.347213204326,1.0082471186012332,0.05091939364903836
1386.3541578533564,1386.3541578533564,0.9147774325666134,0.0507985093252849
1386.3611025022935,1386.3611025022935,0.9499805234929214,0.050879456206859144
1386.3686027230422,1386.3686027230422,1.085211512251653,0.050893402388828245
1386.3763807296023,1386.3763807296023,1.0623255792864186,0.05090363808667693
1386.38332537826,1386.38332537826,1.0017343649457868,0.05096694915175424
1386.3902700268252,1386.3902700268252,0.9881924430938291,0.05069761968795146
1386.3972146752974,1386.3972146752974,1.0616224230393034,0.05119041404323055
1386.4041593236752,1386.4041593236752,1.0100045999944065,0.05140267715149238
1386.4111039720542,1386.4111039720542,0.9296599345948234,0.05127183356040323
1386.4180486202472,1386.4180486202472,0.9659133947964355,0.050917961918359345
1386.4249932683456,1386.4249932683456,0.9506957149592761,0.050935558132608784
1386.4319379164451,1386.4319379164451,1.0117691629927146,0.05134347707054064
1386.4388825643587,1386.4388825643587,0.9878820165195721,0.05119517547094662
1386.4458272123643,1386.4458272123643,1.0108434102471027,0.05074328219955898
1386.4527718600912,1386.4527718600912,1.0300256395240852,0.050491119662022674
1386.4597165077248,1386.4597165077248,0.9537422455306789,0.05020335186481576
1386.4666611553585,1386.4666611553585,1.1093004625691818,0.049964524436338885
1386.4736058029916,1386.4736058029916,1.04376953407945,0.04950619599892235
1386.4805504504395,1386.4805504504395,0.9237739247034652,0.049360168528628484
1386.487495097794,1386.487495097794,0.9526189190529053,0.04942277729704083
1386.494439745054,1386.494439745054,1.0396278061861057,0.04955175841623974
1386.5013843923155,1386.5013843923155,1.0520822092730502,0.04964251308663003
1386.508329039391,1386.508329039391,0.8618447300026368,0.049590197801658235
1386.5152736863722,1386.5152736863722,0.9879137644259742,0.04975870065850717
1386.5222183333535,1386.5222183333535,0.9853812692692825,0.050020378447975924
1386.5291629801493,1386.5291629801493,1.0223101403348678,0.050290591116570485
1386.5361076270378,1386.5361076270378,0.9837204709734333,0.05047722969654024
1386.5430522736465,1386.5430522736465,1.043404553908675,0.05031163220399707
1386.5499969203495,1386.5499969203495,0.9878762820725301,0.05042410679534156
1386.5569415667728,1386.5569415667728,0.9886868658789284,0.05093555051238761
1386.5641639991002,1386.5641639991002,1.0309997930235606,0.051208344682970176
1386.5722197888654,1386.5722197888654,0.9781018558926444,0.050934098789821206
1386.5791644351023,1386.5791644351023,0.9849299987591869,0.05083849111340365
1386.5861090813382,1386.5861090813382,0.9586708765123528,0.05117000217064858
1386.5930537273887,1386.5930537273887,1.063917940539992,0.051545229062916365
1386.5999983733464,1386.5999983733464,0.9768527653825896,0.051871056124677926
1386.6069430193038,1386.6069430193038,1.0002839655035307,0.05230693002698267
1386.6138876650737,1386.6138876650737,0.9821663072786603,0.052479635248238135
1386.6208323108453,1386.6208323108453,1.0126704075865998,0.05248213287978328
1386.6277769565236,1386.6277769565236,1.1305703466777048,0.05267722658325974
1386.6347216020145,1386.6347216020145,0.9101192187438333,0.05263819759582532
1386.6416662476927,1386.6416662476927,0.9730422813688285,0.0526075504766769
1386.6486108930912,1386.6486108930912,0.9213540292818841,0.05263173432023638
1386.655555538396,1386.655555538396,1.033617179257249,0.05266322482258364
1386.6625001837015,1386.6625001837015,1.018980027243364,0.05264591418988133
1386.6694448286348,1386.6694448286348,1.0081608977103294,0.052430963227576774
1386.6763894738465,1386.6763894738465,1.007981935472348,0.052318156769112834
1386.683334118686,1386.683334118686,0.9822267968871726,0.05232494351601363
1386.690278763712,1386.690278763712,1.038455070105877,0.052286229944613426
1386.6972234085522,1386.6972234085522,1.0089649495397868,0.052167265827826936
1386.704168053298,1386.704168053298,1.0190914208916355,0.05164821229681933
1386.7111126978584,1386.7111126978584,0.9870404912206137,0.05174480469587296
1386.718057342419,1386.718057342419,0.9891076552013193,0.05196140454258935
1386.725001986979,1386.725001986979,0.9640122461328715,0.05218445539056969
1386.7319466313525,1386.7319466313525,1.0454433547567878,0.05208464167523237
1386.7388912756342,1386.7388912756342,0.9685300937042683,0.052056982612023385
1386.7458359198217,1386.7458359198217,0.9757818163811349,0.05199060366476764
1386.752780563916,1386.752780563916,1.0271234524424326,0.05202087975892021
1386.7597252081036,1386.7597252081036,1.0062019972733993,0.05192092102516345
1386.7666698521057,1386.7666698521057,1.011143394125471,0.0517989342657504
1386.7738922817327,1386.7738922817327,0.9431333887287077,0.0513848744476524
1386.7819480685173,1386.7819480685173,1.0057999239754591,0.05126611756834384
1386.7888927122399,1386.7888927122399,1.0489279099541156,0.05122752050679606
1386.7958373559618,1386.7958373559618,1.0198896642332205,0.051213158813937995
1386.8027819994968,1386.8027819994968,0.9605440827774606,0.05094198290727864
1386.80972664294,1386.80972664294,0.9856213879091944,0.051055465814385005
1386.81667128629,1386.81667128629,1.022123023858205,0.051062422712737233
1386.823615929639,1386.823615929639,1.0154155141433092,0.05122871286925386
1386.8305605728024,1386.8305605728024,1.0738567167530877,0.05114155803937874
1386.8375052160588,1386.8375052160588,1.008955167803936,0.05096399292659143
1386.8444498590356,1386.8444498590356,0.9393833696447207,0.05067247579345818
1386.8513945020127,1386.8513945020127,0.9964321961905235,0.05073476623849734
1386.85833914499,1386.85833914499,1.0113090766326387,0.05066788857011889
1386.8652837875948,1386.8652837875948,1.0162875967414209,0.05058872792900073
1386.872228430478,1386.872228430478,0.9384405328546597,0.05055767050052305
1386.8791730729895,1386.8791730729895,1.042581956584673,0.050734808337125584
1386.8861177155945,1386.8861177155945,1.0312990413368184,0.050901299954056664
1386.893062358105,1386.893062358105,1.0578012757387065,0.050726644020370484
1386.9000070004302,1386.9000070004302,0.9871693410815834,0.05059791477888822
1386.9069516427555,1386.9069516427555,1.024583977866014,0.05056043269463782
1386.9138962848947,1386.9138962848947,0.9066274594726964,0.05061900696840762
1386.9208409271257,1386.9208409271257,0.9809205959388659,0.05086596029584477
1386.927785569172,1386.927785569172,1.0060619849653953,0.05118940331194303
1386.9347302111248,1386.9347302111248,0.9991980693229114,0.05126867209710634
1386.9416748531703,1386.9416748531703,1.0031907703290779,0.051572665437512676
1386.9486194949363,1386.9486194949363,1.0403684039672216,0.05158666583971004
1386.9555641365166,1386.9555641365166,1.0294435150205001,0.051474298446149536
1386.962508778283,1386.962508778283,0.9404300684108515,0.05123607470232753
1386.9694534198627,1386.9694534198627,0.9751879393478333,0.05122947725327655
1386.9763980613498,1386.9763980613498,1.0325197889190758,0.05144415509483587
1386.9841760597149,1386.9841760597149,0.9733754391355868,0.05129478375719175
1386.9916762722664,1386.9916762722664,0.9904463817390008,0.051383153825425375
1386.9986209134745,1386.9986209134745,1.0724528064847167,0.05117830523953458
1387.0055655545893,1387.0055655545893,1.0031118417013094,0.0511607025119575
1387.0125101957033,1387.0125101957033,0.9925045612183248,0.051207500082706484
1387.0194548366312,1387.0194548366312,0.9809473603485339,0.05138087622331529
1387.0263994775594,1387.0263994775594,0.9434308494797481,0.05126119466756331
1387.0333441182088,1387.0333441182088,0.9967963516871594,0.05127699684771213
1387.040288759136,1387.040288759136,1.0673586696079613,0.05162775383394982
1387.047233399785,1387.047233399785,1.0442860213178975,0.05195757627139462
1387.0541780401545,1387.0541780401545,0.9887746163189615,0.052041131399364414
1387.061122680803,1387.061122680803,1.0042889417018714,0.05246965587149775
1387.068067321172,1387.068067321172,0.9433107255474986,0.05234511744066093
1387.0750119615418,1387.0750119615418,0.996079381535228,0.051919563839658955
1387.081956601725,1387.081956601725,1.0040456834160518,0.05134549480805922
1387.0889012419073,1387.0889012419073,0.9845095048683298,0.051434558015363174
1387.0958458819973,1387.0958458819973,0.9817224698263558,0.0517301678182301
1387.1027905219948,1387.1027905219948,0.968874968378638,0.051989637264283975
1387.1097351618982,1387.1097351618982,1.0309977467529565,0.052235762578692155
1387.1166798017084,1387.1166798017084,1.0897752054989533,0.05192361793387511
1387.1236244414258,1387.1236244414258,0.999751776630957,0.05170076126634078
1387.130569081144,1387.130569081144,1.0769069429769569,0.05177942749061805
1387.1375137207672,1387.1375137207672,1.006795594336561,0.051738503885721696
1387.1444583602986,1387.1444583602986,0.858658494580862,0.05146604372417213
1387.151402999551,1387.151402999551,0.9437572220647261,0.05138621538865777
1387.1583476389887,1387.1583476389887,1.0027865520356167,0.0510463498000661
1387.16529227824,1387.16529227824,1.013923314749005,0.0508931231714021
1387.172236917399,1387.172236917399,0.970558024647454,0.050967581677741555
1387.179181556558,1387.179181556558,1.0750594189826381,0.051075899798665156
1387.1861261955298,1387.1861261955298,0.9411636501666726,0.05101092854397825
1387.1930708344087,1387.1930708344087,1.0358878682177142,0.050947798442457906
1387.2000154733812,1387.2000154733812,1.1209147784380773,0.05073565233063206
1387.2069601120747,1387.2069601120747,0.9760549018029737,0.05017099101135022
1387.21390475086,1387.21390475086,0.9772022805148625,0.05001799133772339
1387.22084938946,1387.22084938946,0.9582967802089641,0.050472276655500026
1387.2277940279669,1387.2277940279669,0.9528644880337964,0.051118554164620425
1387.234738666287,1387.234738666287,0.9883728184978293,0.05167579885457564
1387.2416833046075,1387.2416833046075,0.9926503678083405,0.05240426761567028
1387.2486279429284,1387.2486279429284,1.0550619440034337,0.05300900269412649
1387.255572581249,1387.255572581249,1.07319506774675,0.053217367672953896
1387.2625172194755,1387.2625172194755,1.0113075480045004,0.05386025748191596
1387.2694618574235,1387.2694618574235,1.014934766009327,0.054193557456799754
1387.276406495372,1387.276406495372,0.9350322672194092,0.05417469045250489
1387.2833511333195,1387.2833511333195,0.9488383918758212,0.054326922999115956
1387.2902957710808,1387.2902957710808,0.9209235727225515,0.054185277583981284
1387.2972404088428,1387.2972404088428,1.0448716284530375,0.05419603944142774
1387.3041850465115,1387.3041850465115,1.0125426187882791,0.054239147065386496
1387.3119630405913,1387.3119630405913,1.044358043880154,0.05385427237919207
1387.3205743909914,1387.3205743909914,0.9994570709810768,0.053568251940216485
1387.3277968138207,1387.3277968138207,1.0565264704952921,0.052974144013884915
1387.3355748077147,1387.3355748077147,0.9628014223594986,0.052367762655990704
1387.3430750157968,1387.3430750157968,1.0062259723894722,0.05179652081656454
1387.3502974384396,1387.3502974384396,1.051182642580061,0.051379134370016386
1387.3583532173081,1387.3583532173081,1.0131287542886267,0.0513892330128371
1387.3652978543241,1387.3652978543241,0.9936561659121128,0.05165601242848685
1387.3722424911548,1387.3722424911548,0.9893180133532233,0.051726630399627306
1387.3791871278922,1387.3791871278922,1.078692831992177,0.05187356906248709
1387.3861317646292,1387.3861317646292,0.981070345979162,0.05171147195314809
1387.3930764011798,1387.3930764011798,0.9644280390386483,0.051604771255035965
1387.4000210377308,1387.4000210377308,0.9612434318883608,0.0516180428409961
1387.406965674189,1387.406965674189,1.0216355401675927,0.05179084791410784
1387.4139103106459,1387.4139103106459,0.9080666986396769,0.051928224505049816
1387.4208549468246,1387.4208549468246,1.028983615191374,0.05197514916086414
1387.4277995831897,1387.4277995831897,1.0293461000227095,0.051868933181739754
1387.4347442191815,1387.4347442191815,1.0203304888612275,0.05175013545460723
1387.4416888551734,1387.4416888551734,1.0186549026767746,0.051564677067968426
1387.448633491166,1387.448633491166,1.0354283126122827,0.05133478882936636
1387.4555781271583,1387.4555781271583,0.9366003637312593,0.050941556795711884
1387.4625227630565,1387.4625227630565,1.0222815853608744,0.05086061858921383
1387.4694673986762,1387.4694673986762,0.9679191072234575,0.050662558451234185
1387.4764120343893,1387.4764120343893,0.9786105619289609,0.050489752292643006
1387.483356669916,1387.483356669916,1.0228429757507675,0.05060664558111176
1387.4903013054416,1387.4903013054416,1.0066774065992006,0.050736811155230675
1387.4972459408752,1387.4972459408752,1.011697627719731,0.050882016693082746
1387.5041905761227,1387.5041905761227,1.0284062169275825,0.050651286846487655
1387.5111352114623,1387.5111352114623,1.0002200421986756,0.051040907326966256
1387.5180798466165,1387.5180798466165,0.9962034984305183,0.05075420888608193
1387.5250244817703,1387.5250244817703,0.9981055727711393,0.05059052609901984
1387.5319691167383,1387.5319691167383,1.0031082265952578,0.05056998540703067
1387.5389137517056,1387.5389137517056,0.9739600928447558,0.050564364827680786
1387.54585838658,1387.54585838658,0.9647526602297344,0.050602123979655224
1387.5528030213623,1387.5528030213623,1.0124781563583656,0.050793566220769616
1387.5597476559574,1387.5597476559574,0.9929764143462675,0.05078146236311337
1387.5666922906448,1387.5666922906448,1.006229653659628,0.050843703164990116
1387.5736369252402,1387.5736369252402,1.0013333805978228,0.050698636369841135
1387.5805815596495,1387.5805815596495,1.0885638204205372,0.050745905183824734
1387.5875261940582,1387.5875261940582,0.9721693256536703,0.050685500760325505
1387.5944708282802,1387.5944708282802,1.0025563190949913,0.050685172107832334
1387.6014154625962,1387.6014154625962,0.9376101127652994,0.050374976462243
1387.6083600967263,1387.6083600967263,0.9876886005321538,0.05058193715715794
1387.615304730762,1387.615304730762,1.0147076858105195,0.051037975707298344
1387.622249364798,1387.622249364798,1.0293442006634652,0.05135300817729743
1387.6291939985556,1387.6291939985556,0.9750750794803033,0.05175830828806335
1387.6361386326853,1387.6361386326853,1.026345128025768,0.051765316427527366
1387.6430832663482,1387.6430832663482,1.0354050631718714,0.05211723873905701
1387.6500279000124,1387.6500279000124,1.0072951234727074,0.0517427704626815
1387.6569725336767,1387.6569725336767,1.0036364741954382,0.05176877073009119
1387.663917166968,1387.663917166968,0.9140760318375953,0.051623493415479726
1387.670861800538,1387.670861800538,0.9717833666970407,0.05164999066230386
1387.6778064337364,1387.6778064337364,0.9594333567596909,0.051823886018052975
1387.6847510671214,1387.6847510671214,1.058221765290464,0.051956616840465
1387.691695700319,1387.691695700319,1.0245669077999326,0.051948722122973946
1387.6986403334236,1387.6986403334236,1.0520101044202517,0.051964915799270386
1387.705584966436,1387.705584966436,1.0023844877307269,0.05199892852888878
1387.7125295994483,1387.7125295994483,1.0039376349890667,0.051986637226096255
1387.7194742322733,1387.7194742322733,0.9797223374485183,0.05193687369355547
1387.726418865099,1387.726418865099,1.0392960781406284,0.051886245352579394
1387.7333634978318,1387.7333634978318,0.9345173321817553,0.05180075479208431
1387.7403081305647,1387.7403081305647,1.0089139358226407,0.051762995407248914
1387.7472527630166,1387.7472527630166,1.005801346561209,0.05168896784058583
1387.7722534396432,1387.7722534396432,0.9959325102269021,0.050413465144761374
1387.77919807191,1387.77919807191,0.9781613901937292,0.050983876766555344
1387.786142703991,1387.786142703991,0.9820165138471616,0.05150941840181676
