time,time,flux,flux_err
1354.1178633902211,1354.1178633902211,1.0003848542709488,0.0006879358894045287
1354.1259654422688,1354.1259654422688,0.9994810774819992,0.000627731619079393
1354.132910058236,1354.132910058236,0.9998804498938206,0.0006276004727119007
1354.139854674064,1354.139854674064,0.9993729983307281,0.0006272737138440501
1354.1467992897055,1354.1467992897055,1.0001736456623402,0.0006274370419539776
1354.153743905347,1354.153743905347,1.0004658267149453,0.0006272320884879285
1354.1606885208025,1354.1606885208025,0.9995043101896137,0.0006270739587924372
1354.1676331361182,1354.1676331361182,1.0003553834013381,0.0006272437487904657
1354.1745777513402,1354.1745777513402,1.0009741789238034,0.0006271979049175151
1354.1815223664703,1354.1815223664703,0.9999605903419135,0.000626990569235491
1354.188466981413,1354.188466981413,0.9995633125322201,0.0006269361772159123
1354.195411596263,1354.195411596263,0.9997821680882838,0.0006268629190594599
1354.2023562110198,1354.2023562110198,1.0004119135133043,0.0006269561149824911
1354.2093008255904,1354.2093008255904,1.0003045818409277,0.0006269848720570103
1354.2162454400677,1354.2162454400677,0.9996316637354127,0.0006268133891280568
1354.223190054499,1354.223190054499,0.9992051731374195,0.0006268047814752163
1354.230134668743,1354.230134668743,1.000523385975583,0.0006269341695432867
1354.2370792828947,1354.2370792828947,0.998942514038917,0.0006266241349618489
1354.2440238969066,1354.2440238969066,1.000030055483539,0.0006268360308682741
1354.2509685107786,1354.2509685107786,1.000156573573318,0.0006267340240241308
1354.2579131246039,1354.2579131246039,0.9998448022442666,0.0006267917809355838
1354.264857738243,1354.264857738243,1.0003970302706526,0.0006269860351061954
1354.2718023517893,1354.2718023517893,0.9998089210916861,0.0006267390349461071
1354.2787469652424,1354.2787469652424,0.9993528370964524,0.000626684122543026
1354.2856915785555,1354.2856915785555,1.001042640936993,0.0006268946664581476
1354.2926361917757,1354.2926361917757,1.0003682674574415,0.0006268004870322726
1354.2995808048095,1354.2995808048095,1.0002541549775292,0.0006269696787392452
1354.3065254177968,1354.3065254177968,0.998510284173306,0.000626489340783341
1354.3134700306914,1354.3134700306914,0.9994872231184306,0.00062669934461449
1354.3204146434455,1354.3204146434455,1.0005499512128795,0.0006267431664183134
1354.3273592560138,1354.3273592560138,1.0006876601302879,0.000626842272402854
1354.3343038685355,1354.3343038685355,0.9990843825062228,0.0006264941060434988
1354.341248480917,1354.341248480917,0.9995388116477685,0.0006265595320740583
1354.3481930931598,1354.3481930931598,1.0006639796199384,0.0006267773848977257
1354.355137705355,1354.355137705355,1.0003201395355172,0.0006267372505549024
1354.3620823174113,1354.3620823174113,1.000446592257184,0.0006268167587383829
1354.369026929328,1354.369026929328,1.000109121888006,0.0006264898681166448
1354.3759715411506,1354.3759715411506,0.999313471683096,0.0006263556420330845
1354.3829161529277,1354.3829161529277,1.000501093193751,0.0006266677610576591
1354.389860764471,1354.389860764471,1.0002752658265561,0.0006266518260162145
1354.3968053760148,1354.3968053760148,0.9999180939625413,0.0006266133935601334
1354.403749987326,1354.403749987326,0.999925000588169,0.0006265547253033586
1354.41069459859,1354.41069459859,1.0003474540837645,0.0006267345948624559
1354.4176392097613,1354.4176392097613,0.9991490309845347,0.0006264174317566812
1354.424583820793,1354.424583820793,1.0000192848482423,0.0006264936120573602
1354.4315284316845,1354.4315284316845,0.9990707031015601,0.0006263692523410285
1354.4384730425766,1354.4384730425766,0.9999093178230087,0.0006264072410115375
1354.4454176532354,1354.4454176532354,1.0003258081834603,0.0006263611001180729
1354.4523622638947,1354.4523622638947,1.000211394281674,0.0006264344027114572
1354.4593068743209,1354.4593068743209,1.0007817264571468,0.0006265532299867872
1354.4662514847005,1354.4662514847005,1.0021026950532241,0.0006268206327434926
1354.4731960950335,1354.4731960950335,0.9994936057715298,0.0006261670829664789
1354.4801407051805,1354.4801407051805,1.0008969149499982,0.0006262616226294301
1354.4870853152333,1354.4870853152333,0.9991171411343824,0.0006259298228868934
1354.4940299251946,1354.4940299251946,0.998954922396406,0.0006257804104948894
1354.5009745350153,1354.5009745350153,1.0001379792614802,0.0006261137914711833
1354.5079191447892,1354.5079191447892,1.000476743022445,0.0006262244720055004
1354.514863754424,1354.514863754424,1.0002689843799923,0.0006261516772054427
1354.5218083639188,1354.5218083639188,1.0002703229935543,0.000626268427224912
1354.5287529733673,1354.5287529733673,1.0001597620283094,0.0006263760308791198
1354.5356975826758,1354.5356975826758,0.9993143112659908,0.0006259923144728025
1354.5426421918912,1354.5426421918912,1.0004914027326237,0.0006263987203484059
1354.549586800967,1354.549586800967,1.0009664520443997,0.0006264815002264741
1354.5565314099963,1354.5565314099963,0.999014042094258,0.0006260073003013824
1354.5634760188389,1354.5634760188389,0.999784861738175,0.0006261723736392291
1354.5704206276355,1354.5704206276355,0.9987128787724006,0.0006260650358544596
1354.577365236385,1354.577365236385,1.0007177150746969,0.0006263113771188585
1354.5843098449022,1354.5843098449022,1.0003278769555877,0.0006262765203903142
1354.5912544533726,1354.5912544533726,0.9998916476243037,0.0006262251026271754
1354.5981990617965,1354.5981990617965,1.000134798027989,0.000626233240852843
1354.6051436700807,1354.6051436700807,0.999893038517216,0.0006261654937055153
1354.6120882782247,1354.6120882782247,1.0006967193123062,0.0006263084096625244
1354.619032886276,1354.619032886276,0.9994390642161364,0.0006259342127130252
1354.6259774943276,1354.6259774943276,1.0014144435845747,0.000626388975657004
1354.632922102146,1354.632922102146,1.000149919847679,0.0006260194762751577
1354.6398667098713,1354.6398667098713,0.9996913438075776,0.00062606020079397
1354.6468113175501,1354.6468113175501,1.0003239664230537,0.0006261233997932089
1354.6537559251356,1354.6537559251356,0.9993050379312585,0.0006259881535864388
1354.6607005325818,1354.6607005325818,0.9999804329919512,0.0006261098240975233
1354.6676451399812,1354.6676451399812,1.0000104295636532,0.0006261171992846887
1354.6745897472406,1354.6745897472406,0.99985043105194,0.0006261116295130031
1354.6815343544076,1354.6815343544076,1.0007825071581489,0.0006263867048061512
1354.6884789614342,1354.6884789614342,0.9997750075214252,0.0006260142977955096
1354.6954235684145,1354.6954235684145,1.0003934103501968,0.0006260692770673657
1354.702368175255,1354.702368175255,0.9993204796277677,0.0006259146060004405
1354.7093127820958,1354.7093127820958,1.0001611289293728,0.0006260920999996719
1354.7162573887501,1354.7162573887501,0.9995741082195966,0.0006260299439369944
1354.7232019953112,1354.7232019953112,0.999684228206722,0.0006258775158847187
1354.730146601826,1354.730146601826,1.0001707367575747,0.0006259311884584148
1354.737091208201,1354.737091208201,1.000421524619338,0.0006260032954777544
1354.7440358144827,1354.7440358144827,1.0001177464036026,0.0006257995272562675
1354.750980420671,1354.750980420671,0.9997947758654366,0.000625757304323447
1354.7579250267204,1354.7579250267204,0.9996221624866516,0.0006257072146956014
1354.7648696327692,1354.7648696327692,1.00061438714542,0.0006259785567167412
1354.7718142386786,1354.7718142386786,1.0003452498949161,0.0006259508724769727
1354.778758844448,1354.778758844448,0.9990697921023207,0.0006256378777859426
1354.785703450171,1354.785703450171,1.0008212503760372,0.000625925334041194
1354.7926480558008,1354.7926480558008,1.0002319378174784,0.0006258687437825155
1354.7995926613376,1354.7995926613376,0.9994650773672575,0.000625845921309398
1354.8065372667347,1354.8065372667347,0.9998883737082214,0.0006257405881186083
1354.813481872085,1354.813481872085,1.0002031470095125,0.0006258945466751482
1354.8204264773424,1354.8204264773424,0.9994727005453704,0.0006257811025157905
1354.82737108246,1354.82737108246,0.9999629225594674,0.0006260314347405285
1354.8343156875312,1354.8343156875312,1.0000717064088267,0.0006259843997376089
1354.8412602924625,1354.8412602924625,0.9993186699298692,0.0006258149381299197
1354.8482048973478,1354.8482048973478,1.0005516911571624,0.0006259883498626491
1354.855149502139,1354.855149502139,1.000329135251922,0.0006259961519529416
1354.8620941068377,1354.8620941068377,1.0007331242533015,0.0006259350610765362
1354.8690387113968,1354.8690387113968,1.0003040136347385,0.0006258149089242577
1354.8759833159554,1354.8759833159554,1.0001194536028954,0.0006258725014607403
1354.8829279202814,1354.8829279202814,0.999954922624479,0.0006258238411827782
1354.889872524654,1354.889872524654,0.9992806677735689,0.0006256246926687124
1354.8968171288402,1354.8968171288402,0.999646043775648,0.0006257810967423811
1354.9037617329805,1354.9037617329805,0.9986417453302933,0.0006256053175399421
1354.9107063370732,1354.9107063370732,1.000608509070841,0.0006257611932440977
1354.9176509410267,1354.9176509410267,1.0003810290638313,0.0006260405643888665
1354.9245955448405,1354.9245955448405,1.0009221704170446,0.0006259725400010632
1354.9315401486078,1354.9315401486078,1.0001072497367298,0.0006258517421759884
1354.9395958889181,1354.9395958889181,0.9997622544549764,0.0006258666959487411
1354.9468182766352,1354.9468182766352,1.0000572183889607,0.0006258264611356887
1354.9537628800294,1354.9537628800294,0.9996516412925777,0.0006257420657670303
1354.9607074834244,1354.9607074834244,0.9999472210908484,0.0006258927589258096
1354.9676520868193,1354.9676520868193,1.0003824637001837,0.0006259628139094336
1354.9745966900273,1354.9745966900273,1.000156741714566,0.0006260605785410196
1354.9815412931894,1354.9815412931894,0.9994884286108594,0.0006258058142411575
1354.9884858962118,1354.9884858962118,0.9990569166449959,0.0006257862499107521
1354.9954304991873,1354.9954304991873,1.0005450873909223,0.0006260451508680649
1355.0023751021163,1355.0023751021163,1.0008359025990987,0.0006260035825572777
1355.0093197048589,1355.0093197048589,0.9994335194971378,0.0006257985964756831
1355.0162643075555,1355.0162643075555,0.9992063173461798,0.0006256606906462233
1355.023208910158,1355.023208910158,1.0008088875978922,0.0006260415281014258
1355.0301535126682,1355.0301535126682,0.9999775879607753,0.0006257934217897463
1355.0370981151318,1355.0370981151318,1.0012113637841724,0.0006260639726383706
1355.0440427174087,1355.0440427174087,0.9991377477128294,0.00062560457432408
1355.0509873196395,1355.0509873196395,0.9997856913558444,0.0006256282383569594
1355.0579319218698,1355.0579319218698,1.000147661056421,0.0006258560582401346
1355.064876524007,1355.064876524007,0.9997217077156136,0.0006254388157695274
1355.0718211260053,1355.0718211260053,1.0002664890099595,0.0006256830943000253
1355.0787657279561,1355.0787657279561,0.9995754447547632,0.0006255044512408776
1355.0857103297674,1355.0857103297674,1.000631980475054,0.00062549122223848
1355.092654931579,1355.092654931579,0.9992686612752862,0.0006254127920062182
1355.0995995332044,1355.0995995332044,0.9997730589714289,0.000625545781561018
1355.1065441347828,1355.1065441347828,1.000333892560588,0.0006255966635559505
1355.113488736315,1355.113488736315,1.0001768135048017,0.0006255438214471311
1355.1204333377073,1355.1204333377073,1.0002111592630718,0.0006255555818652473
1355.127377939053,1355.127377939053,1.0004661474778132,0.0006257661235119502
1355.134322540306,1355.134322540306,1.0002489020303338,0.0006255609811804046
1355.1412671414187,1355.1412671414187,0.9993747155800665,0.0006253575242238216
1355.1482117424853,1355.1482117424853,1.0006491975621128,0.0006257724798949679
1355.1551563435519,1355.1551563435519,0.9993854136329174,0.0006254771149107735
1355.1621009444316,1355.1621009444316,0.9998314931627699,0.0006255275944092268
1355.169045545312,1355.169045545312,0.9986346602533059,0.000625486359452997
1355.1759901460523,1355.1759901460523,1.0003035594849936,0.0006257233774935396
1355.1829347466996,1355.1829347466996,1.0007278541898477,0.0006258011864174178
1355.1898793473006,1355.1898793473006,1.0003553721055511,0.0006257874617108951
1355.1968239478078,1355.1968239478078,1.0000446220969947,0.0006255968560834539
1355.2037685482223,1355.2037685482223,0.9999222109209123,0.0006256125059358399
1355.2107131485905,1355.2107131485905,1.0004842726056125,0.0006257306521096847
1355.2176577488185,1355.2176577488185,0.999553817664208,0.0006255674878228186
1355.2246023490004,1355.2246023490004,0.9990701934205172,0.0006258816048621674
1355.2315469490889,1355.2315469490889,0.9997250521913322,0.0006254740205832744
1355.238491549131,1355.238491549131,1.0004431533009002,0.0006258128506206136
1355.2454361490331,1355.2454361490331,1.0000958926855747,0.0006257859789085944
1355.252380748935,1355.252380748935,0.9994565721519193,0.0006256756365548346
1355.2593253486514,1355.2593253486514,0.9994588856019544,0.0006255805416268239
1355.2662699483674,1355.2662699483674,1.001082775804901,0.0006260424122410025
1355.27321454799,1355.27321454799,0.9998584602183354,0.0006259175020948489
1355.2801591475195,1355.2801591475195,1.000104889026595,0.0006257078434601636
1355.2871037470027,1355.2871037470027,0.9999232088556844,0.0006257266986148212
1355.2940483463003,1355.2940483463003,1.0010719613482246,0.0006258972200396544
1355.3009929456432,1355.3009929456432,0.9998157786532742,0.0006257470749729501
1355.307937544847,1355.307937544847,1.0001959643722775,0.0006256645980303187
1355.3148821440043,1355.3148821440043,0.9992608304185012,0.0006255279283250899
1355.3218267430216,1355.3218267430216,0.9996885084350206,0.0006255168091912689
1355.328771342039,1355.328771342039,1.00004431089608,0.0006255741071642127
1355.3362715088629,1355.3362715088629,1.0005236637875818,0.0006256478758550414
1355.3440494594959,1355.3440494594959,0.9994499159174683,0.0006254313043820503
1355.3509940582342,1355.3509940582342,1.000273317497343,0.0006255855433980504
1355.3579386569256,1355.3579386569256,1.001016747419276,0.0006256662788263884
1355.3648832554775,1355.3648832554775,1.0007774209459872,0.0006256134065588859
1355.3718278539359,1355.3718278539359,0.9994339053241242,0.0006253630561385469
1355.3787724523484,1355.3787724523484,0.9993947811733565,0.0006251920207084657
1355.3857170506676,1355.3857170506676,0.9997355665201416,0.000625352743328076
1355.3926616489862,1355.3926616489862,0.9994809137040004,0.0006253841760301717
1355.400439598921,1355.400439598921,0.9995941838374971,0.0006253633729740049
1355.4079397648595,1355.4079397648595,0.9999218881868248,0.0006253702189151404
1355.414884362853,1355.414884362853,1.0010966418878073,0.000625530861515994
1355.421828960799,1355.421828960799,1.000513985109927,0.0006256342118844676
1355.4287735586524,1355.4287735586524,0.9997866391677042,0.0006253027678204656
1355.4357181564594,1355.4357181564594,1.000477462759363,0.0006253842281928869
1355.4426627541263,1355.4426627541263,0.9992321152097793,0.0006251122861827909
1355.4496073517003,1355.4496073517003,0.9999456336147556,0.000625372328634853
1355.4565519492742,1355.4565519492742,0.9998432252477499,0.0006253361661844919
1355.463496546848,1355.463496546848,0.9998485912224728,0.0006254528250516192
1355.4704411441894,1355.4704411441894,1.000215800727053,0.0006255562073206621
1355.477385741484,1355.477385741484,0.9996249092783532,0.0006254443476805497
1355.4843303387786,1355.4843303387786,1.0009157122071914,0.0006258034332066694
1355.4912749359332,1355.4912749359332,0.9992727762992892,0.0006254248032811655
1355.4982195330417,1355.4982195330417,1.0009193175328837,0.0006255029405113567
1355.5051641300101,1355.5051641300101,0.9992565560018118,0.0006253304330229917
1355.512108727025,1355.512108727025,0.9996702608109004,0.0006253474875136444
1355.5190533238542,1355.5190533238542,0.9995196614133628,0.000625479189195544
1355.5259979206828,1355.5259979206828,1.0009613322873292,0.0006256367706081614
1355.532942517372,1355.532942517372,1.00035949802712,0.0006257285433925024
1355.5398871140617,1355.5398871140617,0.9994270032503989,0.0006252945058454016
1355.5468317105642,1355.5468317105642,1.0004477464937742,0.0006254398253553587
1355.5537763071604,1355.5537763071604,1.0007755288820839,0.0006257154986177536
1355.5607209035704,1355.5607209035704,0.9983722633163243,0.0006251977174671672
1355.5676654998867,1355.5676654998867,0.9996320380763504,0.0006253043865626227
1355.5746100961574,1355.5746100961574,1.0008755652549135,0.0006256871174306034
1355.5815546923338,1355.5815546923338,0.99915434479149,0.0006253776269006707
1355.5884992884644,1355.5884992884644,1.0002042548960985,0.0006253593182127782
1355.595443884548,1355.595443884548,1.0003988321111734,0.0006254752624663033
1355.6023884804922,1355.6023884804922,0.9997970909771553,0.0006254327764694354
1355.60933307639,1355.60933307639,1.0010437278211193,0.0006255104733588014
1355.6162776722408,1355.6162776722408,1.0000861609867289,0.0006254174054274751
1355.6232222679987,1355.6232222679987,0.9999496815366655,0.0006254004689369737
1355.6301668637102,1355.6301668637102,0.998839291752579,0.0006249776077295675
1355.6371114592816,1355.6371114592816,1.0004993150934163,0.000625429368183822
1355.6440560548067,1355.6440560548067,1.0001477996796848,0.0006253272502031796
1355.6510006502854,1355.6510006502854,0.999372787278044,0.0006251644099118742
1355.6579452456242,1355.6579452456242,1.0007868491604632,0.0006257323628063867
1355.6648898411026,1355.6648898411026,0.9998403876542022,0.0006253577029385487
1355.6718344363483,1355.6718344363483,1.0004116090713286,0.0006255661185681637
1355.678779031361,1355.678779031361,1.0001718523573948,0.0006255704633572201
1355.68572362656,1355.68572362656,0.9999441909300968,0.0006253918698085989
1355.692668221573,1355.692668221573,0.9992611849836782,0.0006252454294448749
1355.6996128165392,1355.6996128165392,0.9999451988997452,0.0006254648281383702
1355.7065574114124,1355.7065574114124,0.9996436303054581,0.0006255158202107544
1355.7135020061924,1355.7135020061924,1.0005176589878522,0.0006256703119939788
1355.7204466009257,1355.7204466009257,0.9999927971679728,0.0006253959782937617
1355.727391195566,1355.727391195566,1.0000540737071222,0.0006256910276580407
1355.7343357902062,1355.7343357902062,1.000193864287563,0.000625669122643223
1355.7412803847535,1355.7412803847535,1.0007899170260672,0.0006256301409816114
1355.7493361143072,1355.7493361143072,0.9995195061709954,0.000625372799328339
1355.7565584924312,1355.7565584924312,0.9989210507398099,0.00062514593161271
1355.7635030867455,1355.7635030867455,1.000048790460084,0.0006254498791485668
1355.7704476809201,1355.7704476809201,0.999992718005748,0.0006254407831536468
1355.777392275188,1355.777392275188,1.0006420113522805,0.0006255024534314304
1355.7843368692695,1355.7843368692695,0.9994458603124631,0.0006253269707370195
1355.7912814631648,1355.7912814631648,0.9999490138053144,0.0006255312435822371
1355.7982260572,1355.7982260572,1.0007062266255957,0.0006256156352800859
1355.8051706510482,1355.8051706510482,0.9996066156233343,0.0006253404113053275
1355.8121152448502,1355.8121152448502,0.9998057995477154,0.0006253734731431629
1355.8190598385595,1355.8190598385595,1.0007485028519942,0.0006255835761963761
1355.826004432222,1355.826004432222,0.9998885222821153,0.0006253918308104504
1355.8329490258377,1355.8329490258377,0.9998235764724583,0.0006254207806085499
1355.8398936193607,1355.8398936193607,1.0002929170280548,0.0006256436723761509
1355.8468382127899,1355.8468382127899,0.9995180740841748,0.0006255413662019885
1355.853782806173,1355.853782806173,1.0002174854598391,0.0006256986460786188
1355.860727399463,1355.860727399463,0.9998630287434687,0.0006256231069483203
1355.8676719927528,1355.8676719927528,0.9995137113391653,0.0006254107679338004
1355.8746165858563,1355.8746165858563,1.0002271849281716,0.0006255605254107619
1355.8815611790064,1355.8815611790064,0.9998891610861727,0.0006255579559589708
1355.8885057719706,1355.8885057719706,1.000573440186758,0.0006256066636351188
