time,time,flux,flux_err
1354.113924858612,1354.113924858612,1.0011498,0.0012658909
1354.115313789536,1354.115313789536,0.99808484,0.0012649215
1354.1180916509163,1354.1180916509163,0.99962527,0.001264432
1354.1194805818402,1354.1194805818402,0.99932086,0.0012656974
1354.120869512298,1354.120869512298,0.9993518,0.0012658663
1354.1222584432212,1354.1222584432212,0.9989283,0.0012651355
1354.1236473741444,1354.1236473741444,1.0003684,0.0012660524
1354.1250363046026,1354.1250363046026,1.0007848,0.0012663861
1354.1264252355268,1354.1264252355268,1.0001439,0.0012653603
1354.12781416645,1354.12781416645,0.9972622,0.0012640312
1354.1292030969078,1354.1292030969078,0.99845046,0.0012647428
1354.1305920278307,1354.1305920278307,0.9986618,0.0012647804
1354.1319809587542,1354.1319809587542,1.0001507,0.0012653888
1354.1333698892124,1354.1333698892124,0.9994542,0.0012650893
1354.1347588201359,1354.1347588201359,0.99901843,0.0012652216
1354.1361477505932,1354.1361477505932,0.99932635,0.0012642121
1354.1375366815173,1354.1375366815173,1.0024055,0.0012665807
1354.1389256119749,1354.1389256119749,0.9990637,0.0012651521
1354.1403145428988,1354.1403145428988,1.0006404,0.0012650496
1354.1417034733565,1354.1417034733565,1.0013212,0.001266372
1354.143092404279,1354.143092404279,0.9999029,0.0012645874
1354.1444813347373,1354.1444813347373,0.99934816,0.001265071
1354.1458702656612,1354.1458702656612,0.99935776,0.0012650429
1354.147259196119,1354.147259196119,1.001878,0.001266119
1354.1486481265765,1354.1486481265765,1.0020108,0.0012657848
1354.1500370574997,1354.1500370574997,0.9993736,0.0012652929
1354.151425987958,1354.151425987958,0.9985142,0.0012640377
1354.1528149184164,1354.1528149184164,0.9994281,0.0012645075
1354.1542038493392,1354.1542038493392,1.0007275,0.0012652286
1354.1555927797965,1354.1555927797965,0.99974984,0.0012649833
1354.1569817102547,1354.1569817102547,1.0000751,0.001265167
1354.1583706411789,1354.1583706411789,0.9985183,0.0012639785
1354.1597595716364,1354.1597595716364,0.99867076,0.001265341
1354.1611485020933,1354.1611485020933,1.0008512,0.001265354
1354.1625374330172,1354.1625374330172,0.9998692,0.0012648472
1354.1639263634756,1354.1639263634756,1.0005357,0.0012655716
1354.1653152939332,1354.1653152939332,0.999815,0.0012648078
1354.166704224391,1354.166704224391,0.99941695,0.0012648847
1354.168093155314,1354.168093155314,1.0017947,0.0012656891
1354.1694820857724,1354.1694820857724,0.99932104,0.0012649728
1354.1708710162309,1354.1708710162309,1.0019015,0.0012657411
1354.1722599466877,1354.1722599466877,1.000085,0.0012648123
1354.1736488771453,1354.1736488771453,0.999608,0.0012645618
1354.1750378076038,1354.1750378076038,0.9977242,0.001263969
1354.176426738061,1354.176426738061,0.99872655,0.0012644951
1354.177815668985,1354.177815668985,1.001314,0.0012655224
1354.1792045994428,1354.1792045994428,0.99987644,0.0012652595
1354.1805935299005,1354.1805935299005,1.0005625,0.0012658319
1354.1819824603588,1354.1819824603588,1.0001595,0.0012647285
1354.183371390816,1354.183371390816,1.0019046,0.0012654216
1354.1847603212746,1354.1847603212746,0.9986564,0.0012647219
1354.186149251732,1354.186149251732,0.9997418,0.0012643317
1354.187538182189,1354.187538182189,0.9997114,0.0012651267
1354.1889271126474,1354.1889271126474,1.0004696,0.0012647867
1354.190316043106,1354.190316043106,1.0001783,0.0012643859
1354.1917049735632,1354.1917049735632,0.9997692,0.0012647524
1354.193093904021,1354.193093904021,0.9994994,0.0012647572
1354.1944828344785,1354.1944828344785,1.001836,0.0012659447
1354.195871764937,1354.195871764937,0.99979067,0.0012647336
1354.1972606949296,1354.1972606949296,0.99938804,0.0012647281
1354.1986496253865,1354.1986496253865,1.0010395,0.0012651719
1354.200038555844,1354.200038555844,1.0002242,0.0012650412
1354.2014274863025,1354.2014274863025,0.99896985,0.0012637558
1354.2028164167607,1354.2028164167607,0.996628,0.001263254
1354.204205347218,1354.204205347218,0.99935365,0.0012643818
1354.2055942776751,1354.2055942776751,0.998578,0.0012640227
1354.206983207668,1354.206983207668,1.000438,0.001264934
1354.2083721381262,1354.2083721381262,1.0007992,0.0012646506
1354.2097610685835,1354.2097610685835,1.0001076,0.0012651661
1354.2111499990413,1354.2111499990413,0.9989858,0.0012641009
1354.2125389290334,1354.2125389290334,0.9994719,0.0012645503
1354.2139278594916,1354.2139278594916,1.0003939,0.0012646964
1354.2153167899498,1354.2153167899498,1.0003822,0.0012649661
1354.2167057204067,1354.2167057204067,0.9975238,0.0012637842
1354.2180946503988,1354.2180946503988,1.0016055,0.0012650911
1354.219483580857,1354.219483580857,1.0011194,0.0012651216
1354.2208725113146,1354.2208725113146,1.0011399,0.0012650256
1354.2222614413074,1354.2222614413074,0.99852824,0.0012637097
1354.2236503717647,1354.2236503717647,0.99944,0.0012641929
1354.2250393022225,1354.2250393022225,1.0031736,0.0012659283
1354.226428232215,1354.226428232215,0.9991169,0.0012642734
1354.2278171626729,1354.2278171626729,1.0007493,0.0012643973
1354.2292060926645,1354.2292060926645,1.0011374,0.0012649229
1354.2305950231223,1354.2305950231223,1.000307,0.0012648401
1354.2319839531142,1354.2319839531142,1.0014155,0.0012650971
1354.2333728835727,1354.2333728835727,0.99954945,0.0012642362
1354.234761814031,1354.234761814031,0.9998048,0.0012645288
1354.2361507440228,1354.2361507440228,0.9996482,0.001264617
1354.2375396744803,1354.2375396744803,0.99986875,0.0012645323
1354.2389286044724,1354.2389286044724,0.99812883,0.0012635688
1354.2403175349307,1354.2403175349307,1.0000463,0.0012641409
1354.2417064649233,1354.2417064649233,1.0008996,0.0012645246
1354.2430953949145,1354.2430953949145,1.0007038,0.0012650074
1354.2444843253722,1354.2444843253722,0.99922055,0.0012638678
1354.2458732553648,1354.2458732553648,0.99985087,0.001264786
1354.247262185823,1354.247262185823,0.99961776,0.0012646179
1354.2486511158152,1354.2486511158152,0.9986531,0.0012638763
1354.2500400458064,1354.2500400458064,0.9988547,0.0012642317
1354.2514289762646,1354.2514289762646,1.0010767,0.0012651965
1354.2528179062572,1354.2528179062572,0.9990869,0.001263816
1354.2542068362493,1354.2542068362493,0.9997425,0.0012639253
1354.2555957667066,1354.2555957667066,0.9997552,0.0012645121
1354.2569846966987,1354.2569846966987,1.0019648,0.0012653024
1354.2583736266913,1354.2583736266913,0.99876976,0.0012639969
1354.2597625571495,1354.2597625571495,0.9984707,0.0012641458
1354.2611514871408,1354.2611514871408,1.0006309,0.0012639
1354.2625404171329,1354.2625404171329,1.0005832,0.0012650003
1354.2639293471254,1354.2639293471254,1.0012766,0.0012649954
1354.2653182775832,1354.2653182775832,1.0012205,0.001264878
1354.2667072075758,1354.2667072075758,0.99831986,0.001263564
1354.2680961375677,1354.2680961375677,1.0015156,0.0012652242
1354.2694850675596,1354.2694850675596,1.0012822,0.0012650003
1354.2708739975521,1354.2708739975521,1.0026044,0.0012653267
1354.2722629275443,1354.2722629275443,1.000054,0.0012643229
1354.273651858002,1354.273651858002,0.99863905,0.0012636955
1354.2750407879937,1354.2750407879937,1.0022452,0.0012649994
1354.2764297179858,1354.2764297179858,1.0008913,0.0012653603
1354.2778186479784,1354.2778186479784,1.0001987,0.0012645698
1354.279207577971,1354.279207577971,1.0001704,0.0012641799
1354.280596507963,1354.280596507963,1.0011597,0.0012645113
1354.2819854379547,1354.2819854379547,1.0003536,0.0012644475
1354.2833743679469,1354.2833743679469,0.9997689,0.0012646806
1354.2847632979394,1354.2847632979394,0.99993205,0.0012645572
1354.2861522279316,1354.2861522279316,0.99966407,0.0012643908
1354.2875411579228,1354.2875411579228,0.9985637,0.0012633399
1354.2889300879153,1354.2889300879153,1.0000169,0.0012640388
1354.290319017908,1354.290319017908,0.99971205,0.0012641016
1354.2917079479005,1354.2917079479005,0.99922186,0.0012635612
1354.2930968778926,1354.2930968778926,1.0001329,0.0012640583
1354.2944858078838,1354.2944858078838,0.9994163,0.0012633682
1354.2958747378764,1354.2958747378764,0.9995036,0.001263901
1354.297263667869,1354.297263667869,0.999447,0.0012642058
1354.2986525978604,1354.2986525978604,0.99890673,0.0012638307
1354.3000415278523,1354.3000415278523,0.9994691,0.0012637062
1354.3014304573792,1354.3014304573792,1.0016636,0.0012650087
1354.3028193873718,1354.3028193873718,0.9995335,0.0012639308
1354.3042083173646,1354.3042083173646,0.997713,0.0012628131
1354.305597247356,1354.305597247356,0.9985641,0.0012634029
1354.3069861773477,1354.3069861773477,0.9988269,0.0012635654
1354.3083751073402,1354.3083751073402,1.0018628,0.0012646966
1354.3097640368667,1354.3097640368667,0.99801624,0.0012636004
1354.3111529668593,1354.3111529668593,1.0016859,0.0012647825
1354.3125418968514,1354.3125418968514,1.0011938,0.0012646896
1354.3139308268433,1354.3139308268433,0.99890035,0.0012635845
1354.3153197563704,1354.3153197563704,0.9967314,0.0012626713
1354.316708686362,1354.316708686362,0.9987344,0.0012637471
1354.3180976163542,1354.3180976163542,0.9983106,0.0012629847
1354.3194865458804,1354.3194865458804,1.0003859,0.0012643384
1354.3208754758723,1354.3208754758723,1.0003867,0.0012641287
1354.3222644058649,1354.3222644058649,1.0002054,0.0012641816
1354.3236533353918,1354.3236533353918,0.9988407,0.0012636564
1354.325042265384,1354.325042265384,1.0006357,0.0012642058
1354.326431195376,1354.326431195376,0.99975926,0.0012645067
1354.327820124902,1354.327820124902,0.9984172,0.0012638567
1354.3292090548946,1354.3292090548946,1.0012611,0.0012645363
1354.330597984421,1354.330597984421,1.000487,0.001264204
1354.3319869144123,1354.3319869144123,1.0007867,0.0012639143
1354.3333758444048,1354.3333758444048,0.99984986,0.0012640146
1354.334764773932,1354.334764773932,0.9978658,0.0012630132
1354.3361537039248,1354.3361537039248,1.0017549,0.0012644673
1354.3375426334508,1354.3375426334508,1.0038669,0.0012655837
1354.338931563442,1354.338931563442,1.0020647,0.001265122
1354.340320492969,1354.340320492969,1.001373,0.0012645372
1354.341709422962,1354.341709422962,0.99981743,0.0012639732
1354.3430983524875,1354.3430983524875,0.999766,0.0012636386
1354.3444872820135,1354.3444872820135,0.99916065,0.0012639941
1354.3458762120063,1354.3458762120063,1.002123,0.0012647711
1354.3472651415334,1354.3472651415334,0.9987924,0.0012634341
1354.348654071526,1354.348654071526,1.0010942,0.0012641285
1354.3500430010515,1354.3500430010515,0.9991576,0.0012633408
1354.3514319310434,1354.3514319310434,1.0006658,0.001264517
1354.3528208605705,1354.3528208605705,0.99874526,0.0012633306
1354.3542097900965,1354.3542097900965,0.9996869,0.0012634833
1354.3555987200887,1354.3555987200887,1.0020437,0.001264714
1354.356987649615,1354.356987649615,0.99993855,0.0012636124
1354.358376579142,1354.358376579142,1.0014275,0.0012643805
1354.3597655091346,1354.3597655091346,1.0020828,0.0012645
1354.3611544386608,1354.3611544386608,0.99968994,0.0012640897
1354.362543368187,1354.362543368187,1.0015515,0.0012645312
1354.3639322977135,1354.3639322977135,1.0018934,0.0012647002
1354.3653212277052,1354.3653212277052,1.0001047,0.0012640557
1354.3667101572323,1354.3667101572323,1.0015434,0.0012643796
1354.3680990867595,1354.3680990867595,0.99886966,0.0012634345
1354.3694880162855,1354.3694880162855,1.0003314,0.0012639094
1354.370876945812,1354.370876945812,0.99944997,0.0012640497
1354.3722658758038,1354.3722658758038,0.99975246,0.0012636277
1354.373654805331,1354.373654805331,1.0008695,0.0012640994
1354.375043734857,1354.375043734857,1.0011967,0.0012645484
1354.3764326643825,1354.3764326643825,0.9989736,0.001263735
1354.3778215939096,1354.3778215939096,0.9991433,0.0012633405
1354.3792105234368,1354.3792105234368,0.9987205,0.0012624722
1354.3805994534293,1354.3805994534293,1.000798,0.0012636915
1354.3819883829556,1354.3819883829556,1.0020505,0.0012644499
1354.3833773124813,1354.3833773124813,1.0016937,0.0012645898
1354.3847662420083,1354.3847662420083,1.0011582,0.0012638941
1354.3861551715352,1354.3861551715352,0.99945986,0.0012636528
1354.3875441010607,1354.3875441010607,1.0018141,0.0012646024
1354.3889330305872,1354.3889330305872,0.99967694,0.0012638413
1354.390321960114,1354.390321960114,0.99956775,0.0012632869
1354.391710889641,1354.391710889641,0.9993746,0.0012634152
1354.393099819168,1354.393099819168,0.9989266,0.0012631451
1354.3944887486934,1354.3944887486934,1.0002072,0.0012641437
1354.39587767822,1354.39587767822,0.9991148,0.0012637126
1354.3972666077468,1354.3972666077468,1.0022938,0.0012649848
1354.3986555372733,1354.3986555372733,0.9992641,0.0012632082
1354.4000444667993,1354.4000444667993,1.0009664,0.0012640563
1354.4014333963257,1354.4014333963257,1.0009298,0.0012640276
1354.402822325387,1354.402822325387,0.99898654,0.0012633178
1354.404211254914,1354.404211254914,1.0004568,0.0012643457
1354.4056001844403,1354.4056001844403,1.0005552,0.0012644624
1354.4069891139663,1354.4069891139663,1.0001338,0.0012635792
1354.4083780434928,1354.4083780434928,1.0001118,0.0012637455
1354.4097669730193,1354.4097669730193,1.0012381,0.0012640362
1354.4111559025462,1354.4111559025462,1.0006344,0.001264065
1354.4125448316074,1354.4125448316074,0.9998401,0.0012632033
1354.4139337611336,1354.4139337611336,1.0001959,0.0012641612
1354.4153226906599,1354.4153226906599,0.9982252,0.0012629674
1354.4167116201863,1354.4167116201863,0.9990117,0.001263092
1354.4181005497132,1354.4181005497132,0.9993137,0.0012636004
1354.419489478774,1354.419489478774,1.0005758,0.0012638561
1354.4208784082996,1354.4208784082996,0.99980015,0.0012639625
1354.4222673378265,1354.4222673378265,0.9995184,0.0012633953
1354.4236562668877,1354.4236562668877,1.0003024,0.0012635889
1354.4250451964147,1354.4250451964147,1.0004306,0.0012642792
1354.4264341259411,1354.4264341259411,1.0008751,0.0012638379
1354.4278230554667,1354.4278230554667,0.9994736,0.001262917
1354.429211984528,1354.429211984528,0.99968016,0.001263171
1354.4306009140548,1354.4306009140548,1.0021118,0.0012645689
1354.4319898431147,1354.4319898431147,0.99933165,0.0012634905
1354.4333787726412,1354.4333787726412,0.9998173,0.0012639716
1354.434767702168,1354.434767702168,1.00012,0.0012633378
1354.4361566312293,1354.4361566312293,0.999383,0.0012635506
1354.4375455607562,1354.4375455607562,1.000772,0.0012635868
1354.4389344898161,1354.4389344898161,0.9976738,0.0012631984
1354.4403234193426,1354.4403234193426,1.0009578,0.0012635844
1354.4417123488695,1354.4417123488695,0.9991639,0.0012628358
1354.4431012779303,1354.4431012779303,0.99948084,0.0012630271
1354.4444902074565,1354.4444902074565,1.0006242,0.001264087
1354.445879136517,1354.445879136517,1.0002486,0.0012636934
1354.447268066044,1354.447268066044,0.9992715,0.0012629223
1354.4486569951052,1354.4486569951052,0.9997964,0.0012634236
1354.4500459246317,1354.4500459246317,1.0015321,0.0012639608
1354.4514348536925,1354.4514348536925,1.0017557,0.0012645976
1354.4528237827528,1354.4528237827528,0.99837685,0.0012633139
1354.4542127122793,1354.4542127122793,1.0005248,0.0012640192
1354.4556016413405,1354.4556016413405,0.9987008,0.0012632535
1354.4569905708674,1354.4569905708674,1.0009832,0.0012638614
1354.4583794999282,1354.4583794999282,1.0014492,0.0012645796
1354.4597684289888,1354.4597684289888,1.0008359,0.0012639072
1354.461157358515,1354.461157358515,1.0006832,0.0012636243
1354.4625462875763,1354.4625462875763,1.0004158,0.0012635238
1354.4639352171027,1354.4639352171027,0.99939775,0.0012635177
1354.4653241461626,1354.4653241461626,0.99893695,0.0012633003
1354.4667130752239,1354.4667130752239,0.99973094,0.001264335
1354.4681020047508,1354.4681020047508,0.9992752,0.0012633887
1354.469490933812,1354.469490933812,1.0014733,0.001264122
1354.4708798628728,1354.4708798628728,1.0009453,0.0012637805
1354.4722687919327,1354.4722687919327,1.0009853,0.0012637031
1354.4736577214596,1354.4736577214596,0.9984488,0.0012630627
1354.4750466505209,1354.4750466505209,1.0001197,0.0012637358
1354.476435579581,1354.476435579581,1.001098,0.0012641116
1354.4778245086416,1354.4778245086416,0.99801403,0.001262494
1354.4792134381685,1354.4792134381685,0.9993976,0.0012630232
1354.48060236723,1354.48060236723,0.99897796,0.0012625703
1354.4819912962914,1354.4819912962914,0.9981523,0.0012626083
1354.4833802253513,1354.4833802253513,1.0000792,0.0012635442
1354.4847691544117,1354.4847691544117,1.0004478,0.0012637425
1354.4861580834731,1354.4861580834731,1.0002129,0.0012629887
1354.4875470129994,1354.4875470129994,0.9993561,0.0012631812
1354.4889359420602,1354.4889359420602,1.0012692,0.001263229
1354.4903248711205,1354.4903248711205,1.0002711,0.0012638636
1354.491713800182,1354.491713800182,1.0011511,0.0012638342
1354.4931027292434,1354.4931027292434,0.9986663,0.0012628706
1354.4944916583038,1354.4944916583038,0.9994089,0.0012625275
1354.4958805873646,1354.4958805873646,0.9989498,0.0012634819
1354.4972695164251,1354.4972695164251,1.000655,0.0012637624
1354.4986584454857,1354.4986584454857,0.99935025,0.0012635137
1354.500047374547,1354.500047374547,0.99849063,0.0012631872
1354.5014363036084,1354.5014363036084,1.0015997,0.0012645121
1354.502825232669,1354.502825232669,0.9997648,0.0012630873
1354.5042141617298,1354.5042141617298,0.99979275,0.0012633576
1354.5056030907901,1354.5056030907901,0.9995562,0.001263389
1354.5069920198516,1354.5069920198516,1.0011294,0.001263804
1354.5083809489122,1354.5083809489122,0.9998212,0.0012633529
1354.509769877972,1354.509769877972,0.99812615,0.0012625045
1354.5111588070333,1354.5111588070333,1.0012376,0.0012639015
1354.5125477360948,1354.5125477360948,0.9986848,0.0012630009
1354.5139366651563,1354.5139366651563,0.9998048,0.0012628514
1354.5153255942166,1354.5153255942166,0.99992347,0.0012639978
1354.5167145232765,1354.5167145232765,1.0009704,0.001263926
1354.518103452338,1354.518103452338,0.9990412,0.0012631984
1354.5194923809338,1354.5194923809338,1.0018886,0.0012645521
1354.5208813099937,1354.5208813099937,0.9990893,0.0012624299
1354.5222702390543,1354.5222702390543,0.9993976,0.0012632717
1354.5236591681157,1354.5236591681157,0.99865186,0.0012627346
1354.525048097177,1354.525048097177,1.0025806,0.0012641207
1354.5264370257726,1354.5264370257726,0.9992267,0.0012631154
1354.5278259548325,1354.5278259548325,0.9962596,0.0012621266
1354.5292148838932,1354.5292148838932,0.999096,0.0012629714
1354.5306038129545,1354.5306038129545,0.99848497,0.0012629966
1354.5319927420148,1354.5319927420148,0.99991107,0.0012633003
1354.53338167061,1354.53338167061,1.0023414,0.0012645957
1354.5347705996708,1354.5347705996708,1.0015146,0.0012643834
1354.536159528732,1354.536159528732,1.0006973,0.0012637026
1354.5375484573276,1354.5375484573276,0.9998857,0.0012633117
1354.5389373863884,1354.5389373863884,0.9995345,0.001263537
1354.5403263154487,1354.5403263154487,1.000398,0.0012640434
1354.5417152440439,1354.5417152440439,1.0006933,0.001263784
1354.5431041731044,1354.5431041731044,0.99921215,0.0012632627
1354.544493102166,1354.544493102166,1.000069,0.0012635273
1354.5458820307615,1354.5458820307615,1.0006218,0.00126366
1354.5472709598218,1354.5472709598218,0.9999168,0.0012632743
1354.5486598888826,1354.5486598888826,1.0001365,0.0012631004
1354.5500488174778,1354.5500488174778,1.000273,0.001263921
1354.551437746539,1354.551437746539,1.000209,0.0012632702
1354.5528266751337,1354.5528266751337,0.9988735,0.0012631881
1354.5542156041938,1354.5542156041938,1.0003275,0.0012637541
1354.5556045332553,1354.5556045332553,0.99897385,0.0012628271
1354.5569934618509,1354.5569934618509,0.99899715,0.0012627251
1354.5583823909121,1354.5583823909121,0.99844176,0.0012630176
1354.5597713195073,1354.5597713195073,1.0019712,0.0012640564
1354.5611602485671,1354.5611602485671,0.9984584,0.0012630902
1354.5625491771627,1354.5625491771627,0.9990272,0.0012633534
1354.563938106224,1354.563938106224,0.9988934,0.0012631662
1354.5653270348182,1354.5653270348182,0.99828064,0.0012626596
1354.566715963879,1354.566715963879,0.99932146,0.0012629707
1354.5681048924746,1354.5681048924746,1.0011423,0.0012635235
1354.5694938210702,1354.5694938210702,1.0010803,0.001264026
1354.5708827501314,1354.5708827501314,0.9984714,0.0012621031
1354.5722716787257,1354.5722716787257,1.0011102,0.0012644593
