time,time,flux,flux_err
1325.2992738000776,1325.2992738000776,0.9996581711707379,0.0005636014148538459
1325.3076071598803,1325.3076071598803,0.9995043149348772,0.0005638308742557933
1325.3159405199297,1325.3159405199297,0.9995262600969377,0.0005639391400627054
1325.3235794335214,1325.3235794335214,0.999007749899792,0.0005148090418653788
1325.330523900601,1325.330523900601,0.9990919112128196,0.000514983033786575
1325.3374683678485,1325.3374683678485,0.9996316451100922,0.0005154490796947202
1325.34441283526,1325.34441283526,0.9994025098250019,0.0005155139481005126
1325.3513573028347,1325.3513573028347,0.9999604898089647,0.0005158769253570337
1325.358301770571,1325.358301770571,0.9993532683085469,0.0005161004069416057
1325.3652462384666,1325.3652462384666,0.9998644268512479,0.000516442080778331
1325.3721907065203,1325.3721907065203,0.9998849289058673,0.0005167609636674187
1325.3791351747318,1325.3791351747318,0.9997054435924072,0.0005169015653116679
1325.3860796430988,1325.3860796430988,1.000073647020129,0.0005173639867396476
1325.3930241116184,1325.3930241116184,0.9990350435955346,0.0005174435116345473
1325.3999685802887,1325.3999685802887,0.9999011951297263,0.0005179163380204289
1325.4069130491116,1325.4069130491116,0.9998105212786486,0.0005182843912660232
1325.4138575180823,1325.4138575180823,1.000311080403159,0.0005186176556387014
1325.4208019872,1325.4208019872,1.0000178382278926,0.0005188040718041732
1325.4277464564634,1325.4277464564634,0.9998754945070768,0.0005191383791533217
1325.4346909258716,1325.4346909258716,0.9995705111773484,0.0005194482462520941
1325.4416353954202,1325.4416353954202,1.0004803093353547,0.000519811647429324
1325.448579865112,1325.448579865112,0.9999923245142455,0.0005201305582004733
1325.455524334943,1325.455524334943,0.9994408969327588,0.0005202748715416592
1325.4624688049112,1325.4624688049112,0.9997109752228676,0.0005205983744680831
1325.4694132750167,1325.4694132750167,0.9998827424704396,0.0005210532252250988
1325.4763577452563,1325.4763577452563,0.999312272034253,0.000521337796680292
1325.4833022156306,1325.4833022156306,0.999977784926727,0.0005218047306779717
1325.4902466861356,1325.4902466861356,0.9992187425052365,0.0005219794436065803
1325.4971911567727,1325.4971911567727,0.9994000112158045,0.0005224866249554062
1325.5041356275374,1325.5041356275374,0.9988890686274582,0.000522723732301157
1325.5110800984305,1325.5110800984305,1.0004466782503616,0.0005235120547964428
1325.5180245694485,1325.5180245694485,1.0000454378219352,0.0005238414948373579
1325.5249690405926,1325.5249690405926,1.0000520774667563,0.000524233298922559
1325.5319135118602,1325.5319135118602,0.9998964419123343,0.0005246698302679615
1325.53885798325,1325.53885798325,0.9993245558684858,0.0005249763644619101
1325.545802454761,1325.545802454761,1.0005125774017387,0.0005257195069004591
1325.5527469263889,1325.5527469263889,1.0007644825050988,0.0005261986797556255
1325.5596913981367,1325.5596913981367,0.9989141426570779,0.0005263482260687402
1325.5666358700012,1325.5666358700012,0.9993626234170432,0.0005268613614141731
1325.5735803419798,1325.5735803419798,0.9995339668077163,0.0005272879881937919
1325.580524814072,1325.580524814072,0.9998934658987648,0.0005278195360733702
1325.5874692862785,1325.5874692862785,0.9997151240193226,0.0005281764692349784
1325.5944137585955,1325.5944137585955,0.9991572266571456,0.0005284280581028377
1325.6013582310218,1325.6013582310218,1.000523671967882,0.000528907545951605
1325.6083027035577,1325.6083027035577,0.9999088763563325,0.0005291520377794546
1325.6152471762018,1325.6152471762018,1.0000490893368124,0.0005295007118676046
1325.622191648951,1325.622191648951,0.9994336928368701,0.0005296634193725452
1325.6291361218057,1325.6291361218057,0.9995933085230437,0.0005297531573530327
1325.6360805947638,1325.6360805947638,0.9995878822871743,0.0005298944014053056
1325.6430250678245,1325.6430250678245,1.000550772870402,0.0005302633674977504
1325.649969540987,1325.649969540987,0.9996617944778421,0.0005302452704403291
1325.6569140142506,1325.6569140142506,1.0000985822129778,0.000530476679080733
1325.663858487614,1325.663858487614,1.0007013192951244,0.000530639479775109
1325.6708029610727,1325.6708029610727,1.000022664341531,0.0005306919405123772
1325.6777474346297,1325.6777474346297,0.9998814203799243,0.0005307214875808691
1325.6846919082807,1325.6846919082807,0.999308752688248,0.0005307141478857682
1325.6916363820267,1325.6916363820267,0.9993575500172192,0.0005309657562273466
1325.6985808558668,1325.6985808558668,0.9998683796103214,0.0005311605030020515
1325.7055253297985,1325.7055253297985,0.9994480197826545,0.000531171586188371
1325.7124698038208,1325.7124698038208,0.9994873722519207,0.0005314665661306556
1325.7194142779329,1325.7194142779329,1.0002342348294726,0.0005317907741462862
1325.7263587521352,1325.7263587521352,1.000009850432264,0.0005318371728499922
1325.733303226424,1325.733303226424,0.9998143547375712,0.0005322168826653298
1325.740247700801,1325.740247700801,0.9994091501238843,0.0005323689884227129
1325.747192175262,1325.747192175262,1.0006749254623952,0.0005327864567448569
1325.7541366498103,1325.7541366498103,0.9992398727514786,0.0005328006954680653
1325.7610811244406,1325.7610811244406,1.000656437559897,0.0005333784078190721
1325.768025599155,1325.768025599155,0.9992243900316922,0.00053340823345952
1325.7749700739503,1325.7749700739503,0.9996277562211786,0.0005337722657682094
1325.7819145488254,1325.7819145488254,0.9989716936019617,0.0005338723719838929
1325.7888590237815,1325.7888590237815,1.0007562647062813,0.000534561930248113
1325.7958034988162,1325.7958034988162,0.999775397744636,0.0005345669059910856
1325.8027479739296,1325.8027479739296,1.0003115245516288,0.0005349868459777322
1325.8096924491208,1325.8096924491208,0.999834279380942,0.0005349949754632716
1325.8166369243856,1325.8166369243856,0.9998144311707472,0.0005351379576248543
1325.823581399727,1325.823581399727,1.000130916035046,0.0005352738714855371
1325.830525875142,1325.830525875142,0.9996621420683516,0.0005352615912475392
1325.8374703506317,1325.8374703506317,0.9997356167886139,0.0005352898972659215
1325.8444148261924,1325.8444148261924,0.9996579830736471,0.0005352723982269979
1325.8513593018247,1325.8513593018247,1.0002937721935456,0.00053541790438555
1325.8583037775284,1325.8583037775284,0.999897766408617,0.0005351250668097616
1325.865248253303,1325.865248253303,0.9994199496361589,0.0005349136571240368
1325.8721927291456,1325.8721927291456,1.0007822701449718,0.0005348954803796456
1325.879137205056,1325.879137205056,1.000051378129567,0.0005345334605088583
1325.8860816810343,1325.8860816810343,0.999168476286664,0.0005341289306450836
1325.893026157079,1325.893026157079,0.9996211196748369,0.0005340767604063239
1325.89997063319,1325.89997063319,1.0002539739814322,0.0005339441857099121
1325.906915109365,1325.906915109365,0.999403976681491,0.0005336470283988069
1325.9138595856045,1325.9138595856045,1.0001955724245395,0.0005336942890348955
1325.9208040619083,1325.9208040619083,0.9994086888355909,0.0005333793028979266
1325.9277485382747,1325.9277485382747,0.9998411424854945,0.0005333441549766116
1325.9346930147017,1325.9346930147017,0.9996101499784464,0.0005331482880956308
1325.9416374911896,1325.9416374911896,1.0001316225897852,0.0005331520050618861
1325.9485819677393,1325.9485819677393,1.0001445713650376,0.0005330790072366083
1325.9555264443475,1325.9555264443475,1.0003809335629796,0.0005329933951653963
1325.9633042582213,1325.9633042582213,0.9997400947645412,0.0005329050062830629
1325.970804293093,1325.970804293093,0.9985648309377414,0.000532635245676079
1325.9777487698889,1325.9777487698889,0.9996823746974883,0.0005328587080469885
1325.9846932467394,1325.9846932467394,0.9994647031006634,0.0005328525556166405
1325.9916377236468,1325.9916377236468,0.9993561471113258,0.0005329034496261646
1325.99858220061,1325.99858220061,1.0002315538382098,0.0005329858399068755
1326.0055266776264,1326.0055266776264,0.9993364467574499,0.0005330764811462523
1326.0124711546978,1326.0124711546978,1.0009684972310515,0.0005336072628086629
1326.0194156318219,1326.0194156318219,1.0003960355725035,0.0005336392008373155
1326.0263601089996,1326.0263601089996,0.9996999045483701,0.0005337406333059977
1326.0333045862278,1326.0333045862278,1.000006559742805,0.0005339149485849178
1326.0402490635083,1326.0402490635083,1.000087681446922,0.0005339375940546033
1326.0471935408398,1326.0471935408398,0.9994413258642145,0.0005337162205599186
1326.0541380182199,1326.0541380182199,0.9999856625121858,0.0005339076656365023
1326.0610824956505,1326.0610824956505,1.0002124483986514,0.0005339869044124092
1326.0680269731301,1326.0680269731301,0.9998319955074508,0.0005340234435241035
1326.0749714506585,1326.0749714506585,1.0005260674003753,0.0005342376419238708
1326.081915928234,1326.081915928234,1.0001573323750006,0.0005341540309274374
1326.0888604058557,1326.0888604058557,0.9995280107305551,0.0005341509857081505
1326.0958048835244,1326.0958048835244,0.9995347277287877,0.0005340036924695167
1326.1027493612396,1326.1027493612396,0.999650960470197,0.0005341011542404916
1326.1096938389987,1326.1096938389987,0.9998216491239742,0.0005341561058313023
1326.1166383168043,1326.1166383168043,1.0000709496367173,0.0005342426129980604
1326.1235827946537,1326.1235827946537,1.0004799107096383,0.0005342848443614458
1326.130527272547,1326.130527272547,1.0000187393023556,0.0005343033658890531
1326.1374717504818,1326.1374717504818,0.9997726102211695,0.0005341936238738398
1326.144416228461,1326.144416228461,1.0005490069890424,0.0005342455747368937
1326.1513607064808,1326.1513607064808,0.9996462657246049,0.0005341008337223054
1326.1583051845435,1326.1583051845435,1.0004130099051407,0.0005342160034730498
1326.1652496626461,1326.1652496626461,0.9997107377748777,0.0005339263086869453
1326.17219414079,1326.17219414079,1.000030157015542,0.0005339709107112353
1326.1791386189748,1326.1791386189748,0.9994830518106846,0.0005339284385959006
1326.1860830971978,1326.1860830971978,1.0002411629970493,0.0005340534914509127
1326.1930275754596,1326.1930275754596,0.9996035771083391,0.0005337961856625122
1326.1999720537601,1326.1999720537601,1.0001035745478533,0.000533769528773524
1326.2069165320995,1326.2069165320995,0.9998165453237113,0.0005338037120996445
1326.2138610104764,1326.2138610104764,1.001062943825405,0.000534065375746108
1326.2208054888902,1326.2208054888902,0.9996574593326726,0.0005337199946617548
1326.2277499673405,1326.2277499673405,0.9985626741921795,0.0005335147760432414
1326.234694445826,1326.234694445826,0.9997583849860459,0.0005335817383824814
1326.2416389243492,1326.2416389243492,1.0005336168874024,0.0005338175402931247
1326.248583402907,1326.248583402907,1.0007608124069762,0.0005338555294508058
1326.2555278814991,1326.2555278814991,0.9997871653672717,0.0005334928258745716
1326.2624723601261,1326.2624723601261,1.0000219793884209,0.0005336612518261171
1326.2694168387857,1326.2694168387857,0.9998432615570401,0.000533597297924048
1326.2763613174798,1326.2763613174798,0.9999423365533889,0.0005336547423379263
1326.2833057962082,1326.2833057962082,1.0000534728701613,0.0005335512258529874
1326.2902502749664,1326.2902502749664,1.000084851212001,0.0005335397551783961
1326.2971947537594,1326.2971947537594,1.0002198771698971,0.0005335434448689286
1326.3041392325836,1326.3041392325836,1.0000287316138186,0.0005335830028254181
1326.3110837114393,1326.3110837114393,1.000423604440724,0.0005336617300516614
1326.3180281903255,1326.3180281903255,0.9996849366681845,0.0005334649372100672
1326.3249726692425,1326.3249726692425,0.9992684153213105,0.0005335009357027877
1326.331917148191,1326.331917148191,0.9997196381232311,0.0005335600700351695
1326.3388616271673,1326.3388616271673,0.9999844873914562,0.0005336804892465554
1326.346361664498,1326.346361664498,1.0004435169922994,0.0005338429362845052
1326.3555283768321,1326.3555283768321,0.9995195040836646,0.0005337517095345245
1326.3624728559084,1326.3624728559084,1.0002207221780015,0.0005339910053706383
1326.3694173350127,1326.3694173350127,0.9998874069109496,0.0005338349862702647
1326.3763618141452,1326.3763618141452,1.0012981343642182,0.0005341769391155296
1326.3833062933052,1326.3833062933052,0.9995622925066755,0.0005339488498913255
1326.3902507724924,1326.3902507724924,0.9998437936918168,0.0005340309124688313
1326.397195251705,1326.397195251705,0.9995435309174905,0.000533982629449152
1326.4041397309459,1326.4041397309459,0.9997907582370024,0.0005342272494923697
1326.4110842102118,1326.4110842102118,1.000238412470379,0.0005344252818469323
1326.4180286895028,1326.4180286895028,0.9996226109109612,0.0005343461219399832
1326.4249731688208,1326.4249731688208,1.0012405524333605,0.0005347248041733144
1326.4319176481617,1326.4319176481617,1.0000217976388117,0.0005346340406897278
1326.4388621275286,1326.4388621275286,1.0006783920626177,0.0005348089028441971
1326.4458066069205,1326.4458066069205,0.999824718596346,0.0005347609311979869
1326.4527510863343,1326.4527510863343,0.9991595795865112,0.000534714165112494
1326.459695565774,1326.459695565774,1.000011696828489,0.0005349588000234607
1326.4666400452359,1326.4666400452359,1.0003906967956966,0.0005350295736190732
1326.4735845247212,1326.4735845247212,0.999537126812325,0.000535035747889518
1326.4805290042302,1326.4805290042302,1.0008242758319161,0.0005352901722112311
1326.4874734837597,1326.4874734837597,0.999571246364806,0.0005350891695317305
1326.4944179633144,1326.4944179633144,1.000321707756069,0.0005353352845141262
1326.5013624428877,1326.5013624428877,0.9996273075042081,0.0005352377305669278
1326.5083069224852,1326.5083069224852,0.9996917789298465,0.0005353460800203558
1326.5152514021029,1326.5152514021029,1.0006104629117882,0.000535517793784971
1326.5221958817413,1326.5221958817413,1.0004433335863414,0.0005356585904142073
1326.5291403614012,1326.5291403614012,0.9998920401779415,0.0005356878237614202
1326.5360848410805,1326.5360848410805,0.9995375464285701,0.0005357219858809584
1326.5430293207817,1326.5430293207817,0.9995769387443849,0.0005359040035591904
1326.5499738005005,1326.5499738005005,1.0001231622713656,0.0005361787031609055
1326.5569182802403,1326.5569182802403,0.9999579601346568,0.0005361529052675784
1326.5638627599994,1326.5638627599994,1.000334340116047,0.000536262421079131
1326.5708072397772,1326.5708072397772,1.0005087299177193,0.0005363097013412089
1326.5777517195743,1326.5777517195743,0.9991449191414169,0.0005360833056786135
1326.5846961993896,1326.5846961993896,1.0004430163888915,0.0005364653893041635
1326.5916406792232,1326.5916406792232,1.0002769533111893,0.0005363831671570733
1326.5985851590751,1326.5985851590751,0.9993080129601986,0.0005364021836954513
1326.6055296389447,1326.6055296389447,1.00091855845085,0.0005365050352166409
1326.6124741188303,1326.6124741188303,0.9996063479620559,0.0005364218882414468
1326.6194185987338,1326.6194185987338,0.998749699246089,0.0005363517568194652
1326.6263630786561,1326.6263630786561,1.0003793315529337,0.0005366513006248835
1326.6333075585942,1326.6333075585942,1.000599177381957,0.0005366378594190585
1326.6402520385486,1326.6402520385486,1.0003257801317504,0.0005365369960796001
1326.6471965185185,1326.6471965185185,1.0002050859102034,0.000536529619648219
1326.6541409985052,1326.6541409985052,0.999651195311,0.0005364130049188159
1326.6610854785074,1326.6610854785074,0.9996543603156643,0.0005363101027439289
1326.668029958525,1326.668029958525,1.0005246237725403,0.0005362209103722295
1326.6749744385586,1326.6749744385586,0.99957233543103,0.000536036855936711
1326.6819189186062,1326.6819189186062,1.0001900305615314,0.0005359711576471877
1326.6899745154822,1326.6899745154822,1.0004210736213117,0.0005359335610191359
1326.6971967747645,1326.6971967747645,0.9991530434239813,0.0005354887681647458
1326.70414125486,1326.70414125486,1.0001337903558412,0.0005355519557482126
1326.7116412933788,1326.7116412933788,0.9996491481945504,0.0005352676506634863
1326.719419111119,1326.719419111119,0.9999984677806399,0.0005351322779526414
1326.72636359126,1326.72636359126,0.9996512702228723,0.0005349444392895076
1326.7333080714118,1326.7333080714118,1.0007111374590356,0.0005351049104081818
1326.7402525515786,1326.7402525515786,1.0001342319644535,0.0005349413482852119
1326.7471970317583,1326.7471970317583,1.000863471111903,0.000534965932330823
1326.7541415119515,1326.7541415119515,0.9999408906357967,0.000534816388300022
1326.7610859921554,1326.7610859921554,0.9999515075860831,0.000534776871298779
1326.768030472373,1326.768030472373,0.9999745545407821,0.0005347263352990853
1326.7749749526024,1326.7749749526024,1.0000868037695327,0.0005347111829602209
1326.7819194328451,1326.7819194328451,0.9997180796809595,0.0005346805406457469
1326.7888639130983,1326.7888639130983,0.9992687437084962,0.0005346494895468321
1326.795808393364,1326.795808393364,0.9997889904111862,0.0005347380425251103
1326.8027528736407,1326.8027528736407,1.0000108138085755,0.0005348391071438561
1326.809697353929,1326.809697353929,1.0002449298991496,0.0005348747556023753
1326.8166418342275,1326.8166418342275,0.999198154072786,0.0005347428278998424
1326.8235863145376,1326.8235863145376,1.000437109886891,0.0005349121525337811
1326.8305307948583,1326.8305307948583,1.0006530358575245,0.0005349899042574203
1326.8374752751893,1326.8374752751893,1.000654827717386,0.000534968384822437
1326.8444197555316,1326.8444197555316,0.9995607351625073,0.0005345763186683729
1326.8513642358837,1326.8513642358837,0.9996781490216383,0.0005346388166805042
1326.8583087162456,1326.8583087162456,1.000297552520086,0.000534627707063993
1326.865253196617,1326.865253196617,0.9999618732187665,0.0005344189261419378
1326.8721976769987,1326.8721976769987,0.9994770322556645,0.0005341154174703786
1326.8791421573897,1326.8791421573897,1.0003956733166013,0.0005341784359297971
1326.8860866377897,1326.8860866377897,0.9994960218365246,0.0005337987824516877
1326.8930311181982,1326.8930311181982,1.0000467224194072,0.0005336960590203849
1326.8999755986165,1326.8999755986165,1.0005039436778986,0.0005335108482105201
1326.9069200790432,1326.9069200790432,0.999573681615247,0.0005330253611269426
1326.913864559479,1326.913864559479,0.9998724213399518,0.0005327227927885212
1326.920809039924,1326.920809039924,1.0002903087183788,0.0005325335011162147
1326.9277535203764,1326.9277535203764,1.0006644297576663,0.0005324369513556355
1326.934698000838,1326.934698000838,1.0000719416939332,0.0005319951121059207
1326.9416424813066,1326.9416424813066,0.9999164302435336,0.0005316535381864595
1326.9485869617824,1326.9485869617824,0.9991201308524239,0.0005313116915906381
1326.9555314422666,1326.9555314422666,1.0000792301480277,0.0005312941050364994
1326.9624759227595,1326.9624759227595,1.000582208482569,0.0005311996004206906
1326.969420403259,1326.969420403259,0.9996971531506681,0.0005307583301829566
1326.9763648837638,1326.9763648837638,0.9993404616653407,0.0005305229524612821
1326.983309364278,1326.983309364278,1.0003392620982745,0.0005306157264908522
1326.990253844799,1326.990253844799,1.000468345423597,0.0005305857816238439
1326.997198325326,1326.997198325326,1.0001431306913247,0.0005303275405486086
1327.0041428058598,1327.0041428058598,1.000640507739854,0.000530403862924172
1327.0110872863986,1327.0110872863986,0.9990579036134102,0.0005299914036053999
1327.0180317669478,1327.0180317669478,1.0001013472534557,0.0005301540666774552
1327.0249762474996,1327.0249762474996,0.9998300666083205,0.000530065082761614
1327.03192072806,1327.03192072806,1.000083153236177,0.0005300441460907186
1327.038865208624,1327.038865208624,0.9994630406785948,0.0005299824758716448
1327.0458096891955,1327.0458096891955,0.9997794357353886,0.0005299755572215963
1327.0527541697718,1327.0527541697718,1.0001572899563707,0.0005300369288907126
1327.0605319880244,1327.0605319880244,0.9998947030142954,0.0005301087760176663
1327.0680320270599,1327.0680320270599,1.0012882499011775,0.0005304626792147084
1327.0749765076537,1327.0749765076537,1.0001386521110889,0.0005302042913530294
