time,time,flux,flux_err
1597.9857926413085,1597.9857926413085,0.9999827802859136,0.0010509801221109624
1597.992737303524,1597.992737303524,0.9978599736786237,0.0010467586186542967
1597.9996819657401,1597.9996819657401,0.9997622964685335,0.0010435369978728745
1598.0066266280485,1598.0066266280485,0.9999059925849736,0.0010399494695533414
1598.013571290358,1598.013571290358,1.0008628594384745,0.0010363289381808256
1598.0205159528527,1598.0205159528527,1.0000760279843381,0.001031693803428607
1598.0274606151613,1598.0274606151613,0.9990526803573134,0.0010283480286049419
1598.0344052777498,1598.0344052777498,0.9974655936900181,0.001024281685620054
1598.0413499400584,1598.0413499400584,0.9996940008230037,0.0010214039449353836
1598.0482946027403,1598.0482946027403,1.0004397602781583,0.0010182429294498198
1598.0552392654213,1598.0552392654213,1.0003679888343509,0.0010146547435707185
1598.0627395011174,1598.0627395011174,1.0012032431857727,0.0010108599445747743
1598.0705175233204,1598.0705175233204,0.9991448830314995,0.001006976523461381
1598.0774621860019,1598.0774621860019,1.0006360128870462,0.0010035624326206177
1598.0844068486836,1598.0844068486836,0.9998844612557803,0.0010005644775752415
1598.0913515113648,1598.0913515113648,1.0013716203589151,0.000997054553769636
1598.0982961740465,1598.0982961740465,0.999516878920975,0.000993982340241846
1598.1052408370067,1598.1052408370067,1.000516468313114,0.000990954725439816
1598.1121854998746,1598.1121854998746,0.9995816052615691,0.0009878181487670912
1598.119130162835,1598.119130162835,0.999842988417529,0.0009850736627186232
1598.1260748257032,1598.1260748257032,1.0008330334508897,0.000982529094646666
1598.13301948885,1598.13301948885,1.0005804902672455,0.00097976071365681
1598.1399641518105,1598.1399641518105,1.0004178026753083,0.0009771494686608441
1598.148019960987,1598.148019960987,1.000190678343086,0.0009741861225997193
1598.1552424105478,1598.1552424105478,0.9999340027703358,0.0009722297711793248
1598.1621870736953,1598.1621870736953,0.998825752793447,0.0009696899267026691
1598.1691317368422,1598.1691317368422,1.0013737864173322,0.0009678529983706025
1598.1760764000824,1598.1760764000824,1.0005417154847833,0.0009653652151586157
1598.1830210632297,1598.1830210632297,1.0004834311374293,0.0009632384440437458
1598.1899657264694,1598.1899657264694,1.0004603890891672,0.0009618261978100758
1598.1969103898032,1598.1969103898032,0.9994217720627212,0.0009592530186105397
1598.203855053136,1598.203855053136,0.9992192424454187,0.0009577190743501141
1598.2107997164696,1598.2107997164696,1.0012287239056654,0.0009559703159694027
1598.2177443798025,1598.2177443798025,0.9997693901153166,0.0009540196041320096
1598.2246890432293,1598.2246890432293,0.9995963400298825,0.0009521180364368238
1598.2316337066557,1598.2316337066557,1.0005376295928645,0.0009509696930685952
1598.2385783701752,1598.2385783701752,0.999571726811344,0.0009488408492720785
1598.2455230336022,1598.2455230336022,0.9998715084841237,0.000947551754272615
1598.2524676971211,1598.2524676971211,1.000080535291617,0.0009453257537526332
1598.2594123606411,1598.2594123606411,1.0003659255351716,0.000943871630951029
1598.2663570242535,1598.2663570242535,1.0001499426989005,0.000941768262840682
1598.273301687866,1598.273301687866,0.9999176029830785,0.0009400354148830104
1598.280246351479,1598.280246351479,0.9992396021672392,0.0009379341864355243
1598.2871910151846,1598.2871910151846,0.9996503043315228,0.0009365881481454511
1598.2941356787976,1598.2941356787976,1.0000811170912578,0.0009350530125764175
1598.301080342503,1598.301080342503,1.001028745793149,0.0009333736321955997
1598.3080250062096,1598.3080250062096,1.000404719925444,0.0009316471264740099
1598.314969669915,1598.314969669915,0.9993182331537029,0.0009296112556289862
1598.3219143337142,1598.3219143337142,1.000782581780206,0.000927904878820578
1598.328858997513,1598.328858997513,0.9989308156087304,0.0009260128388848401
1598.335803661405,1598.335803661405,1.0000408103671021,0.0009246282007051616
1598.3427483252042,1598.3427483252042,1.000504105115568,0.0009226622860794081
1598.3496929890957,1598.3496929890957,0.9997792525612897,0.0009209974742783695
1598.3566376528956,1598.3566376528956,0.9999134935159407,0.0009194765924593831
1598.3635823167867,1598.3635823167867,0.9999079584220218,0.0009183411109488882
1598.3705269805864,1598.3705269805864,1.0003656223601247,0.0009166853584334535
1598.3774716446646,1598.3774716446646,1.000501364255264,0.000915634909022117
1598.3844163085564,1598.3844163085564,0.9986167395264512,0.0009138630106488805
1598.3913609726355,1598.3913609726355,1.0002897051566142,0.0009126222055912348
1598.3983056365266,1598.3983056365266,0.9980058579575685,0.0009108634176161875
1598.4052503005128,1598.4052503005128,1.0008494386435838,0.0009101360050299187
1598.4121949645905,1598.4121949645905,1.0001401172260942,0.0009087186992437896
1598.4191396286692,1598.4191396286692,0.9995698126755872,0.0009074338714825641
1598.4260842927474,1598.4260842927474,1.0002454134907524,0.0009067121944667647
1598.4330289568254,1598.4330289568254,1.0008193328554265,0.0009052269837591347
1598.4399736209043,1598.4399736209043,1.0000880442017541,0.0009040174918240691
1598.4469182850755,1598.4469182850755,0.9994277926712799,0.0009028390519057077
1598.4538629491542,1598.4538629491542,1.0005734888225386,0.0009022217493994395
1598.4608076133254,1598.4608076133254,1.0000551567860216,0.000901185454767218
1598.467752277497,1598.467752277497,1.0005623974802689,0.0009004768278183034
1598.4746969416685,1598.4746969416685,0.9993937680356868,0.0008994892792749843
1598.4816416059327,1598.4816416059327,1.0000652807126844,0.0008987002007726398
1598.4885862701049,1598.4885862701049,0.9995895052505389,0.0008977581185678721
1598.4955309343688,1598.4955309343688,0.9997284420566194,0.000897544141618491
1598.502475598634,1598.502475598634,1.000520298730999,0.0008968369813948166
1598.5094202628052,1598.5094202628052,1.0006986569120293,0.0008960741616969867
1598.516364927163,1598.516364927163,0.9998288215430563,0.000895380050316069
1598.5233095914277,1598.5233095914277,1.000097382631331,0.0008949166095095577
1598.5302542556922,1598.5302542556922,0.9992113856228956,0.0008943064627515316
1598.5371989200505,1598.5371989200505,0.999560263158371,0.0008938987187617249
1598.5441435844077,1598.5441435844077,1.001925965280907,0.0008936460014443793
1598.5510882486726,1598.5510882486726,1.000173748633363,0.0008932486489423791
1598.558032913123,1598.558032913123,0.9988220447175227,0.0008934052292743052
1598.5649775773877,1598.5649775773877,0.9997027335809386,0.000892448841736046
1598.5719222418388,1598.5719222418388,0.9994404892760034,0.000892073979608954
1598.5788669061963,1598.5788669061963,1.000882274832554,0.0008919372409567948
1598.5858115705544,1598.5858115705544,0.9998212639728452,0.000891540195940868
1598.5927562350048,1598.5927562350048,0.9999545737733346,0.0008913618527136883
1598.5997008994564,1598.5997008994564,0.9993910025318152,0.000891118355601966
1598.606645563907,1598.606645563907,1.0005342142267641,0.0008916547205255101
1598.6135902282647,1598.6135902282647,1.0000742625080468,0.0008908385617267299
1598.620534892716,1598.620534892716,1.0012878163932233,0.000891217233187389
1598.6274795571658,1598.6274795571658,1.00085282505092,0.0008907009118789231
1598.6344242216178,1598.6344242216178,0.998641934635763,0.000890128207300569
1598.641368886161,1598.641368886161,0.9996741400833331,0.0008902829318850789
1598.6483135505193,1598.6483135505193,1.0009485306761037,0.0008899387313781786
1598.655258215063,1598.655258215063,0.9988924602814657,0.0008890863133435807
1598.6622028795139,1598.6622028795139,0.9992775652218995,0.0008889997694893689
1598.6691475440582,1598.6691475440582,1.000584569643761,0.0008887356498099552
1598.6760922086019,1598.6760922086019,1.000698892457493,0.0008885212325493543
1598.6830368730532,1598.6830368730532,1.0006960675569314,0.0008879184133835693
1598.6899815375969,1598.6899815375969,1.000219994691376,0.0008875050159717309
1598.6969262021407,1598.6969262021407,0.9999702077927335,0.0008870438220317406
1598.703870866685,1598.703870866685,1.0002361463647433,0.0008863263847050466
1598.710815531229,1598.710815531229,1.0009279030470748,0.0008861430065817303
1598.7177601957733,1598.7177601957733,1.0002405733816229,0.0008850673440901465
1598.7247048603167,1598.7247048603167,0.9994903183871177,0.0008844965430255565
1598.731649524861,1598.731649524861,0.9990682378963257,0.0008836786009872018
1598.738594189405,1598.738594189405,1.00006745847245,0.0008837135299724448
1598.7455388540423,1598.7455388540423,1.0004720375996088,0.0008832171806565651
1598.7524835185864,1598.7524835185864,1.0000414753001308,0.000882582319231486
1598.75942818313,1598.75942818313,0.9991420403737022,0.0008824060645394634
1598.7663728477676,1598.7663728477676,1.0007211380010466,0.0008821847146995012
1598.773317512311,1598.773317512311,1.0003297984075847,0.0008817514799822436
1598.7802621769486,1598.7802621769486,0.9994882711567914,0.0008815967441339792
1598.7872068414924,1598.7872068414924,1.0007442356630427,0.0008815894856516926
1598.7941515060363,1598.7941515060363,0.999499750724645,0.0008809261125034225
1598.8010961706736,1598.8010961706736,0.999508586776878,0.0008807421066792014
1598.8080408353105,1598.8080408353105,1.0002669901416739,0.0008802085049131096
1598.8149854998549,1598.8149854998549,0.9998674482434049,0.000879469791607114
1598.8219301644917,1598.8219301644917,1.0008311583793055,0.0008795647804602355
1598.8288748291293,1598.8288748291293,1.000315705772771,0.0008791533993891415
1598.8358194936732,1598.8358194936732,0.9986260125868774,0.0008786436849444731
1598.8427641583105,1598.8427641583105,1.0012177531677324,0.0008784846315304528
1598.8497088228544,1598.8497088228544,0.9996749147192532,0.0008781739594674513
1598.8566534874913,1598.8566534874913,1.000736352525215,0.0008778997360594841
1598.8635981521288,1598.8635981521288,1.0014737573057495,0.0008779380030276382
1598.8705428166722,1598.8705428166722,0.9995531454378958,0.0008775291001727832
1598.8774874813093,1598.8774874813093,1.000350435225211,0.0008767440283340856
1598.884432145947,1598.884432145947,1.0001535642782557,0.0008767809256306853
1598.8913768105836,1598.8913768105836,0.9994539217955227,0.0008760204679688216
1598.8983214751283,1598.8983214751283,0.9995876215653654,0.0008753366000346151
1598.9052661397648,1598.9052661397648,0.9997051824416399,0.0008748477515600353
1598.9122108043093,1598.9122108043093,1.0012216664707172,0.0008744044878739338
1598.9191554689464,1598.9191554689464,0.9997941944176688,0.0008739923456668863
1598.926100133583,1598.926100133583,1.0004243020999593,0.0008738517935849455
1598.9330447981276,1598.9330447981276,0.9998371581804907,0.000873387475135556
1598.9399894627645,1598.9399894627645,0.9999490473276978,0.0008726541528755957
1598.9469341274014,1598.9469341274014,1.0000114330642165,0.0008725513023589779
1598.9538787919457,1598.9538787919457,0.9994441392024802,0.00087195587297089
1598.9608234564894,1598.9608234564894,0.9996771619606502,0.0008712687740316985
1598.9677681211272,1598.9677681211272,1.000178163488891,0.0008712075800333563
1598.9747127856708,1598.9747127856708,1.0003549182212976,0.0008700448418494232
1598.9816574503081,1598.9816574503081,1.000109959981759,0.0008697939035831846
1598.9886021148518,1598.9886021148518,0.9990377765126418,0.0008691472089026398
1598.995546779396,1598.995546779396,1.0000268740041127,0.0008680912039453276
1599.0024914440332,1599.0024914440332,1.0004041811347606,0.0008676887182472372
1599.009436108577,1599.009436108577,0.9998637267577394,0.0008668590005850229
1599.0163807731217,1599.0163807731217,1.000565628686454,0.0008664637735170311
1599.0233254376649,1599.0233254376649,0.9997475560000619,0.0008657429087572116
1599.030270102209,1599.030270102209,1.001813397485377,0.0008655317811353848
1599.037214766753,1599.037214766753,1.0001238106952552,0.0008650279260951004
1599.044159431297,1599.044159431297,1.0003558118550322,0.000864963308369349
1599.0511040958413,1599.0511040958413,1.0011921296174258,0.0008644966875559128
1599.0580487603847,1599.0580487603847,0.9994582890960275,0.0008634316699736112
1599.0649934249293,1599.0649934249293,0.9999545054683434,0.0008627984677922673
1599.0719380894732,1599.0719380894732,0.9990691585332115,0.0008622260180134126
1599.0788827540168,1599.0788827540168,1.0002179595328948,0.0008617429959474208
1599.0858274184684,1599.0858274184684,1.0002646550953023,0.0008615810717141518
1599.0927720830116,1599.0927720830116,1.0004279078069724,0.0008618368415907621
1599.099716747463,1599.099716747463,1.0004244834140796,0.0008607799427163465
1599.1066614120068,1599.1066614120068,1.0001120430902761,0.0008602258843466663
1599.1136060764572,1599.1136060764572,1.0003964176464772,0.0008600637260136159
1599.120550740909,1599.120550740909,0.9995182779278222,0.0008593227807818617
1599.1274954053592,1599.1274954053592,0.9993706098238915,0.0008587723444381799
1599.1344400698106,1599.1344400698106,0.9992659168923612,0.0008578449551213108
1599.1413847343542,1599.1413847343542,0.9996474400357819,0.0008582085406215993
1599.1483293988053,1599.1483293988053,0.9999057842122238,0.000857371680478277
1599.155274063163,1599.155274063163,1.0000804548605928,0.0008571304019802363
1599.1622187276137,1599.1622187276137,0.9999632897070997,0.0008566361446389628
1599.1691633920648,1599.1691633920648,1.0011290859461446,0.0008567195113074778
1599.1761080565152,1599.1761080565152,1.0023564203990456,0.0008569702562456821
1599.18305272078,1599.18305272078,1.0002145774771534,0.0008561344422519455
1599.189997385231,1599.189997385231,0.9994611004297382,0.0008555751385085261
1599.1969420496816,1599.1969420496816,0.9977741443703463,0.0008551315938366532
1599.2038867139465,1599.2038867139465,0.9995022417433697,0.0008548323362805078
1599.210831378397,1599.210831378397,0.9996913494823068,0.0008543886940271847
1599.217776042755,1599.217776042755,0.9998683724139973,0.0008543605691555586
1599.2247207071127,1599.2247207071127,0.9983792440470578,0.0008542251560636387
1599.2316653714702,1599.2316653714702,0.9997520205801284,0.0008541183588665657
1599.238610035735,1599.238610035735,1.0002153195463583,0.0008542471404320951
1599.2455547000923,1599.2455547000923,1.0000784818346724,0.0008535786954416445
1599.2524993643574,1599.2524993643574,0.9998939040773911,0.0008529005790752503
1599.2594440286218,1599.2594440286218,1.0008795117415434,0.0008526429669073503
1599.2663886929795,1599.2663886929795,1.0007055525313568,0.0008519938255432732
1599.2733333572446,1599.2733333572446,1.0003754356432228,0.0008523016789577385
1599.2802780215086,1599.2802780215086,1.000179177081484,0.0008512876178225577
1599.2872226856805,1599.2872226856805,0.9999408795850064,0.0008506172703889479
1599.294167349945,1599.294167349945,0.9987912176183015,0.0008501450109701743
1599.3011120142091,1599.3011120142091,0.9995001875404546,0.000849959183274421
1599.3080566783815,1599.3080566783815,1.0004084534691713,0.000850231827314582
1599.3150013426452,1599.3150013426452,0.9996392466139538,0.0008494070299661297
1599.3219460069101,1599.3219460069101,1.0007676696357044,0.0008494145663752277
1599.3288906709886,1599.3288906709886,1.0002610525192157,0.0008487593220887467
1599.33583533516,1599.33583533516,1.0004234208433695,0.0008479581053414656
1599.3427799993315,1599.3427799993315,0.9994397138574399,0.0008476731960788558
1599.3497246635027,1599.3497246635027,1.0004788921939234,0.0008475665435165455
1599.3566693275811,1599.3566693275811,0.9987013025965655,0.0008466176469509352
1599.3636139917526,1599.3636139917526,1.0001998302635653,0.0008461296134059232
1599.3705586558308,1599.3705586558308,0.9998330325710107,0.0008457311411198138
1599.3775033199095,1599.3775033199095,0.999231940225226,0.0008453738568735773
1599.3844479839875,1599.3844479839875,1.0013749332709885,0.0008449626859528171
1599.391392648066,1599.391392648066,1.0008052791956081,0.0008449990298591119
1599.3983373121441,1599.3983373121441,0.9997811544327527,0.0008443447487971233
1599.4052819761296,1599.4052819761296,1.0006150309738517,0.000844141827476509
1599.412226640115,1599.412226640115,1.0001720155721545,0.0008436933449206005
1599.4191713041926,1599.4191713041926,0.9989538552044227,0.0008429852098582295
1599.4261159681785,1599.4261159681785,0.9999325154572063,0.0008433345574625929
1599.43306063207,1599.43306063207,0.9999220510501337,0.0008429869094755078
1599.4400052961487,1599.4400052961487,0.9994676445917442,0.0008424459114829257
1599.4469499600407,1599.4469499600407,0.9996225702550243,0.0008421408592045133
1599.4538946240257,1599.4538946240257,1.0017126963998264,0.0008423862097732516
1599.4608392879181,1599.4608392879181,1.0007298735834356,0.000842054185033419
1599.4677839518097,1599.4677839518097,0.9988812436039771,0.0008413233719276223
1599.474728615609,1599.474728615609,1.0010055517793075,0.0008418591932888589
1599.4816732795011,1599.4816732795011,0.9987281976263951,0.0008409917306630335
1599.4886179432992,1599.4886179432992,0.9997826339155381,0.0008412526292059257
1599.4955626071924,1599.4955626071924,1.000235332704309,0.0008418967838101463
1599.5025072709907,1599.5025072709907,1.000701494268824,0.0008410674653150272
1599.509451934883,1599.509451934883,1.0012060034719241,0.0008412916815049654
1599.5163965986817,1599.5163965986817,0.9986140572764148,0.0008408442346044632
1599.5233412625735,1599.5233412625735,1.000110576656875,0.0008406247198479525
1599.5302859261865,1599.5302859261865,1.0002111635175144,0.0008404502125309908
1599.5372305899853,1599.5372305899853,1.0010625805122964,0.0008404113783870463
1599.5441752536913,1599.5441752536913,0.9982268712799953,0.0008401688270270379
1599.5511199174903,1599.5511199174903,0.9990019234042091,0.0008397296098443611
1599.5580645811026,1599.5580645811026,1.0005397381208834,0.0008400046474955769
1599.5650092448086,1599.5650092448086,1.000139869571973,0.000840314947785251
1599.5719539085144,1599.5719539085144,0.9994889063222192,0.000839969591811674
1599.578898572127,1599.578898572127,1.0013795896640363,0.0008400944783210065
1599.58584323574,1599.58584323574,1.0006320324017093,0.0008398275666661027
1599.592787899352,1599.592787899352,0.9993760715795315,0.0008403796290470135
1599.599732562965,1599.599732562965,0.9995641036571886,0.0008402933525323437
1599.6066772264844,1599.6066772264844,0.9985263471633969,0.0008408124086645572
1599.6136218900974,1599.6136218900974,1.000976957673343,0.0008405965466083253
1599.620566553524,1599.620566553524,0.9995655810184003,0.0008404163898254621
1599.627511217136,1599.627511217136,1.0001699210276758,0.0008409221897759383
1599.634455880656,1599.634455880656,1.0008035475999268,0.0008411509344178053
1599.6414005440822,1599.6414005440822,0.9991311857883576,0.0008408009052269615
1599.6483452075083,1599.6483452075083,0.9996021594849107,0.0008408427631095547
1599.6552898710283,1599.6552898710283,1.0003986163977103,0.0008416710178997432
1599.6622345344542,1599.6622345344542,1.000076217558793,0.000841283067397082
1599.6691791977878,1599.6691791977878,0.999824809137704,0.0008414372768150172
1599.676123861214,1599.676123861214,1.0008084551651248,0.0008416752238631527
1599.6830685245473,1599.6830685245473,1.0000789594805124,0.0008412344029698462
1599.6900131878806,1599.6900131878806,0.9987310602167216,0.0008415163296362866
1599.6969578513067,1599.6969578513067,1.000623118446859,0.0008417103589305347
1599.7039025145473,1599.7039025145473,1.000408531640634,0.0008405732548571226
1599.7108471777872,1599.7108471777872,0.9987584814789168,0.0008406747483979618
1599.7177918411205,1599.7177918411205,1.000248908954854,0.0008412152605206823
1599.7247365043609,1599.7247365043609,1.0005233282938994,0.0008411667206092305
1599.7316811676005,1599.7316811676005,1.0006223879353922,0.0008409645003433011
1599.7386258307477,1599.7386258307477,1.0002561464451705,0.0008413338357258658
1599.745570493988,1599.745570493988,0.9998588457711014,0.0008410881343788601
1599.752515157135,1599.752515157135,0.9998441118803856,0.0008404925145373478
