time,time,flux,flux_err
1517.3665131916503,1517.3665131916503,1.0005927197491704,0.011607287422037975
1517.375124382594,1517.375124382594,1.0177030468669097,0.010821741092616632
1517.3823466720996,1517.3823466720996,0.9950646328590504,0.010381880300782052
1517.389291181709,1517.389291181709,1.0102211880486127,0.010029794817169561
1517.396235691412,1517.396235691412,0.9967550112485037,0.009706261063036733
1517.4045691036695,1517.4045691036695,0.9869028033549408,0.009349450503483375
1517.411513614024,1517.411513614024,1.001581324561121,0.009082192111850098
1517.4184581248446,1517.4184581248446,0.9973894806634824,0.008830159755062978
1517.4254026358506,1517.4254026358506,1.0001311314253851,0.008599270241414879
1517.4323471469502,1517.4323471469502,0.9992452734183269,0.008386564557515035
1517.439291658795,1517.439291658795,1.0013489497058443,0.008190404548873705
1517.4462361704532,1517.4462361704532,0.9842013619059783,0.00801279705974699
1517.4531806824841,1517.4531806824841,1.0052170619475946,0.00785390438784366
1517.4601251948875,1517.4601251948875,1.0009926545002685,0.0077079146470553
1517.4670697074773,1517.4670697074773,0.9996032808959292,0.007575600090439251
1517.4740142201601,1517.4740142201601,1.0044632453867075,0.007445088361537485
1517.4809587331224,1517.4809587331224,0.990233908236392,0.007325740776599541
1517.487903246271,1517.487903246271,1.0050292510635936,0.0072166971764628714
1517.4948477596058,1517.4948477596058,1.0041049549952887,0.007100883610036869
1517.5017922733127,1517.5017922733127,0.9994342350223494,0.006991832671495878
1517.5087367870206,1517.5087367870206,0.9911559459057072,0.006886061339559104
1517.515681301007,1517.515681301007,1.0016112794390253,0.006785296640688968
1517.52262581518,1517.52262581518,1.0021678752437202,0.006691292399790669
1517.5295703295392,1517.5295703295392,0.9896022631694927,0.006598232593680727
1517.5365148439912,1517.5365148439912,0.9983519529187636,0.006514756356822757
1517.5434593587229,1517.5434593587229,0.9985080527183147,0.0064384463388071885
1517.5504038735478,1517.5504038735478,0.9948412363355283,0.006361377592480332
1517.5573483884662,1517.5573483884662,0.9990206731106074,0.0062875902390802955
1517.5642929035705,1517.5642929035705,0.9982446773208326,0.0062202107812821695
1517.571237418861,1517.571237418861,1.008478084091578,0.006155308210885715
1517.5781819342442,1517.5781819342442,1.0086934284225355,0.006093018244584402
1517.5851264497217,1517.5851264497217,1.0072282555563787,0.006029154861284058
1517.5920709654777,1517.5920709654777,1.0043879958453883,0.005966537994547108
1517.5990154811404,1517.5990154811404,0.9988817124526921,0.005912864081801529
1517.6059599970836,1517.6059599970836,1.003537583493618,0.005858316569475099
1517.6129045131183,1517.6129045131183,0.9931460348515092,0.005807868191656103
1517.6198490291545,1517.6198490291545,1.0049396842150675,0.005755915950497558
1517.6267935455628,1517.6267935455628,1.0075114082575776,0.005700593077258701
1517.6337380617842,1517.6337380617842,0.9942485191114387,0.005654729962152967
1517.6406825782856,1517.6406825782856,0.9966676781616602,0.00560869084204919
1517.6476270947867,1517.6476270947867,0.9952498970383912,0.005564206171148995
1517.6545716113812,1517.6545716113812,1.0012701752544906,0.005524558737321597
1517.6615161280688,1517.6615161280688,1.002607015452073,0.005479866322738473
1517.6684606448493,1517.6684606448493,1.001762078530873,0.005434551486264722
1517.6754051617231,1517.6754051617231,1.002199289176183,0.005391120985553998
1517.6823496786901,1517.6823496786901,0.9937788683039624,0.005354378158587641
1517.6892941956569,1517.6892941956569,0.9944385534949568,0.005307201112365807
1517.6962387127173,1517.6962387127173,0.9894947847814011,0.005270408733949403
1517.70318322987,1517.70318322987,0.9965958806873336,0.005226546721922042
1517.7101277470233,1517.7101277470233,1.0034614155487984,0.005187768883059626
1517.7170722642695,1517.7170722642695,1.000035482366322,0.005148995362358891
1517.7240167817022,1517.7240167817022,1.000792499095123,0.005113509081337314
1517.7309612990416,1517.7309612990416,1.006125302180435,0.005076064278341761
1517.737905816381,1517.737905816381,1.0032426014761127,0.005044406282521033
1517.7448503339067,1517.7448503339067,0.9951086196672797,0.005005142167988091
1517.7517948513391,1517.7517948513391,1.0019089347526227,0.004970615941797631
1517.7587393689582,1517.7587393689582,1.0026339901152277,0.004937236458256081
1517.7656838865769,1517.7656838865769,1.0014287824416774,0.004903641610015561
1517.772628404103,1517.772628404103,0.9966862338634387,0.004866107145590886
1517.7795729217216,1517.7795729217216,0.9984170952214024,0.0048382445351910115
1517.7865174394337,1517.7865174394337,1.0024319473948868,0.004804975393072109
1517.7934619571456,1517.7934619571456,0.9909022293331514,0.004773454950045964
1517.8004064748575,1517.8004064748575,0.9960011604135459,0.004746301676407565
1517.8073509926624,1517.8073509926624,1.0055429213627323,0.00471290092089188
1517.8142955103747,1517.8142955103747,1.0003784890121,0.004677886894153034
1517.821240028273,1517.821240028273,0.9995307083244809,0.004657850916771155
1517.8281845459849,1517.8281845459849,0.9986475982958558,0.0046263341805130535
1517.8351290637897,1517.8351290637897,1.0004564122048978,0.004607859668709007
1517.842073581595,1517.842073581595,0.9980749915869562,0.004576862323312711
1517.8490180994932,1517.8490180994932,1.004542359000967,0.004555671330592385
1517.8559626172982,1517.8559626172982,0.9909999134217026,0.004529218041872457
1517.8629071351966,1517.8629071351966,1.0001999927424419,0.004514817287720315
1517.8698516530017,1517.8698516530017,1.0023679040761315,0.004489597187023198
1517.8767961709002,1517.8767961709002,0.9977993976325552,0.0044661551873908575
1517.8837406887046,1517.8837406887046,1.000375115469754,0.004450345307253424
1517.890685206603,1517.890685206603,1.0024270679870608,0.004437218253295742
1517.8976297244085,1517.8976297244085,1.0017942899819978,0.004427899648661051
1517.9045742423066,1517.9045742423066,1.0020388020043236,0.004411803255136454
1517.9115187601117,1517.9115187601117,0.9981284233124292,0.004399842030232056
1517.9184632779168,1517.9184632779168,0.9991704512163603,0.004388735332624053
1517.925407795815,1517.925407795815,0.9985556327222854,0.00437090559738772
1517.9323523135267,1517.9323523135267,0.9992610588335189,0.004369195704466574
1517.939296831332,1517.939296831332,1.0003531354424238,0.004361783607453771
1517.947352471889,1517.947352471889,0.9982297675439546,0.004346791797342814
1517.9545747703357,1517.9545747703357,0.9996568105470486,0.004347236565148799
1517.9615192881406,1517.9615192881406,1.0017861504199712,0.004327332988560981
1517.9684638057595,1517.9684638057595,1.0012283018709813,0.0043212267233749555
1517.9754083234716,1517.9754083234716,0.9997789972843341,0.00430510235344614
1517.9823528411835,1517.9823528411835,0.9987357041622863,0.004294234600242553
1517.9892973588023,1517.9892973588023,0.9974986601281106,0.004286697632713956
1517.9962418763284,1517.9962418763284,0.9994607265731205,0.0042739580592710495
1518.0031863939466,1518.0031863939466,1.001894056478096,0.004269871341168643
1518.0101309115657,1518.0101309115657,1.004748032517466,0.00427194127602707
1518.0170754290914,1518.0170754290914,1.0015871390790732,0.00425298924837243
1518.0240199465238,1518.0240199465238,0.9937674064160721,0.004242981676583926
1518.0309644640497,1518.0309644640497,1.0011638428723466,0.00423950283449001
1518.0379089814821,1518.0379089814821,1.0000956307574516,0.004234882514025448
1518.0448534988216,1518.0448534988216,0.9971717544851101,0.0042216316416538
1518.051798016161,1518.051798016161,0.9937654995209216,0.004217771574013665
1518.058742533501,1518.058742533501,0.9942922153548551,0.0042083833984340015
1518.0656870507466,1518.0656870507466,1.0001222056092671,0.004199966094967557
1518.0726315679003,1518.0726315679003,1.0051588317268656,0.004191769442194667
1518.0795760851463,1518.0795760851463,0.9991634688367277,0.004183067891124384
1518.0865206022995,1518.0865206022995,1.0026386065158668,0.00417582722357616
1518.0934651195457,1518.0934651195457,0.9959743133663675,0.004170809697104148
1518.1004096365127,1518.1004096365127,1.0046489867583475,0.004160653330443301
1518.1073541535727,1518.1073541535727,1.002819001446525,0.0041649563563663115
1518.1142986705395,1518.1142986705395,0.9959323846489342,0.004137461493231808
1518.1212431875065,1518.1212431875065,0.9964219049803645,0.0041406176778563415
1518.1281877043803,1518.1281877043803,1.000840039381535,0.004135522808686592
1518.135132221254,1518.135132221254,0.9996823259045199,0.004123485127053325
1518.1420767380346,1518.1420767380346,1.0021070513609955,0.004125589706650463
1518.1490212547221,1518.1490212547221,1.0012909110590553,0.004110906420208471
1518.155965771503,1518.155965771503,0.9980458892461354,0.0040978350184012035
1518.162910288097,1518.162910288097,0.9998715687711645,0.004096711914932814
1518.1698548046916,1518.1698548046916,0.9992292756953111,0.004080676208762157
1518.1767993211931,1518.1767993211931,1.0007740463866153,0.0040776847491717045
1518.183743837694,1518.183743837694,0.9983096383219617,0.004069815451458828
1518.1906883541021,1518.1906883541021,1.0028897143516153,0.00406469337278016
1518.1976328704172,1518.1976328704172,1.0014524761800987,0.004058028198290521
1518.204577386825,1518.204577386825,0.9970274408498,0.004047106936877046
1518.211521902954,1518.211521902954,1.000637141443238,0.0040466106460365124
1518.218466419176,1518.218466419176,0.999489731779196,0.0040359591784901675
1518.2254109354908,1518.2254109354908,1.0028392977531129,0.004034401445125397
1518.2323554515265,1518.2323554515265,0.9979857676058808,0.004028220052804272
1518.239299967562,1518.239299967562,0.998064565182317,0.004031115535934325
1518.2462444835044,1518.2462444835044,1.0024987586012875,0.004035334787651604
1518.2531889991674,1518.2531889991674,0.9945526181714976,0.004027533152674999
1518.2601335152033,1518.2601335152033,1.0001329607016258,0.00402155287558071
1518.267355811507,1518.267355811507,0.9973886743443913,0.0040152776361540325
1518.2754114497363,1518.2754114497363,1.0002542330432764,0.004022976190666718
1518.2823559653993,1518.2823559653993,1.0001089823293479,0.004017500529053497
1518.2893004809691,1518.2893004809691,0.998948960437031,0.004011098415971686
1518.296244996446,1518.296244996446,1.0003811551020596,0.004008135995816277
1518.3031895119227,1518.3031895119227,1.0003348657902653,0.004003987292386622
1518.3101340272133,1518.3101340272133,1.002378888678427,0.0040041542486984215
1518.318467445618,1518.318467445618,0.996951578040799,0.003998742207461291
1518.325411960815,1518.325411960815,0.9989641058391783,0.003986696922791311
1518.3323564760128,1518.3323564760128,1.000488197178658,0.003984447824442952
1518.3393009911167,1518.3393009911167,0.997391869644107,0.00398139238656854
1518.3462455061278,1518.3462455061278,1.001536402447244,0.00397699939111197
1518.3531900211392,1518.3531900211392,0.9974831471249743,0.003971753163814737
1518.3601345359639,1518.3601345359639,1.0008750597770768,0.003966445648461938
1518.3670790507888,1518.3670790507888,1.005911559732081,0.003965328630690779
1518.3740235655205,1518.3740235655205,1.0030238163459333,0.003959186662644679
1518.3809680801587,1518.3809680801587,0.9966330500470137,0.003950587056481275
1518.3879125947046,1518.3879125947046,1.001817779618729,0.003952836793200567
1518.394857109343,1518.394857109343,0.997896507554457,0.003945890896575318
1518.4018016237956,1518.4018016237956,0.9989333401739662,0.003942875441040967
1518.4087461381546,1518.4087461381546,0.9984993870643326,0.003946263116352308
1518.4165239941588,1518.4165239941588,1.0001399284574835,0.003944404285256784
1518.4240240695212,1518.4240240695212,1.0008722230628806,0.003939276048468446
1518.4309685836015,1518.4309685836015,1.0002416464070572,0.003935819370972893
1518.437913097774,1518.437913097774,1.004701975046309,0.0039520233559468265
1518.4448576117607,1518.4448576117607,0.9981227481154018,0.003940150774773765
1518.4518021256542,1518.4518021256542,1.0022022722812136,0.003947810940846808
1518.4587466393618,1518.4587466393618,0.9964143866080748,0.003929824706911176
1518.4670800558106,1518.4670800558106,0.9998443790562414,0.003928472851099677
1518.4740245695175,1518.4740245695175,0.9992360966181352,0.003920085923774402
1518.480969083225,1518.480969083225,1.0025675715682505,0.003926657600765215
1518.487913596839,1518.487913596839,0.9992402435074308,0.0039320365497947435
1518.494858110174,1518.494858110174,0.9988474760489996,0.003929166163011243
1518.5018026236016,1518.5018026236016,1.0032161769552523,0.003918658968182876
1518.508747136843,1518.508747136843,1.0064433212574275,0.003922251999847528
1518.5156916500848,1518.5156916500848,0.9963731965344665,0.0039179557779573165
1518.522636163233,1518.522636163233,0.9962477395998034,0.003916486831046589
1518.5295806761956,1518.5295806761956,0.9966689409395146,0.003915124311926621
1518.5365251892506,1518.5365251892506,1.0008829482867851,0.003916905895379763
1518.5434697021196,1518.5434697021196,1.0008694055577927,0.003923761735848081
1518.550414214896,1518.550414214896,0.9993368090319457,0.0039128143150973065
1518.557358727579,1518.557358727579,1.0036318706376286,0.003917517051769121
1518.564303240355,1518.564303240355,1.0009173427830667,0.003913156978776004
1518.5712477529444,1518.5712477529444,0.9974290962906112,0.003915025987437177
1518.5781922653478,1518.5781922653478,0.9998448354468863,0.003912856756620698
1518.5851367777511,1518.5851367777511,0.9993516730755767,0.003908306675484808
1518.5920812900617,1518.5920812900617,1.000096486459256,0.003917357222660762
1518.5990258022784,1518.5990258022784,1.0005254574405384,0.003910226998206678
1518.6059703144026,1518.6059703144026,1.0001391124061993,0.003919415190701178
1518.6129148266198,1518.6129148266198,0.9996957159846307,0.003911482387345921
1518.6198593385573,1518.6198593385573,1.0010467137671761,0.00391145063957942
1518.6268038504018,1518.6268038504018,1.0009524215157632,0.003923225054497586
1518.633748362247,1518.633748362247,0.9968159216522915,0.003914444615528533
1518.6406928739984,1518.6406928739984,0.9993511137716453,0.003906639189365892
1518.6476373856567,1518.6476373856567,1.0015611129534345,0.003909628998960733
1518.6545818971288,1518.6545818971288,1.0003111597835594,0.0039052456145690986
1518.66152640888,1518.66152640888,0.9956468466144244,0.0039030386899305087
1518.6684709202593,1518.6684709202593,1.0064936719391588,0.003918168934263395
1518.6754154315452,1518.6754154315452,0.997207334397368,0.003907921845283301
1518.682359942551,1518.682359942551,1.0008562899386717,0.003912134099725169
1518.689304453837,1518.689304453837,1.0005360135655574,0.0039052698815118664
1518.6962489648436,1518.6962489648436,0.9971994129199426,0.003910905096700183
1518.7031934758502,1518.7031934758502,1.0050727466276677,0.0039136754222677175
1518.7101379867631,1518.7101379867631,0.996762277247259,0.003908084291577373
1518.7170824974903,1518.7170824974903,1.0031162991774578,0.003904829145731701
1518.7240270082173,1518.7240270082173,0.9971406916596488,0.0039037620413429597
1518.7309715189444,1518.7309715189444,1.0034051143547362,0.003908014295951289
1518.7379160293922,1518.7379160293922,0.9979727940073456,0.0039035810451928574
1518.7448605398397,1518.7448605398397,0.9993282581601255,0.0039043737812335362
1518.7518050501942,1518.7518050501942,1.0002861558273586,0.003923662827053484
1518.7587495605487,1518.7587495605487,0.9983706717304752,0.0039038238551504607
1518.7656940707172,1518.7656940707172,0.9968802644057723,0.003897399509452619
1518.7726385807919,1518.7726385807919,1.0030713138945948,0.003907048713993517
1518.7795830908676,1518.7795830908676,0.9977401183710922,0.0038987079636478247
1518.786527600756,1518.786527600756,1.001852719462056,0.003906938663635419
1518.7934721106444,1518.7934721106444,1.0038025906921795,0.003909489549140669
1518.8004166203475,1518.8004166203475,0.9979847880136317,0.003897519831304353
1518.8073611299567,1518.8073611299567,1.0028990592265674,0.0038972254528641184
1518.814305639566,1518.814305639566,0.9982624621928518,0.003907113168439199
1518.8212501490825,1518.8212501490825,0.9981863729105752,0.0038999654378199357
1518.828194658506,1518.828194658506,0.998514373176743,0.003893733045345201
1518.8351391677425,1518.8351391677425,0.9953700792140081,0.003902221422751382
1518.842083676887,1518.842083676887,1.005734846912386,0.0038967072340875563
1518.8490281863099,1518.8490281863099,0.9989548663827508,0.003900817404951671
1518.8559726952674,1518.8559726952674,1.0046391905580943,0.0039021034778478764
1518.8629172039455,1518.8629172039455,1.0021685301409144,0.0039020568769088703
1518.8698617129958,1518.8698617129958,0.9979520027228068,0.003905384638082564
1518.8768062216743,1518.8768062216743,0.9957152037816164,0.0038937075910702433
1518.8837507304454,1518.8837507304454,1.0020097590050503,0.003899628949415316
1518.8906952390303,1518.8906952390303,0.996290326712779,0.003904664338372322
1518.8976397475221,1518.8976397475221,0.99883552889758,0.0038963703767953815
1518.9045842559208,1518.9045842559208,1.0019040299550572,0.0038972259995286676
1518.911528764226,1518.911528764226,1.004462974915214,0.0038992496004162922
1518.9184732724386,1518.9184732724386,1.0004885373952737,0.003900593913872483
1518.9254177805583,1518.9254177805583,1.0006846069374313,0.0039028737561325687
1518.9323622885843,1518.9323622885843,0.9965899129520176,0.0038992559971131233
1518.9393067966105,1518.9393067966105,0.9984352502641742,0.0039013234280063543
1518.9462513044505,1518.9462513044505,1.0022480855112694,0.0038982281883626875
1518.9531958121972,1518.9531958121972,1.0021895883232879,0.0038931713306767967
1518.9601403198515,1518.9601403198515,0.9982641076346843,0.003897124754810833
1518.9670848274116,1518.9670848274116,1.0002838371266987,0.0038978264830404133
1518.974029334972,1518.974029334972,1.0000919094570637,0.0038992628343090746
1518.9809738422532,1518.9809738422532,1.0032836779540621,0.003896676774719436
1518.9879183496275,1518.9879183496275,1.0010503724379693,0.003891234454928248
1518.994862856815,1518.994862856815,1.000319333463088,0.003903780009133434
1519.0018073640035,1519.0018073640035,0.99875378781873,0.0038990658669640276
1519.0087518710054,1519.0087518710054,0.998040282203486,0.0038969135111945304
1519.0156963779136,1519.0156963779136,1.000952606595517,0.003898663572594798
1519.022640884636,1519.022640884636,0.9995821729253407,0.0038938775170105286
1519.0295853913583,1519.0295853913583,0.9993900407169681,0.003899240174640734
1519.036529898081,1519.036529898081,1.0011394867969015,0.003907790166575419
1519.043474404803,1519.043474404803,0.9944431896557484,0.0038918141615935293
1519.050418911153,1519.050418911153,1.0026795933252186,0.003894626364738467
1519.057363417596,1519.057363417596,1.0021126486203136,0.0038945969710489263
1519.0643079238525,1519.0643079238525,0.9985250978555037,0.0038898561020835735
1519.071252430109,1519.071252430109,1.0047398215878325,0.003895085734719612
1519.078196936273,1519.078196936273,0.9987390204775879,0.003884987444444971
1519.0851414421566,1519.0851414421566,0.9972691162532851,0.0038893874168707864
1519.092085948134,1519.092085948134,0.9981729692528681,0.0038829285532951813
1519.099030453925,1519.099030453925,0.9995915699520761,0.0038875182392375425
1519.105974959623,1519.105974959623,1.0039363671168169,0.0038847548352407293
1519.1129194654136,1519.1129194654136,1.0009404546975913,0.0038922153758396603
1519.1198639708327,1519.1198639708327,1.0042441317805553,0.003894551969818786
1519.1268084762507,1519.1268084762507,0.9956198112326842,0.0038955401421648917
1519.1337529816694,1519.1337529816694,0.9972664333239699,0.0038936109092271138
1519.1406974868082,1519.1406974868082,1.0026647453128112,0.003886001745608777
1519.1476419919477,1519.1476419919477,0.9991442304682344,0.0038928069731113068
1519.15458649718,1519.15458649718,0.9974555130966557,0.0038878189490154334
