time,time,flux,flux_err
1410.9092789404324,1410.9092789404324,0.9997948025467016,0.00016015432736453584
1410.9169179881496,1410.9169179881496,1.00037846934204,0.00014623333444376143
1410.9238625770183,1410.9238625770183,1.000162477042324,0.0001462211808701326
1410.9308071657463,1410.9308071657463,1.0000075581807053,0.00014621365802583612
1410.9377517545213,1410.9377517545213,0.9997937117367102,0.00014617944134925513
1410.9446963432497,1410.9446963432497,0.9999573809211014,0.00014619604009077393
1410.951640931885,1410.951640931885,0.9998783538234738,0.00014617470838869276
1410.9585855205673,1410.9585855205673,1.0003328699079739,0.00014622032900847278
1410.9669190268078,1410.9669190268078,0.9999905224705667,0.0001461246203283664
1410.9830304720897,1410.9830304720897,0.9998618095954015,0.0001461310028854165
1410.9905306276466,1410.9905306276466,1.000019741403495,0.00014615386674455313
1411.0002530513075,1411.0002530513075,0.9997412549226145,0.00014604679045019533
1411.0099754749688,1411.0099754749688,1.0001102923294576,0.00014617755008837868
1411.0169200630448,1411.0169200630448,1.0002321222496409,0.00014616078925595882
1411.023864651308,1411.023864651308,1.000121556071513,0.00014613898614443898
1411.0308092393848,1411.0308092393848,1.000160620468702,0.00014613550390724255
1411.0377538274606,1411.0377538274606,0.9999551778105799,0.00014612304667228288
1411.044698415491,1411.044698415491,1.000005758055589,0.00014613603563979317
1411.0527541375027,1411.0527541375027,0.9999653934252895,0.00014611053522997115
1411.0599765088773,1411.0599765088773,1.0002654003361262,0.00014614087711429678
1411.0669210967208,1411.0669210967208,0.9997947340124027,0.00014610805793011211
1411.0738656845176,1411.0738656845176,1.0000149282244986,0.0001461394022498918
1411.0808102722222,1411.0808102722222,0.9998584938029577,0.00014611229844716677
1411.0877548598792,1411.0877548598792,1.0001007782330884,0.0001461287414813293
1411.0946994474434,1411.0946994474434,0.9997382460313864,0.00014613082225022622
1411.1016440349615,1411.1016440349615,1.0001211294460999,0.00014618160087232645
1411.1085886224323,1411.1085886224323,1.0000244147219686,0.00014613363642057776
1411.1155332098108,1411.1155332098108,0.9999859816250612,0.00014612828316709124
1411.1224777971881,1411.1224777971881,0.9997166440965793,0.00014612871185549952
1411.1294223844732,1411.1294223844732,1.000246859442754,0.0001460965548294977
1411.1363669716184,1411.1363669716184,1.000073277458475,0.00014614253554462545
1411.1433115587165,1411.1433115587165,1.0000215328005944,0.00014610921157433035
1411.150256145816,1411.150256145816,1.0000980781286546,0.00014613135955014457
1411.1572007329137,1411.1572007329137,0.999872119369925,0.00014608737066725588
1411.1641453198267,1411.1641453198267,1.0000002128021503,0.0001461176887318638
1411.171089906739,1411.171089906739,1.0002721291567958,0.00014606980636552722
1411.1780344935112,1411.1780344935112,0.9996285158223742,0.00014607631310543665
1411.1849790802848,1411.1849790802848,0.9998872901567534,0.00014608234539499474
1411.1919236669169,1411.1919236669169,0.9997605193160577,0.00014608922010957316
1411.1988682535502,1411.1988682535502,1.000127092025899,0.00014611334988751963
1411.20581284009,1411.20581284009,0.9998654785800412,0.00014607879527129725
1411.212757426536,1411.212757426536,1.00016052031145,0.00014610632273147283
1411.219702012937,1411.219702012937,1.000019847578508,0.00014607419370505818
1411.2266465992434,1411.2266465992434,1.0000583390511149,0.0001460998394551501
1411.2335911854577,1411.2335911854577,1.0000403033379943,0.0001460794592444051
1411.240535771625,1411.240535771625,0.9999430884508321,0.0001460891631606585
1411.2474803577454,1411.2474803577454,0.9997270077417326,0.00014611459597672552
1411.2544249436803,1411.2544249436803,0.9998756576964439,0.0001461029475335459
1411.2613695296145,1411.2613695296145,0.9999848252493642,0.0001461208814795075
1411.2683141155492,1411.2683141155492,1.0000575711034312,0.00014612093558880485
1411.2752587013904,1411.2752587013904,1.0001772056458993,0.0001460783960030028
1411.2822032870915,1411.2822032870915,1.0001959339543833,0.0001461056623724563
1411.2891478727474,1411.2891478727474,0.999944351666832,0.00014609290947251475
1411.2960924582621,1411.2960924582621,1.0000910506546064,0.00014612887399467357
1411.3030370438244,1411.3030370438244,1.0001150334969764,0.00014609774741902365
1411.3099816292465,1411.3099816292465,0.9999626679934888,0.00014613294893226842
1411.3169262145752,1411.3169262145752,0.9999934927676394,0.0001461206802270466
1411.3238707998119,1411.3238707998119,0.9998593230383571,0.0001461233301727925
1411.3308153850007,1411.3308153850007,0.9996097261669463,0.00014607142784621647
1411.3377599700973,1411.3377599700973,1.0001633464099304,0.00014610083185802458
1411.344704555147,1411.344704555147,1.0001822230487474,0.0001461214553047779
1411.3516491400103,1411.3516491400103,0.9999844222630736,0.00014613143179419214
1411.3585937250139,1411.3585937250139,0.9999968902412345,0.00014610682207207728
1411.3655383097837,1411.3655383097837,1.0003742024475877,0.00014611337440302482
1411.3724828944148,1411.3724828944148,0.9999597575127683,0.00014610761919480207
1411.379427479045,1411.379427479045,1.000006901807203,0.0001461503844416955
1411.3863720635825,1411.3863720635825,1.0000179977673294,0.00014611667910506557
1411.3933166480736,1411.3933166480736,0.9999135414414226,0.0001461059384968755
1411.4002612324243,1411.4002612324243,0.9999891174616897,0.00014610437001669993
1411.4072058167299,1411.4072058167299,0.9996894599722779,0.00014608768867097323
1411.4141504008944,1411.4141504008944,0.9998426730846205,0.00014609752840738808
1411.4210949851058,1411.4210949851058,0.9999552228467758,0.00014608860766535638
1411.4280395691312,1411.4280395691312,1.0002241662262559,0.00014613158735073568
1411.4349841531093,1411.4349841531093,1.000075346001114,0.0001461170084778484
1411.4419287369958,1411.4419287369958,1.00011877662459,0.00014607954493836572
1411.4488733207877,1411.4488733207877,1.0000743197810098,0.00014609008863163538
1411.4558179045798,1411.4558179045798,0.9999376614391725,0.00014611193862008903
1411.4627624881864,1411.4627624881864,1.000040628483108,0.00014612812017384083
1411.4697070717455,1411.4697070717455,0.999980209818356,0.0001460989988120314
1411.4766516551663,1411.4766516551663,0.9998983570819077,0.0001461077176289795
1411.4835962385855,1411.4835962385855,0.9999588345708859,0.00014610253018773123
1411.490540821866,1411.490540821866,0.9998807431469233,0.0001461373006450538
1411.4974854050997,1411.4974854050997,1.0000185886946373,0.0001461524307115422
1411.5044299882397,1411.5044299882397,1.0001011121040286,0.00014614659382874198
1411.5113745712874,1411.5113745712874,1.0001833049395243,0.0001461324886212542
1411.5183191542415,1411.5183191542415,0.9999729128657474,0.00014611302465022534
1411.5252637370563,1411.5252637370563,0.9999511899370658,0.0001461368630452356
1411.5322083199173,1411.5322083199173,0.9998656345524978,0.00014613861449739332
1411.539152902592,1411.539152902592,1.000004481418679,0.0001461374369045981
1411.5460974851742,1411.5460974851742,1.0000363752184696,0.00014611558659837054
1411.5530420678485,1411.5530420678485,1.0000590177665702,0.00014613654432449604
1411.5599866502912,1411.5599866502912,0.9999420337229605,0.00014615131895171315
1411.5669312324997,1411.5669312324997,1.000057466871934,0.00014613254424927902
1411.5738758148486,1411.5738758148486,0.9998810019083333,0.00014612809539678816
1411.5808203970578,1411.5808203970578,0.9999178454807829,0.00014611661019573423
1411.5877649791269,1411.5877649791269,1.0002093270028651,0.00014617374814131616
1411.5947095611507,1411.5947095611507,1.000013568405293,0.00014616408445187288
1411.6016541430795,1411.6016541430795,0.999887242471825,0.0001461540390653414
1411.6085987249169,1411.6085987249169,1.0001529920505499,0.00014615991339172966
1411.6155433066604,1411.6155433066604,1.0002085098011362,0.0001461675706777065
1411.6224878883568,1411.6224878883568,1.0000048525863072,0.00014613469335921108
1411.629432469915,1411.629432469915,0.9997600557481989,0.0001461444605038918
1411.636377051425,1411.636377051425,1.0001815055281782,0.0001461829149888881
1411.6433216328428,1411.6433216328428,0.9999308904413156,0.0001461374028547946
1411.6502662141206,1411.6502662141206,1.0000920890599017,0.00014616496395126593
1411.657210795398,1411.657210795398,0.9999184307271172,0.00014616583621118717
1411.66415537649,1411.66415537649,1.0002046020405673,0.00014618008152398666
1411.6710999575812,1411.6710999575812,0.9998474220002832,0.0001461600845634333
1411.6780445385339,1411.6780445385339,1.000100667470965,0.00014616683319956965
1411.6849891194388,1411.6849891194388,0.9998883243701941,0.0001461411066949856
1411.6919337002043,1411.6919337002043,1.0000861122141171,0.00014618145464862742
1411.6988782809235,1411.6988782809235,0.9999457126931578,0.00014617266339327298
1411.7058228615028,1411.7058228615028,0.9997783601863448,0.00014614375643124463
1411.712767442036,1411.712767442036,0.9999866819960742,0.00014615088411946395
1411.719712022475,1411.719712022475,1.0001583363518298,0.00014619042146888972
1411.7266566028222,1411.7266566028222,1.0002359666307858,0.0001461753100764017
1411.733601183122,1411.733601183122,0.9999089397520077,0.00014615589325942536
1411.740545763282,1411.740545763282,1.0000148292248336,0.0001461616654109727
1411.747490343396,1411.747490343396,1.0000362227214823,0.00014617054929028973
1411.754434923323,1411.754434923323,1.0001610770622884,0.00014619177179708566
1411.7613795032512,1411.7613795032512,1.0000196598519833,0.00014617937930745803
1411.7683240830384,1411.7683240830384,0.9999415230322655,0.00014618180822541872
1411.7752686627798,1411.7752686627798,0.9999718051345472,0.00014614939196627233
1411.7822132423814,1411.7822132423814,0.9998856786810588,0.00014617949174002332
1411.7891578219824,1411.7891578219824,0.9998796233637031,0.0001461712811318976
1411.796102401445,1411.796102401445,1.0000387833571214,0.00014617828067401965
1411.803046980813,1411.803046980813,1.0002128968096344,0.0001462159293703288
1411.8099915600887,1411.8099915600887,0.9999521539686722,0.00014616742996911988
1411.816936139271,1411.816936139271,1.0002910727001226,0.00014619800822792087
1411.82388071836,1411.82388071836,0.9999122495807853,0.00014619057591342283
1411.8308252973102,1411.8308252973102,0.999871794653215,0.00014618777732473845
1411.837769876259,1411.837769876259,0.9997900485255891,0.00014614934062213704
1411.8447144552092,1411.8447144552092,1.000043173483347,0.00014618316241618972
1411.851659033926,1411.851659033926,1.0000988073426502,0.0001462080986534279
1411.8586036125494,1411.8586036125494,0.9998745080303113,0.00014619127705918646
1411.8655481911264,1411.8655481911264,1.000474416708592,0.0001462291661687468
1411.8724927696564,1411.8724927696564,0.9999316451381114,0.00014619220187959658
1411.8794373480478,1411.8794373480478,0.9999176121651278,0.00014616766640761136
1411.8863819262983,1411.8863819262983,0.9998583544060837,0.00014618637707984058
1411.8933265045036,1411.8933265045036,1.0000398459569362,0.000146210945685422
1411.9002710826608,1411.9002710826608,1.0000581355000642,0.0001461943449527281
1411.9072156606796,1411.9072156606796,1.0002343077916531,0.00014621008188189002
1411.9141602386512,1411.9141602386512,1.000122771279083,0.0001461926597905363
1411.9211048164364,1411.9211048164364,1.0002597309114818,0.0001461892346625451
1411.9280493942224,1411.9280493942224,0.999986061417591,0.00014620188889369413
1411.9349939719605,1411.9349939719605,0.9998051996522003,0.00014618707877176124
1411.9419385495135,1411.9419385495135,0.9997979975154102,0.0001461718666709418
1411.9488831270191,1411.9488831270191,1.0001065334458665,0.00014620045741698865
1411.9558277044318,1411.9558277044318,1.0000698464940194,0.00014621926920793722
1411.962772281752,1411.962772281752,0.9999465958913223,0.0001462075971163782
1411.9697168590246,1411.9697168590246,1.0003635306159668,0.00014622776076470494
1411.976661436112,1411.976661436112,0.9998296866917566,0.0001461746315135004
1411.9836060131522,1411.9836060131522,1.0000071418061256,0.0001461930148590687
1411.9905505901465,1411.9905505901465,0.9999544422791502,0.00014619812991903332
1411.9974951670006,1411.9974951670006,1.000242594136504,0.000146192941906909
1412.0044397438076,1412.0044397438076,0.9997032323933037,0.00014619060174020365
1412.0113843204292,1412.0113843204292,1.00019687110906,0.00014621530567226094
1412.01832889705,1412.01832889705,1.0000318819065508,0.00014621146074568478
1412.0252734736252,1412.0252734736252,0.999830595478796,0.00014618747474326037
1412.0322180500134,1412.0322180500134,1.0003440553538048,0.0001462075066526806
1412.039162626355,1412.039162626355,0.9999221298573845,0.00014618610408695469
1412.046107202604,1412.046107202604,0.9998886169123823,0.00014612873806534523
1412.0530517787597,1412.0530517787597,0.9999684512760151,0.00014619470398478446
1412.0599963548689,1412.0599963548689,1.000059354420572,0.00014620303227603435
1412.0669409307911,1412.0669409307911,1.000028021582592,0.00014619966268141648
1412.0738855066681,1412.0738855066681,0.9998458010251277,0.0001462095168834532
1412.080830082497,1412.080830082497,1.0001463683533829,0.00014619935103404592
1412.087774658187,1412.087774658187,1.0000847476635952,0.00014618750598711504
1412.0947192338306,1412.0947192338306,1.000104251149055,0.00014619175321468281
1412.1016638092874,1412.1016638092874,1.0000148904158508,0.00014619526162283248
1412.1086083847451,1412.1086083847451,0.9999393990024219,0.0001461962392083457
1412.1155529602017,1412.1155529602017,0.9999697897401754,0.0001462026566352441
1412.1224975354262,1412.1224975354262,1.000132878118559,0.00014620248764401835
1412.1294421106038,1412.1294421106038,0.9999193790508076,0.00014619778639332175
1412.1363866856886,1412.1363866856886,0.9999828661262719,0.00014619777961782392
1412.14333126068,1412.14333126068,0.9999710622886733,0.00014617368073805028
1412.150275835578,1412.150275835578,1.0002736494085505,0.00014621036282709467
1412.1572204104305,1412.1572204104305,0.9998168468032249,0.0001461887878538621
1412.164164985142,1412.164164985142,0.9999433400456936,0.00014620723364770498
1412.1711095598077,1412.1711095598077,0.9998351278530775,0.0001461966301177328
1412.1780541343799,1412.1780541343799,0.9999752591831766,0.00014620109032304426
1412.1849987088126,1412.1849987088126,0.999694662449315,0.00014621326353174367
1412.191943283245,1412.191943283245,1.0002690676548347,0.00014623844824613723
1412.198887857538,1412.198887857538,1.0003309646052891,0.0001462449027476113
1412.205832431692,1412.205832431692,1.0000831189368062,0.00014623858113569312
1412.2127770057978,1412.2127770057978,1.0000120536475972,0.0001462347920426754
1412.2197215798121,1412.2197215798121,0.9999223844757623,0.00014622236911674633
1412.2266661537788,1412.2266661537788,0.9997802210133664,0.0001462142743401148
1412.233610727606,1412.233610727606,0.9998525930204615,0.000146225383015861
1412.240555301387,1412.240555301387,1.0001297852610804,0.00014622154480341428
1412.2474998750272,1412.2474998750272,0.9999791803981539,0.00014621314533641637
1412.2552777974447,1412.2552777974447,0.9999865322442243,0.00014621842319064636
1412.2638890685432,1412.2638890685432,1.0001858659107108,0.00014611550373785998
1412.2738892541747,1412.2738892541747,0.9998922385861218,0.00014613760124836282
1412.2852783542462,1412.2852783542462,0.9998600999558658,0.000146122165614081
1412.2933340590748,1412.2933340590748,1.0005034412193452,0.00014615989032023521
1412.3002786320176,1412.3002786320176,1.0001450477581137,0.00014622320580617347
1412.3072232049603,1412.3072232049603,1.0000949881018646,0.00014621239482946502
1412.3141677777628,1412.3141677777628,0.9997501191756705,0.00014618435455198737
1412.3211123505193,1412.3211123505193,0.999944085542069,0.0001462322604366194
1412.3280569231354,1412.3280569231354,1.000139876387944,0.00014616203091018267
1412.335001495706,1412.335001495706,1.000185236663,0.00014626373258815837
1412.3419460681826,1412.3419460681826,1.000033794503262,0.000146214548597775
1412.3488906405203,1412.3488906405203,0.99983768258157,0.00014614044585013492
1412.355835212857,1412.355835212857,1.0000135114056108,0.00014618088212877488
1412.3627797850081,1412.3627797850081,0.9997685495595305,0.00014613990419865618
1412.3697243572055,1412.3697243572055,1.0001221400444094,0.00014620482716872431
1412.3766689291701,1412.3766689291701,1.0000022998402067,0.0001462247436164335
1412.3836135011352,1412.3836135011352,1.000014319280607,0.00014621485258440288
1412.3905580730059,1412.3905580730059,0.9999476918149025,0.00014622036437471087
1412.3975026447852,1412.3975026447852,0.9998446408092411,0.00014621215774623437
1412.4044472164699,1412.4044472164699,1.0001341829436354,0.0001462053577728563
1412.4113917880622,1412.4113917880622,1.0001096291232088,0.00014617576447744496
1412.4183363595616,1412.4183363595616,1.0000077004556915,0.0001461424485191156
1412.4252809310133,1412.4252809310133,1.000119480133241,0.00014622319458037925
1412.43222550228,1412.43222550228,0.9998061933378205,0.00014621795751150753
1412.439170073499,1412.439170073499,1.0001768834046854,0.00014623361156791356
1412.4461146447193,1412.4461146447193,0.9999000093538781,0.0001461871749891163
1412.453059215752,1412.453059215752,1.0001177343706178,0.00014621956877089557
1412.4600037866926,1412.4600037866926,0.9998983625100888,0.0001461402592638482
1412.4669483577256,1412.4669483577256,0.999890813080975,0.0001461737382080192
1412.4738929285263,1412.4738929285263,0.9999572387681035,0.00014616628316407076
1412.4808374991405,1412.4808374991405,0.9999795134356921,0.00014610384893634526
1412.487782069801,1412.487782069801,1.00020129596578,0.0001462324396585466
1412.4947266403692,1412.4947266403692,0.9998797646754438,0.00014622177605590157
1412.5016712107968,1412.5016712107968,0.9999025744925631,0.00014617154139448006
1412.508615781179,1412.508615781179,0.9999630625919972,0.0001462233825052537
1412.5155603514668,1412.5155603514668,1.000062914257758,0.00014622730104522593
1412.522504921662,1412.522504921662,1.0001010039928995,0.00014625367785063185
1412.529449491764,1412.529449491764,0.9999089048065782,0.00014623182195214475
1412.5363940618195,1412.5363940618195,0.9999340399280042,0.00014623360995689023
1412.5433386317352,1412.5433386317352,0.9998009213161531,0.00014622577518306175
1412.550283201604,1412.550283201604,1.0000325689480722,0.00014624809018129762
1412.5572277713807,1412.5572277713807,1.0001406553034988,0.00014625476910670916
1412.5641723410167,1412.5641723410167,1.0001500966196795,0.0001462442003609319
1412.5711169106532,1412.5711169106532,1.0000452106542908,0.00014624429782493452
1412.5780614801497,1412.5780614801497,0.9999394166998853,0.0001462405440756698
1412.5850060496002,1412.5850060496002,0.9995705683100049,0.0001462027768642061
1412.591950618957,1412.591950618957,1.0001131324636134,0.00014625135489360256
1412.598895188174,1412.598895188174,0.9998381810597967,0.00014621095802675295
1412.6058397573452,1412.6058397573452,1.0002858313310927,0.0001462372376119276
1412.6127843264221,1412.6127843264221,1.0001562445558165,0.0001462348594499053
1412.6197288953608,1412.6197288953608,1.0000220707013685,0.00014621923906380684
1412.6266734643445,1412.6266734643445,1.0004802292436359,0.00014618842176446773
1412.6336180330964,1412.6336180330964,0.9997764055416882,0.00014620135544711677
1412.6405626018482,1412.6405626018482,0.9999303078232187,0.00014621337722667879
1412.6475071705067,1412.6475071705067,1.000121127967971,0.00014623116621974752
1412.6544517390719,1412.6544517390719,0.9998485240465621,0.00014621417310850933
1412.6613963075438,1412.6613963075438,1.0000098015201595,0.00014622681947844138
1412.66834087597,1412.66834087597,1.0000574022430802,0.00014624058025226993
1412.6752854442555,1412.6752854442555,1.000169579582351,0.0001462367805208133
1412.6822300124488,1412.6822300124488,0.999987514672573,0.00014616617895307023
1412.6891745805945,1412.6891745805945,1.0004126901408525,0.00014623682647671706
