time,time,flux,flux_err
1325.300426793362,1325.300426793362,0.9995060790062643,0.0016066557323081234
1325.3087600648842,1325.3087600648842,0.999428089859408,0.001607036367651161
1325.3170933366594,1325.3170933366594,0.9993218154045372,0.0016081108914821913
1325.325426608589,1325.325426608589,1.0025611142028437,0.0016105287706946845
1325.3330654413826,1325.3330654413826,0.9987670825730994,0.0014701444810763088
1325.3400098349737,1325.3400098349737,0.9996482901079169,0.0014721687336255577
1325.346954228705,1325.346954228705,1.0026243412480844,0.001474820987590004
1325.3538986225522,1325.3538986225522,1.0005535841555928,0.0014756689012192295
1325.360843016539,1325.360843016539,0.9992872889609876,0.0014771505523522058
1325.3677874106663,1325.3677874106663,0.9988811787370746,0.0014788076590717396
1325.3747318049325,1325.3747318049325,0.999818917904536,0.0014813362153999823
1325.3816761993155,1325.3816761993155,1.0004442868074814,0.001483188531320516
1325.388620593838,1325.388620593838,0.9985606724422071,0.0014851775281055546
1325.3955649884997,1325.3955649884997,0.998269612138533,0.0014869469871781193
1325.4025093832788,1325.4025093832788,0.9997029515633059,0.0014892804545087195
1325.409453778127,1325.409453778127,1.0019816223972284,0.0014921213755105943
1325.4163981731622,1325.4163981731622,1.0002787554243016,0.0014934140068516228
1325.4233425683365,1325.4233425683365,1.0011393689135204,0.0014952924658597924
1325.4302869635578,1325.4302869635578,0.9995573742797086,0.0014965606342217334
1325.4372313589881,1325.4372313589881,1.0026296080611028,0.0014994788801150117
1325.444175754512,1325.444175754512,1.0000209246491027,0.0014996086704015391
1325.451120150152,1325.451120150152,0.9989693861518051,0.0015002785922731197
1325.4580645458852,1325.4580645458852,0.9990387120188678,0.0015026703214423187
1325.4650089417582,1325.4650089417582,0.9971230711159448,0.0015038496802536505
1325.4719533377709,1325.4719533377709,1.00028780865939,0.0015070847976150386
1325.4788977338767,1325.4788977338767,1.0011542092044678,0.001508961260491525
1325.4858421300987,1325.4858421300987,0.9992273790078912,0.001510897483865647
1325.4927865264376,1325.4927865264376,1.0022387839474451,0.00151385536215995
1325.4997309228695,1325.4997309228695,0.9998024877244625,0.0015149955862920749
1325.5066753194642,1325.5066753194642,1.0005243119995622,0.0015180242903549948
1325.5136197161519,1325.5136197161519,0.9984609748072023,0.0015190736250804916
1325.520564112933,1325.520564112933,0.9984990423866567,0.0015212658853002137
1325.5275085098306,1325.5275085098306,1.0040294265612422,0.0015257823863183352
1325.5344529068211,1325.5344529068211,1.000048019210069,0.0015258436313903556
1325.541397303951,1325.541397303951,0.997389096903824,0.0015276436533515178
1325.5483417011749,1325.5483417011749,1.0001155425455295,0.001530644249991471
1325.555286098491,1325.555286098491,0.9992877186382904,0.0015323098552859757
1325.5622304959475,1325.5622304959475,0.9998787572130341,0.001533778349884464
1325.5691748934737,1325.5691748934737,1.0014909444569207,0.0015363185873443533
1325.5761192911625,1325.5761192911625,1.0002257286859577,0.0015377572151709978
1325.583063688852,1325.583063688852,0.9988858402279014,0.0015382109513213899
1325.5900080867032,1325.5900080867032,1.000754594941439,0.0015409430277912265
1325.596952484672,1325.596952484672,0.9994396615746768,0.001541837381448551
1325.603896882687,1325.603896882687,0.9995497823223516,0.0015424500081431423
1325.6108412808185,1325.6108412808185,1.0001646569477514,0.001544757656699166
1325.6177856790432,1325.6177856790432,1.0015663577362566,0.0015465838365223707
1325.6247300774073,1325.6247300774073,0.9996298888404123,0.0015459206873670323
1325.6316744758183,1325.6316744758183,0.9995732057946369,0.0015463945825551439
1325.6386188743456,1325.6386188743456,1.0000634435042417,0.0015468580128726842
1325.645563272989,1325.645563272989,0.9996253102244467,0.0015468675022250046
1325.6525076716794,1325.6525076716794,1.0014465827038523,0.0015477761607532747
1325.6594520705326,1325.6594520705326,0.9982799303687454,0.0015469037281533441
1325.6663964693857,1325.6663964693857,0.9988976930179401,0.0015476181399872112
1325.6733408683783,1325.6733408683783,0.9998422123880608,0.0015484377706223135
1325.6802852674648,1325.6802852674648,1.0014629161494952,0.0015495363831179603
1325.6872296666206,1325.6872296666206,1.0004790729004915,0.0015507215175167345
1325.6941740658692,1325.6941740658692,0.9997814397631839,0.001550177511917251
1325.7011184651888,1325.7011184651888,1.0006428451908265,0.0015509196630208114
1325.7080628646004,1325.7080628646004,0.9994818299170072,0.0015511608298730203
1325.7150072641289,1325.7150072641289,0.9982003571470399,0.0015506531496379977
1325.7219516637037,1325.7219516637037,1.0005390793032427,0.001553510115047739
1325.7288960633953,1325.7288960633953,0.998760311897571,0.0015534570187323326
1325.7358404631564,1325.7358404631564,1.0005456395461014,0.0015553694982572842
1325.7427848629875,1325.7427848629875,1.0032887937707398,0.0015580037299443015
1325.7497292628882,1325.7497292628882,1.001107772246391,0.0015577348184484016
1325.7566736628594,1325.7566736628594,0.9996380396104495,0.0015589283508942683
1325.763618062993,1325.763618062993,0.9983877700323074,0.0015597021333161834
1325.7705624631267,1325.7705624631267,0.9992127345980993,0.0015604701808541452
1325.777506863354,1325.777506863354,0.9969743646387048,0.0015613870981926773
1325.7844512636739,1325.7844512636739,0.9999637688351098,0.001563593203823541
1325.7913956640637,1325.7913956640637,1.002287246036253,0.001565117674841577
1325.7983400645232,1325.7983400645232,1.0039495658052249,0.0015669955314139433
1325.8052844650763,1325.8052844650763,0.9989185511865806,0.001565601153076909
1325.8122288656755,1325.8122288656755,0.9987473338119713,0.0015668931610216153
1325.8191732663452,1325.8191732663452,0.9973228906758058,0.001566647329784934
1325.8261176671074,1325.8261176671074,1.0004219855366239,0.001568003774453109
1325.8330620679164,1325.8330620679164,0.9999929528531138,0.0015682421223968679
1325.8400064688187,1325.8400064688187,1.0007129701490716,0.0015693112783400375
1325.8469508697672,1325.8469508697672,1.0017375054880138,0.0015693089502871159
1325.8538952708088,1325.8538952708088,0.9993611074022389,0.0015692472686703862
1325.8608396718976,1325.8608396718976,1.0028538483296554,0.0015696810782945328
1325.8677840730325,1325.8677840730325,0.9984830335932307,0.0015670113723263157
1325.8747284743306,1325.8747284743306,0.9985436848280583,0.0015658751242891363
1325.881672875605,1325.881672875605,0.9994424134638755,0.0015656467513279076
1325.8886172769728,1325.8886172769728,0.9989060454781515,0.0015645720061784152
1325.8955616784338,1325.8955616784338,0.9992096371997515,0.0015634491684836014
1325.9025060799179,1325.9025060799179,1.0020829256054133,0.0015638720474833341
1325.9094504814718,1325.9094504814718,1.0010755546936398,0.0015630893867343062
1325.9163948830958,1325.9163948830958,0.9987588691091369,0.0015603944322064736
1325.9233392848125,1325.9233392848125,0.9994905678687666,0.001560999868674842
1325.9302836865068,1325.9302836865068,0.9992983654777626,0.0015600918749449125
1325.93722808834,1325.93722808834,1.0009809659849358,0.001560065560095396
1325.9441724901967,1325.9441724901967,0.9998625724214849,0.0015592433528816884
1325.9511168921003,1325.9511168921003,1.0028867534755261,0.0015597334784573703
1325.9580612940968,1325.9580612940968,0.9992328814222817,0.0015583827621734098
1325.9661168004452,1325.9661168004452,0.9981164792442649,0.0015576547870953853
1325.973338978675,1325.973338978675,1.0001342482726536,0.0015584184164304572
1325.9802833808342,1325.9802833808342,1.000926117415006,0.0015583384524698292
1325.9872277830634,1325.9872277830634,0.9987033952096978,0.0015579188547004282
1325.9941721853625,1325.9941721853625,1.000023981569056,0.0015592200853684225
1326.0011165877083,1326.0011165877083,0.998957766769139,0.0015592369554522465
1326.0080609900538,1326.0080609900538,1.002819451521296,0.0015625181897983432
1326.0150053924929,1326.0150053924929,0.9995987185062042,0.0015622847649299574
1326.0219497950015,1326.0219497950015,1.0009591410320087,0.0015637510840946964
1326.0288941975336,1326.0288941975336,0.9985255185224808,0.0015641045722939162
1326.0358386001585,1326.0358386001585,1.000320640917072,0.001564994326000793
1326.0427830028066,1326.0427830028066,0.9982423340425772,0.0015643609683599474
1326.0497274054785,1326.0497274054785,0.9998260967883439,0.0015643992347406175
1326.056671808243,1326.056671808243,1.0020127345647334,0.0015656971681241622
1326.0636162110545,1326.0636162110545,0.9985761668439844,0.0015651618623533717
1326.070560613889,1326.070560613889,1.0005985864233666,0.0015657974488497875
1326.07750501677,1326.07750501677,1.0021689688681765,0.001566461636976424
1326.0844494197213,1326.0844494197213,0.9987167969322531,0.0015654156544086853
1326.0913938227425,1326.0913938227425,0.9976243154909721,0.0015648031581946878
1326.0983382257632,1326.0983382257632,1.0012626884546834,0.001565995653528945
1326.1052826288774,1326.1052826288774,1.00073970126194,0.0015655695094461603
1326.1122270319909,1326.1122270319909,0.9986041772198799,0.0015647577085789472
1326.119171435175,1326.119171435175,1.000920170283189,0.0015650743115006856
1326.1261158384052,1326.1261158384052,0.9998954099902111,0.0015647747075259912
1326.1330602416595,1326.1330602416595,0.9996954476524318,0.0015652109526899602
1326.1400046449828,1326.1400046449828,1.0008457728064337,0.0015654923196607978
1326.1469490483298,1326.1469490483298,1.0008082445392497,0.0015657319667643876
1326.1538934517462,1326.1538934517462,1.0006471818458704,0.001565342001489254
1326.160837855163,1326.160837855163,0.9986637856088951,0.0015650059828420811
1326.1677822586728,1326.1677822586728,1.0007650528137897,0.0015657408808811113
1326.1747266621824,1326.1747266621824,0.9982717341971702,0.0015644987016888497
1326.181671065739,1326.181671065739,1.0011536313406224,0.0015656765284995284
1326.1886154693652,1326.1886154693652,1.0005572829549298,0.0015652765764571281
1326.1955598729915,1326.1955598729915,0.9974275347236186,0.001564208728225907
1326.2025042766877,1326.2025042766877,1.0002871503397057,0.0015654220641639388
1326.209448680407,1326.209448680407,1.0006083469702631,0.0015650924628950323
1326.216393084173,1326.216393084173,1.0007713616975262,0.0015655072603243014
1326.223337487962,1326.223337487962,1.0011041717178322,0.0015646935835306893
1326.230281891821,1326.230281891821,1.000317211391287,0.001563967452879424
1326.23722629568,1326.23722629568,0.9975364993186302,0.0015636100179750132
1326.2441706995855,1326.2441706995855,1.0003963130563984,0.0015647500801235445
1326.2511151035383,1326.2511151035383,0.9989775986009459,0.0015633676466785748
1326.2580595075367,1326.2580595075367,1.0013215508611863,0.0015644859596358075
1326.2650039115356,1326.2650039115356,1.0001085060776664,0.0015632073844694017
1326.2719483156277,1326.2719483156277,0.9999607217614965,0.0015633562880682482
1326.2788927197194,1326.2788927197194,1.0025268215563874,0.0015641146571329517
1326.2858371238112,1326.2858371238112,0.9981309727400147,0.0015620904709778725
1326.2927815279963,1326.2927815279963,0.9984729520280503,0.0015622591389590787
1326.2997259321585,1326.2997259321585,1.000130372613817,0.001562939554349661
1326.3066703363895,1326.3066703363895,1.0006583942943676,0.0015634744190628947
1326.3136147406449,1326.3136147406449,1.000102895321015,0.0015632901138424831
1326.320559144946,1326.320559144946,1.0002144588151023,0.0015644017865136736
1326.3275035492707,1326.3275035492707,1.00205304888294,0.0015655345068408093
1326.3344479536188,1326.3344479536188,0.9993210827448473,0.0015642903407599013
1326.3413923579901,1326.3413923579901,0.9991564290251119,0.0015648750954450324
1326.3494478671328,1326.3494478671328,0.9988094669897922,0.0015650979093964953
1326.3580589286487,1326.3580589286487,0.9994435034009459,0.001565852179186614
1326.3650033331367,1326.3650033331367,0.9999478445518399,0.0015667490462181219
1326.3719477376476,1326.3719477376476,1.0004544694348128,0.0015677368142399592
1326.3788921422051,1326.3788921422051,0.9979869301119082,0.0015665400641538402
1326.385836546786,1326.385836546786,1.0000400206635929,0.001567633364996341
1326.3927809513666,1326.3927809513666,1.0043395766662926,0.0015697781472892793
1326.399725356041,1326.399725356041,1.0008035786490634,0.0015681353737650356
1326.4066697607145,1326.4066697607145,0.9980870581197484,0.0015676040548286002
1326.4136141653892,1326.4136141653892,1.0007119832351128,0.0015689658405794004
1326.4205585700627,1326.4205585700627,0.9976539725641036,0.0015679593443021645
1326.4275029748069,1326.4275029748069,0.9998227364338323,0.0015693257323313534
1326.4344473795736,1326.4344473795736,0.9995953356558791,0.0015696011686836368
1326.4413917843642,1326.4413917843642,1.0003704600222139,0.0015696603478513069
1326.448336189178,1326.448336189178,0.9999313870861022,0.0015704985641470885
1326.4552805940148,1326.4552805940148,1.0031586964041928,0.0015720486178402424
1326.4622249988752,1326.4622249988752,0.9998761065676092,0.0015714425600829775
1326.469169403782,1326.469169403782,0.9976093910633269,0.0015711186587043942
1326.476113808712,1326.476113808712,1.0001460739166372,0.001572176723546329
1326.483058213619,1326.483058213619,1.0013939159123235,0.0015733441905560475
1326.490002618572,1326.490002618572,0.9994445746883361,0.001573878269615368
1326.4969470235953,1326.4969470235953,0.9996989535031272,0.0015741913209774243
1326.5038914285951,1326.5038914285951,1.0014292149870676,0.0015752680230233592
1326.5108358336188,1326.5108358336188,0.9992623945750415,0.0015756750887160862
1326.5177802386884,1326.5177802386884,0.998884222217453,0.00157623311555131
1326.524724643758,1326.524724643758,1.0011023260167076,0.0015773486765484185
1326.5316690488512,1326.5316690488512,1.000076902039233,0.0015764259040621207
1326.5386134539908,1326.5386134539908,0.999017307561666,0.0015770683874701899
1326.545557859131,1326.545557859131,0.9976056838042604,0.0015777381813999046
1326.5525022642935,1326.5525022642935,0.9993892962280289,0.0015786307378343363
1326.5594466694797,1326.5594466694797,1.003022833245803,0.0015802404076591468
1326.5663910746657,1326.5663910746657,0.9997146490505987,0.0015794522927672478
1326.5733354798754,1326.5733354798754,1.00016566097865,0.0015798616389480907
1326.5802798851314,1326.5802798851314,1.00159413554066,0.0015804351950510255
1326.5872242903874,1326.5872242903874,1.0009164016497132,0.001580668249390582
1326.5941686956671,1326.5941686956671,1.000161287768213,0.0015813434392597183
1326.6011131010162,1326.6011131010162,1.0009899939029068,0.0015811372962005036
1326.6080575063186,1326.6080575063186,0.9970867011327176,0.0015803681746322652
1326.6150019116449,1326.6150019116449,0.9994759431587547,0.0015820947867560512
1326.6219463170169,1326.6219463170169,0.9966771404547392,0.0015810434367087493
1326.6288907223898,1326.6288907223898,1.0014123222328952,0.0015830139791728898
1326.6358351277854,1326.6358351277854,1.000770222993669,0.0015831900445473245
1326.6427795332045,1326.6427795332045,1.0017131693381096,0.0015829381575511708
1326.6497239386233,1326.6497239386233,0.9990049937906132,0.0015819197156411533
1326.6566683440656,1326.6566683440656,1.002546868979354,0.001582509624041336
1326.6636127495317,1326.6636127495317,1.0006347075047475,0.0015809905453472012
1326.670557154997,1326.670557154997,0.9970805182350265,0.0015786421134624082
1326.677501560486,1326.677501560486,1.00040044103193,0.0015794472531659662
1326.684445965998,1326.684445965998,0.9977623910486741,0.001577959568423921
1326.6927792526312,1326.6927792526312,0.9998603837833773,0.0015785025962440538
1326.69972365819,1326.69972365819,1.0013513780707022,0.0015780748457643052
1326.7066680637251,1326.7066680637251,1.0013942803639335,0.0015775307505881153
1326.714445798008,1326.714445798008,1.0020562919561367,0.0015770785445163328
1326.721945756034,1326.721945756034,0.9996493849951229,0.0015753268374379616
1326.7288901616394,1326.7288901616394,0.9990518811507499,0.0015753707654650392
1326.7358345672444,1326.7358345672444,0.9982700857460983,0.0015745188626705708
1326.7427789728965,1326.7427789728965,1.0000474248287712,0.0015746771619337505
1326.7497233785482,1326.7497233785482,0.9990477630426037,0.0015739005152740116
1326.7566677841767,1326.7566677841767,1.0023057338615065,0.001574419828817917
1326.7636121898752,1326.7636121898752,0.9997664907476842,0.001574115813099674
1326.7705565955735,1326.7705565955735,1.0000422662743507,0.0015731967932721687
1326.7775010012488,1326.7775010012488,0.9991131318459052,0.0015726728777828505
1326.7844454069705,1326.7844454069705,0.9974722646973768,0.0015727549516203667
1326.7913898126926,1326.7913898126926,1.0016934210575263,0.0015736405865047851
1326.7983342184373,1326.7983342184373,1.0010182211494398,0.0015735351533208135
1326.8052786241594,1326.8052786241594,1.000103328368296,0.0015728502639127252
1326.8122230299502,1326.8122230299502,1.0014593034196024,0.001573869927838665
1326.8191674357188,1326.8191674357188,0.9990405763774064,0.001573175839315309
1326.826111841487,1326.826111841487,0.9979936882432934,0.001572249671957358
1326.8330562472788,1326.8330562472788,1.0015083235341595,0.0015737472768676312
1326.840000653117,1326.840000653117,0.999797418046821,0.0015727666363518776
1326.846945058955,1326.846945058955,0.9992453235858942,0.0015724559500428018
1326.8538894647932,1326.8538894647932,1.0006713555037812,0.0015725647427013163
1326.8608338706313,1326.8608338706313,1.0004480723316997,0.0015719422565284632
1326.8677782764696,1326.8677782764696,1.0005804226436747,0.001571256974894583
1326.8747226823077,1326.8747226823077,0.999125951174246,0.0015697924544810168
1326.8816670881458,1326.8816670881458,0.9994431868238294,0.0015696015641022323
1326.8886114939842,1326.8886114939842,1.000045811229476,0.0015689566428076728
1326.8955558999382,1326.8955558999382,1.0010345201370132,0.0015678211229764399
1326.9025003057768,1326.9025003057768,0.9997214295419632,0.0015662422306667108
1326.909444711731,1326.909444711731,1.0003497833834385,0.0015646441880314982
1326.9163891176158,1326.9163891176158,0.9961692944461384,0.0015616474725881355
1326.923333523524,1326.923333523524,1.001246590533949,0.0015626346343379793
1326.9302779294785,1326.9302779294785,0.999338291644994,0.0015599176493980862
1326.9372223354098,1326.9372223354098,1.001256012597904,0.0015594042721076102
1326.944166741364,1326.944166741364,0.9981936626891639,0.001556719452924496
1326.951111147319,1326.951111147319,1.0004188918392702,0.001556479513935153
1326.9580555532732,1326.9580555532732,1.0012726062676471,0.0015557135168696556
1326.9649999592282,1326.9649999592282,0.9992260712989911,0.0015539546008966336
1326.971944365229,1326.971944365229,1.0012256634974634,0.0015527438018383079
1326.9788887712068,1326.9788887712068,0.9984924092188262,0.001551465465862666
1326.985833177185,1326.985833177185,1.000279373980044,0.001550795157174596
1326.9927775831861,1326.9927775831861,0.9973102867951408,0.0015488270011589673
1326.999721989187,1326.999721989187,1.0004123426874665,0.0015496432821057653
1327.0066663951882,1327.0066663951882,1.002168949422229,0.0015497058388840867
1327.0136108012125,1327.0136108012125,1.000652881565071,0.00154890595613216
1327.020555207237,1327.020555207237,1.0002543973790077,0.0015484638714701729
1327.0274996132614,1327.0274996132614,1.0007289961753698,0.0015488098675131962
1327.0344440193091,1327.0344440193091,0.9993038042103803,0.0015481270139754285
1327.0413884253335,1327.0413884253335,0.9986539525246659,0.001547401645529419
1327.0483328313812,1327.0483328313812,1.0002116895457744,0.0015486766374174573
1327.055277237429,1327.055277237429,0.999801524874011,0.0015479524026000562
1327.0633327484807,1327.0633327484807,0.9987126310661999,0.001548249205278373
1327.0705549307618,1327.0705549307618,1.0010414834232695,0.001549144785019537
1327.0774993368327,1327.0774993368327,1.001497875702984,0.0015491889673594707
