time,time,flux,flux_err
1517.362737882306,1517.362737882306,0.9972218796419465,0.0007915153478393131
1517.3729230962253,1517.3729230962253,0.9993030497308121,0.000778882762676369
1517.3812564534767,1517.3812564534767,1.000141549389049,0.000769356602724492
1517.3888953645965,1517.3888953645965,1.0023957205257399,0.0006949855118166374
1517.3966731653145,1517.3966731653145,1.000297725011517,0.0006882770020857295
1517.4041731877055,1517.4041731877055,0.999599632458555,0.0006815529806962867
1517.4111176531237,1517.4111176531237,1.0016553997039526,0.0006765904013299616
1517.418062118766,1517.418062118766,1.0004549483573077,0.0006715234663426091
1517.4250065846268,1517.4250065846268,1.0003433622351159,0.0006671315874685728
1517.4319510507025,1517.4319510507025,1.0011115809782574,0.0006634018036952097
1517.4388955169884,1517.4388955169884,1.0006907120487198,0.0006601875780563013
1517.4458399834832,1517.4458399834832,1.0002304800100028,0.0006574040119327327
1517.452784450185,1517.452784450185,1.0004853949281947,0.0006548787579368132
1517.4597289170786,1517.4597289170786,1.0002373762295869,0.0006528972675479267
1517.4666733841734,1517.4666733841734,1.0009356571525712,0.0006510511798801641
1517.473617851454,1517.473617851454,1.0002258963989905,0.0006495732139933099
1517.4805623189302,1517.4805623189302,0.9981669711911506,0.0006479998937073735
1517.4875067865833,1517.4875067865833,1.0008120891283576,0.0006467049888198629
1517.49445125442,1517.49445125442,0.9999848931687062,0.0006451645490113671
1517.5013957224342,1517.5013957224342,1.0006215123248379,0.0006439550086177932
1517.5083401906234,1517.5083401906234,0.9995200149546193,0.0006419616024373972
1517.5152846589783,1517.5152846589783,0.9983921007614173,0.0006398024190318255
1517.5222291274986,1517.5222291274986,0.998439206875695,0.0006373831225844346
1517.5291735961853,1517.5291735961853,0.9992395254763224,0.0006349805542206564
1517.5361180650289,1517.5361180650289,0.9983029737343306,0.0006324960523964611
1517.543062534033,1517.543062534033,0.9984166422653779,0.0006297200987675037
1517.550007003191,1517.550007003191,0.9992231435471519,0.0006268898306339117
1517.5569514725,1517.5569514725,0.9991118525717309,0.0006238055225519367
1517.5638959419553,1517.5638959419553,1.0011482162874121,0.0006211272607421593
1517.5708404115496,1517.5708404115496,1.000117149097092,0.0006174545325910538
1517.5777848812927,1517.5777848812927,1.0013523377304658,0.0006145756511684768
1517.58472935117,1517.58472935117,1.0009350204274843,0.0006117532133068364
1517.5916738211922,1517.5916738211922,1.0018893605145007,0.0006085816776163722
1517.5986182913396,1517.5986182913396,1.0008422666523242,0.0006060795081976293
1517.6055627616183,1517.6055627616183,0.9989188714013431,0.0006028766694205161
1517.612507232025,1517.612507232025,0.9995348024700019,0.0006007671614613599
1517.6194517025626,1517.6194517025626,0.9998111895014883,0.0005983480659011949
1517.6263961732195,1517.6263961732195,1.0002138753908452,0.0005962142932112037
1517.6333406439985,1517.6333406439985,0.9997852071541102,0.0005944568844249192
1517.6402851148969,1517.6402851148969,1.0005825655056637,0.0005929394759672166
1517.6472295859091,1517.6472295859091,1.0000422506921243,0.0005909300994617406
1517.6541740570374,1517.6541740570374,0.9992197764192439,0.0005891194012840709
1517.6611185282734,1517.6611185282734,0.9992227038102783,0.0005870906271083256
1517.6680629996201,1517.6680629996201,1.0000075758786218,0.0005861526878056317
1517.6750074710772,1517.6750074710772,1.0001051081596215,0.0005848394469273636
1517.6819519426335,1517.6819519426335,1.0007757242736097,0.0005836857699250885
1517.6888964142975,1517.6888964142975,1.0014837132008805,0.0005829997722346999
1517.6958408860603,1517.6958408860603,1.0006520337130216,0.0005820378304752104
1517.702785357922,1517.702785357922,1.0013282333842302,0.0005815704297387123
1517.7097298298856,1517.7097298298856,1.0013343309636835,0.0005812742022109517
1517.7166743019366,1517.7166743019366,0.9995742154882852,0.0005810854793592453
1517.7236187740868,1517.7236187740868,0.9995179598992919,0.0005805767542736474
1517.7305632463238,1517.7305632463238,1.000319204961529,0.000580577021402824
1517.7375077186516,1517.7375077186516,0.9999615763514651,0.0005807654140218029
1517.744452191069,1517.744452191069,0.9996826195304026,0.0005812275862265273
1517.751396663571,1517.751396663571,1.000640217338922,0.0005809711647451559
1517.7583411361577,1517.7583411361577,0.9987335464634409,0.0005810503895614978
1517.7652856088255,1517.7652856088255,1.0012195842554568,0.0005810158939077961
1517.772230081575,1517.772230081575,1.0008340050320415,0.0005807249446756243
1517.7791745544032,1517.7791745544032,0.9996769415229092,0.0005802471225594236
1517.78611902731,1517.78611902731,0.9987437868023669,0.0005791597935139062
1517.7930635002947,1517.7930635002947,0.9987641583708985,0.0005784561329941536
1517.8000079733556,1517.8000079733556,0.9971086218250529,0.0005774444346752046
1517.8069524464834,1517.8069524464834,0.9987118641593081,0.0005756052846374512
1517.8138969196903,1517.8138969196903,0.9982805852621123,0.000573577219758747
1517.8208413929606,1517.8208413929606,0.9992810503400283,0.0005717119283231333
1517.8277858663005,1517.8277858663005,0.9996809745940254,0.0005698548135399468
1517.8347303397136,1517.8347303397136,0.9997126459353745,0.0005680586241215299
1517.8416748131906,1517.8416748131906,0.9999339411969089,0.0005658197140399443
1517.848619286735,1517.848619286735,1.0017671844572604,0.0005637558697757192
1517.8555637603429,1517.8555637603429,1.0020249125744873,0.0005619078777936168
1517.862508234006,1517.862508234006,1.0018139883811783,0.000560010170496658
1517.8694527077332,1517.8694527077332,1.0009461609537118,0.0005580570425706575
1517.8763971815276,1517.8763971815276,1.0002807323348213,0.0005559796785947483
1517.8833416553741,1517.8833416553741,0.9999366712659021,0.0005546539561612168
1517.8902861292793,1517.8902861292793,0.9987842809990097,0.0005528862440458218
1517.8972306032424,1517.8972306032424,1.0001210168295949,0.0005517052650464581
1517.9041750772606,1517.9041750772606,0.99952479974912,0.0005505465339241622
1517.9111195513317,1517.9111195513317,0.9997941273457294,0.0005495682186314166
1517.9180640254576,1517.9180640254576,0.9992250293131517,0.0005485651466172372
1517.925008499636,1517.925008499636,0.9995766672267503,0.0005480550173821588
1517.9319529738666,1517.9319529738666,0.999925587895459,0.0005473919129634736
1517.939453006089,1517.939453006089,1.000016539054982,0.0005468083388289579
1517.94723081734,1517.94723081734,1.000926325614531,0.0005466314023482972
1517.9541752917253,1517.9541752917253,1.0004816561299625,0.0005464045895152131
1517.9611197661625,1517.9611197661625,1.0009894270918855,0.0005461926289517632
1517.9680642406438,1517.9680642406438,1.0012663338529344,0.0005466382693182961
1517.9750087151654,1517.9750087151654,1.0008478164594614,0.0005467585522045612
1517.9819531897313,1517.9819531897313,1.0000006485144697,0.000547141881594778
1517.9888976643463,1517.9888976643463,1.0001362813456969,0.0005476988646239806
1517.9958421389933,1517.9958421389933,0.999629926615331,0.0005485020122467583
1518.0027866136898,1518.0027866136898,1.0005425084406672,0.0005491018854254734
1518.009731088427,1518.009731088427,1.001048111626806,0.0005502643040709036
1518.0166755632022,1518.0166755632022,1.0005895319710398,0.000551357893021598
1518.023620038021,1518.023620038021,0.9987395479882958,0.0005520831540806789
1518.0305645128747,1518.0305645128747,0.9993018276570037,0.0005525143579571886
1518.0375089877602,1518.0375089877602,1.0005019005805118,0.0005532684025015167
1518.0444534626863,1518.0444534626863,1.0001122864936236,0.0005536866071254176
1518.0513979376537,1518.0513979376537,0.9993510216071915,0.000554119493904077
1518.0583424126526,1518.0583424126526,0.9991211043423297,0.0005539738128111931
1518.0652868876841,1518.0652868876841,0.9987376062684366,0.0005535153077429374
1518.0722313627502,1518.0722313627502,0.9989743493342559,0.0005531230728667708
1518.0791758378484,1518.0791758378484,0.9980983956931777,0.0005522181710893072
1518.0861203129812,1518.0861203129812,0.9987106627019651,0.0005514281266244556
1518.0930647881437,1518.0930647881437,0.998868997210776,0.0005500557211052146
1518.1000092633435,1518.1000092633435,0.9993883204671639,0.0005489774866745848
1518.106953738567,1518.106953738567,1.0003367419899027,0.0005473013641886038
1518.1138982138223,1518.1138982138223,1.000238735426227,0.00054622017361491
1518.120842689104,1518.120842689104,1.0006291461080365,0.0005444989361153415
1518.127787164417,1518.127787164417,1.0010925333303937,0.0005431935937349827
1518.1347316397569,1518.1347316397569,1.0021068105679398,0.0005416091547300298
1518.1416761151256,1518.1416761151256,1.0022397514357062,0.0005401600579498023
1518.1486205905203,1518.1486205905203,0.9998709388613445,0.0005384439261703339
1518.1555650659416,1518.1555650659416,0.9999559244704311,0.0005377401798909449
1518.162509541386,1518.162509541386,0.999853123318433,0.0005361383299901094
1518.169454016857,1518.169454016857,0.9989560544349014,0.0005352496636251669
1518.176398492351,1518.176398492351,0.9996111637838162,0.0005343870633726215
1518.1833429678682,1518.1833429678682,0.999966412980443,0.000533582498269842
1518.1902874434145,1518.1902874434145,0.9991863985562622,0.0005328360505831285
1518.1972319189783,1518.1972319189783,0.9997261459755837,0.000532499681810762
1518.2041763945654,1518.2041763945654,0.9994123496929461,0.000532189122692329
1518.2111208701758,1518.2111208701758,1.0007257386645712,0.000531888377450492
1518.2180653458092,1518.2180653458092,0.9996684987081945,0.0005315350249219265
1518.2250098214574,1518.2250098214574,1.0011156674514357,0.0005320487897783411
1518.2319542971295,1518.2319542971295,1.0007664734895172,0.0005317787010063871
1518.2388987728207,1518.2388987728207,1.0015689409849409,0.0005327210546673439
1518.24584324853,1518.24584324853,1.0011907950503809,0.0005332784290057089
1518.2527877242599,1518.2527877242599,1.0012413510730895,0.0005337714470344252
1518.2597322000097,1518.2597322000097,0.9993012803154449,0.000534301222007073
1518.2677877918995,1518.2677877918995,0.9996074904574348,0.0005352034137486213
1518.2750100467165,1518.2750100467165,1.0001845690377267,0.0005364284997271149
1518.2819545225243,1518.2819545225243,1.0003640193233474,0.0005378998092005129
1518.2888989983446,1518.2888989983446,1.0004784494423695,0.0005386030870271407
1518.2958434741818,1518.2958434741818,0.9990463317452416,0.0005394219132870877
1518.3027879500337,1518.3027879500337,1.000388678803156,0.0005403331423241198
1518.3105657630053,1518.3105657630053,1.0009739367984605,0.0005416595893767771
1518.3180657969647,1518.3180657969647,0.9986399289543393,0.0005417926162042293
1518.3250102728628,1518.3250102728628,0.9989774183006548,0.000542089889648483
1518.3319547487822,1518.3319547487822,0.9984499411197165,0.0005417977104293715
1518.3388992247067,1518.3388992247067,0.9980923271667775,0.0005413817667635487
1518.3458437006516,1518.3458437006516,0.998761648450112,0.000541329039769138
1518.3527881766054,1518.3527881766054,0.9987536270453449,0.0005406775561421291
1518.3597326525737,1518.3597326525737,0.9988243403093844,0.0005393477678582616
1518.366677128557,1518.366677128557,1.0001529336128638,0.0005386011093507146
1518.3736216045456,1518.3736216045456,0.9994544182259937,0.0005371771645458796
1518.3805660805515,1518.3805660805515,1.0003599916203232,0.0005363550280130654
1518.3875105565694,1518.3875105565694,1.0011517235895708,0.000534907068707247
1518.39445503259,1518.39445503259,1.0013346169531079,0.0005338285133360404
1518.401399508628,1518.401399508628,1.0011219830762232,0.0005323513083265875
1518.4086217637189,1518.4086217637189,1.001307095914361,0.0005311171529041051
1518.416677355946,1518.416677355946,1.0008026668859624,0.0005295619412775952
1518.4236218320134,1518.4236218320134,1.0005018273016915,0.0005286822457537969
1518.4305663080952,1518.4305663080952,0.9996145945333433,0.0005281099334508623
1518.4375107841768,1518.4375107841768,0.9990627946496684,0.000526806057168913
1518.4444552602795,1518.4444552602795,0.9997495663971833,0.0005267908807327041
1518.4513997363815,1518.4513997363815,1.000034776119215,0.0005261615614779042
1518.459177549629,1518.459177549629,0.998432907692459,0.0005250944341887178
1518.4666775838389,1518.4666775838389,0.9997707634949844,0.0005249837936571085
1518.4736220599702,1518.4736220599702,1.0002461991225573,0.0005244718341529621
1518.4805665361043,1518.4805665361043,0.9998338024268509,0.0005244032580263098
1518.4875110122507,1518.4875110122507,1.0004435363688795,0.0005243238430429012
1518.4944554883991,1518.4944554883991,1.0003397112790895,0.000524651388078444
1518.5013999645569,1518.5013999645569,1.00116880094208,0.0005249643822700696
1518.5083444407198,1518.5083444407198,1.0016852066448956,0.0005254646465375184
1518.515288916889,1518.515288916889,1.000785959180439,0.0005257263015239359
1518.522233393064,1518.522233393064,1.001230590062697,0.0005266303231653197
1518.529177869245,1518.529177869245,0.9999809136841142,0.0005276986924706986
1518.5361223454315,1518.5361223454315,0.9995075780078331,0.0005280808359547486
1518.5430668216209,1518.5430668216209,1.0001091214889974,0.0005296674713323046
1518.5500112978193,1518.5500112978193,1.0005585581654464,0.0005304756138336146
1518.5569557740205,1518.5569557740205,0.9999120199273044,0.0005317997859548868
1518.5639002502216,1518.5639002502216,0.9999407326188889,0.0005329789245639291
1518.5708447264285,1518.5708447264285,0.9990156325772069,0.0005341914333405967
1518.5777892026413,1518.5777892026413,1.0001369080150384,0.0005352146664170193
1518.584733678857,1518.584733678857,1.0002072796543788,0.0005360541808973868
1518.5916781550757,1518.5916781550757,0.9994729479055338,0.0005363087525187269
1518.5986226312973,1518.5986226312973,0.9990858044987189,0.0005365855322875362
1518.6055671075244,1518.6055671075244,0.9976415132412116,0.0005366234939832926
1518.6125115837517,1518.6125115837517,0.9984891857131343,0.0005366681805700012
1518.619456059985,1518.619456059985,0.9991152142659319,0.0005361343163196584
1518.6264005362095,1518.6264005362095,0.9980769123123601,0.0005352966626592443
1518.6333450124457,1518.6333450124457,0.9994857014660328,0.0005347984497004585
1518.6402894886817,1518.6402894886817,0.9997373342793962,0.0005343565744551791
1518.6472339649263,1518.6472339649263,1.0005737205828251,0.0005328964911372573
1518.6541784411684,1518.6541784411684,1.000296706972406,0.0005315441067513106
1518.6611229174046,1518.6611229174046,1.0011815839098266,0.0005310351196730949
1518.668067393652,1518.668067393652,1.0020191577736899,0.0005298176092033952
1518.675011869891,1518.675011869891,1.0018483469695352,0.0005292126083442394
1518.6819563461388,1518.6819563461388,1.0002886560680166,0.0005281967630210957
1518.6889008223836,1518.6889008223836,1.0009231166347543,0.0005272838909630435
1518.6958452986285,1518.6958452986285,1.0005248382542142,0.0005267239696451348
1518.7027897748762,1518.7027897748762,0.9993494205877427,0.0005257259434658413
1518.709734251121,1518.709734251121,0.9992129232398396,0.0005248755517473498
1518.716678727366,1518.716678727366,0.9989780992257605,0.000524473260296192
1518.7236232036137,1518.7236232036137,0.9990911911991793,0.0005240739755332342
1518.7305676798583,1518.7305676798583,0.9987464367007532,0.0005238638286094491
1518.7375121561033,1518.7375121561033,1.0004099994770246,0.0005243781553556273
1518.744456632348,1518.744456632348,1.000011041840024,0.0005238678548987769
1518.7514011085896,1518.7514011085896,0.9999971801220416,0.0005236591526904036
1518.7583455848319,1518.7583455848319,1.0004992596632412,0.0005241367816339398
1518.7652900610763,1518.7652900610763,1.001110945540412,0.0005241142224569201
1518.7722345373127,1518.7722345373127,1.0013375869377232,0.0005243521860623805
1518.7791790135489,1518.7791790135489,1.0016140827266458,0.0005260445325882096
1518.7861234897846,1518.7861234897846,1.0014871408746793,0.0005260399147058713
1518.793067966021,1518.793067966021,1.0004337300691837,0.000526852078692801
1518.800012442257,1518.800012442257,0.9990267694867937,0.0005271616370064291
1518.80695691849,1518.80695691849,0.9997214669145986,0.0005283737827039808
1518.8139013947148,1518.8139013947148,0.9997590774184104,0.0005291821928554044
1518.820845870942,1518.820845870942,0.9997314193731407,0.0005302124363529393
1518.8277903471665,1518.8277903471665,0.9991198590234177,0.0005314235452421261
1518.8347348233883,1518.8347348233883,0.9992526567760958,0.0005325637464451512
1518.8416792996068,1518.8416792996068,1.0010543595707178,0.0005335962669145583
1518.8486237758223,1518.8486237758223,1.0016093463736206,0.0005350782781586936
1518.8555682520353,1518.8555682520353,1.0003800254614563,0.0005351379960396167
1518.8625127282448,1518.8625127282448,0.9992556671693894,0.0005355890660420002
1518.8694572044517,1518.8694572044517,0.9991134937765253,0.0005357427262059233
1518.876401680653,1518.876401680653,0.9980176249242781,0.0005356335660276841
1518.8833461568543,1518.8833461568543,0.9982070756665401,0.0005355280635917517
1518.8902906330493,1518.8902906330493,0.9985713502031102,0.0005351756059081799
1518.8972351092418,1518.8972351092418,0.997798320756786,0.0005341810326396406
1518.9041795854287,1518.9041795854287,0.9995262686040262,0.000533894829513785
1518.911124061615,1518.911124061615,0.9993932150202527,0.0005327509760315134
1518.918068537796,1518.918068537796,1.0008135666979567,0.00053203070204506
1518.9250130139678,1518.9250130139678,0.999878177145438,0.0005306260112169375
1518.931957490146,1518.931957490146,1.001945891136143,0.0005299034766944941
1518.938901966309,1518.938901966309,1.001428470869302,0.0005294048917228692
1518.9458464424724,1518.9458464424724,1.0025057737144263,0.0005281287875439683
1518.9527909186302,1518.9527909186302,1.0004710176380063,0.0005270228987936742
1518.9597353947847,1518.9597353947847,1.0007066724490734,0.0005263550748323059
1518.9666798709302,1518.9666798709302,0.9996875277048038,0.0005254375072017727
1518.9736243470736,1518.9736243470736,0.9993531400349956,0.0005247057796165163
1518.9805688232104,1518.9805688232104,0.9999015364942594,0.0005248896504034567
1518.9875132993477,1518.9875132993477,0.9996003326486962,0.0005243054355947483
1518.9944577754734,1518.9944577754734,0.9993026471422116,0.0005240820630135151
1519.0014022515957,1519.0014022515957,0.9999610714352564,0.0005240716354687649
1519.008346727715,1519.008346727715,0.9994232668677222,0.0005237274606925362
1519.0152912038234,1519.0152912038234,0.999874146819948,0.0005237030505672261
1519.0222356799286,1519.0222356799286,0.9997399677085635,0.0005235035132531234
1519.0291801560245,1519.0291801560245,1.000407438096507,0.0005238068296589511
1519.036124632124,1519.036124632124,0.9998014853784822,0.0005240176521403111
1519.043069108206,1519.043069108206,1.0005077398669115,0.0005239938851252757
1519.0500135842933,1519.0500135842933,1.0008652211833495,0.0005250918361573569
1519.0569580603667,1519.0569580603667,1.0006064143502025,0.000526060598679036
1519.0639025364394,1519.0639025364394,1.0004754957550699,0.0005261863474941209
1519.0708470125014,1519.0708470125014,0.9996519236381796,0.0005267982906483413
1519.0777914885596,1519.0777914885596,1.0026808123293045,0.0005280566320279769
1519.0847359646064,1519.0847359646064,1.0015050093368432,0.0005290986148437214
1519.0916804406509,1519.0916804406509,0.9999659396561664,0.0005301152410880075
1519.0986249166886,1519.0986249166886,0.9988255208928628,0.0005310629328586836
1519.105569392715,1519.105569392715,0.9990821961890438,0.0005318215394367881
1519.1125138687476,1519.1125138687476,0.9999665144448724,0.0005334641393362072
1519.1194583447625,1519.1194583447625,1.0008277995189965,0.0005344708599337873
1519.1264028207684,1519.1264028207684,1.0003032761954007,0.0005347552682229903
1519.133347296769,1519.133347296769,0.9988248839367475,0.0005350880291764214
1519.1402917727664,1519.1402917727664,0.9975855307944503,0.0005356319999682468
