time,time,flux,flux_err
1325.2997766099188,1325.2997766099188,1.0000784938807807,0.001429070937141637
1325.3081099354092,1325.3081099354092,0.9996820026281653,0.001430261303896254
1325.3164432611234,1325.3164432611234,1.0000960932764549,0.0014316006779396754
1325.3247765870503,1325.3247765870503,1.0016037620853095,0.0014329727466110315
1325.3324154693553,1325.3324154693553,0.9991855583492038,0.0013089838943467636
1325.339359907976,1325.339359907976,0.9996015063363671,0.0013102408158702007
1325.3463043467484,1325.3463043467484,1.000169794541509,0.0013118507029806115
1325.3532487856598,1325.3532487856598,0.9988752128411994,0.0013128632921456658
1325.3601932247227,1325.3601932247227,1.0000985587940776,0.001314812731022349
1325.3671376639377,1325.3671376639377,0.9981151749626059,0.00131613780810542
1325.3740821033148,1325.3740821033148,1.0009443657096413,0.0013177609903657055
1325.3810265428322,1325.3810265428322,1.002572135428148,0.0013196363534883674
1325.387970982477,1325.387970982477,0.9996666857571016,0.0013205682074977597
1325.3949154222614,1325.3949154222614,1.0010638588005827,0.001321885512713328
1325.401859862198,1325.401859862198,1.0002312431418319,0.0013232693131349615
1325.4088043022737,1325.4088043022737,0.9977318807221905,0.001324071292250954
1325.4157487424777,1325.4157487424777,0.9989429532172187,0.0013251087476555702
1325.4226931828214,1325.4226931828214,0.9984227058191554,0.0013262094876418061
1325.4296376233049,1325.4296376233049,1.0024516359440703,0.0013286970931417983
1325.4365820639393,1325.4365820639393,1.0018066833723767,0.0013297757146891946
1325.4435265046905,1325.4435265046905,0.9997999754720753,0.0013299916354018132
1325.4504709455696,1325.4504709455696,0.9995630040850957,0.0013311108317276682
1325.4574153865767,1325.4574153865767,0.9982019305676972,0.0013319325784640467
1325.4643598277237,1325.4643598277237,1.0011673517503177,0.0013332772968481918
1325.4713042690219,1325.4713042690219,0.9996411001858773,0.0013337547688366089
1325.4782487104017,1325.4782487104017,1.0000177063400197,0.0013351519259407654
1325.4851931519208,1325.4851931519208,0.9991779828048839,0.0013358804829196411
1325.4921375935687,1325.4921375935687,1.0000558281258438,0.001337302153921237
1325.4990820353441,1325.4990820353441,1.0009432313233382,0.001338831438079661
1325.5060264772478,1325.5060264772478,0.9998978543513178,0.0013397757050867547
1325.5129709192558,1325.5129709192558,0.9987498089331647,0.0013408945298883884
1325.5199153613926,1325.5199153613926,1.0020786030232385,0.0013429852278636458
1325.5268598036337,1325.5268598036337,0.999631018451038,0.0013443052146690933
1325.5338042459912,1325.5338042459912,0.9999391606021526,0.0013459002497553652
1325.5407486884767,1325.5407486884767,1.0019356763042235,0.0013473628933644978
1325.547693131079,1325.547693131079,0.9994132409305913,0.0013487791046721768
1325.5546375737856,1325.5546375737856,0.9988747577213974,0.0013502044569609173
1325.5615820166092,1325.5615820166092,0.9980417132990741,0.00135164732248004
1325.5685264595372,1325.5685264595372,1.0010084465825924,0.0013537334184014647
1325.5754709025816,1325.5754709025816,1.0004200501486704,0.0013547794559759575
1325.5824153457313,1325.5824153457313,1.0005233780038403,0.00135590918255129
1325.5893597889844,1325.5893597889844,0.9998030282082293,0.001356756097381759
1325.5963042323438,1325.5963042323438,0.9997379698082,0.0013575741357508735
1325.6032486758188,1325.6032486758188,0.9996089949279618,0.0013577243614697767
1325.6101931193873,1325.6101931193873,0.9981098924571212,0.0013580867007757641
1325.6171375630604,1325.6171375630604,0.9999378983048656,0.0013584219809388291
1325.62408200685,1325.62408200685,1.000516280375423,0.001358965885478046
1325.6310264507092,1325.6310264507092,1.0021411345534674,0.0013596584088686025
1325.6379708946968,1325.6379708946968,1.0000129497783992,0.0013590560776568406
1325.644915338777,1325.644915338777,0.9986660682840295,0.0013585648273179043
1325.6518597829277,1325.6518597829277,0.9992255088615714,0.0013587987060564126
1325.658804227206,1325.658804227206,1.0003418399292359,0.0013590475955535476
1325.6657486715662,1325.6657486715662,1.0000165396539782,0.0013592481467815357
1325.6726931160422,1325.6726931160422,0.999096836678864,0.0013589224039266096
1325.6796375605886,1325.6796375605886,1.0020881786124836,0.0013597476779125398
1325.6865820052165,1325.6865820052165,1.000953742027392,0.0013602197040294684
1325.6935264499484,1325.6935264499484,1.0007440048343892,0.0013612150831266284
1325.7004708947632,1325.7004708947632,0.9993698815800481,0.0013611582738994358
1325.7074153396816,1325.7074153396816,1.000049612768629,0.0013615076485039182
1325.7143597846818,1325.7143597846818,0.9983471654682704,0.0013614229977023248
1325.7213042297867,1325.7213042297867,1.0002984192096394,0.0013625473816279816
1325.7282486749384,1325.7282486749384,1.0000605570588132,0.0013635397343287618
1325.7351931201947,1325.7351931201947,1.00009664980163,0.0013637326887757039
1325.7421375655326,1325.7421375655326,0.9978539453806695,0.0013639177373214178
1325.7490820109517,1325.7490820109517,1.0008299917134296,0.001364795209927002
1325.7560264564645,1325.7560264564645,1.0013908847887119,0.0013649977305423301
1325.7629709020466,1325.7629709020466,1.0012652135832127,0.0013659222754706796
1325.769915347722,1325.769915347722,0.9994678819465136,0.0013654485250219899
1325.776859793456,1325.776859793456,0.9998619614475259,0.0013665319389702456
1325.7838042392943,1325.7838042392943,0.996570170766122,0.001365973882266355
1325.790748685191,1325.790748685191,1.0014560728683974,0.0013680902411001585
1325.7976931311573,1325.7976931311573,1.0013265756196965,0.0013683009234301705
1325.8046375772287,1325.8046375772287,0.9996359514010171,0.0013688451135558043
1325.811582023358,1325.811582023358,0.9997833015647647,0.00136876054658298
1325.8185264695576,1325.8185264695576,0.9979315226870915,0.0013690765988258412
1325.8254709158498,1325.8254709158498,1.0000028426447414,0.0013699084557558976
1325.8324153621888,1325.8324153621888,1.0012352941008877,0.0013702607909260344
1325.8393598086095,1325.8393598086095,1.0007848657493041,0.001369903007126001
1325.8463042550998,1325.8463042550998,0.9994910560702566,0.0013695566801061763
1325.8532487016596,1325.8532487016596,0.9985187736398231,0.0013692272169440263
1325.8601931483017,1325.8601931483017,0.9994225861058812,0.0013689017838442803
1325.86713759499,1325.86713759499,1.0020634786088984,0.0013692547575497424
1325.8740820417715,1325.8740820417715,1.000315062053365,0.0013685695784307118
1325.8810264885876,1325.8810264885876,0.9998745972498737,0.001367195671656521
1325.8879709355087,1325.8879709355087,0.9980944041388433,0.0013661082934526734
1325.8949153824647,1325.8949153824647,1.0024557254660087,0.0013667485465381373
1325.9018598294906,1325.9018598294906,1.0015930010129697,0.0013660411077048161
1325.908804276598,1325.908804276598,0.9981625057622994,0.001364802343275937
1325.9157487237635,1325.9157487237635,0.9983711928333932,0.0013640328701056985
1325.9226931709638,1325.9226931709638,0.9988921905858902,0.0013639877010836212
1325.9296376182579,1325.9296376182579,0.9988851800501066,0.0013636402569210714
1325.9365820655862,1325.9365820655862,1.0039966034324017,0.0013644825423930426
1325.9435265130078,1325.9435265130078,0.9985059110751369,0.001363146085480063
1325.9504709604648,1325.9504709604648,1.0009304140635007,0.0013626200538252573
1325.9574154079796,1325.9574154079796,0.9996262874041445,0.0013628043838960313
1325.9654709671806,1325.9654709671806,1.0002111858539209,0.0013626360990824714
1325.9726931927216,1325.9726931927216,1.000325782811088,0.0013621283107486887
1325.9796376404224,1325.9796376404224,0.9999331772080737,0.0013624920917924299
1325.9865820881819,1325.9865820881819,0.9995656242630495,0.0013626870018660774
1325.993526535999,1325.993526535999,1.0007541710699281,0.0013627988835244
1326.0004709838868,1326.0004709838868,0.9984445277167643,0.0013635511776281905
1326.0074154317972,1326.0074154317972,1.0028153873226124,0.0013644652509910038
1326.0143598797663,1326.0143598797663,0.9985109308540778,0.0013642063243886247
1326.0213043277818,1326.0213043277818,0.999338699389952,0.0013651101443423188
1326.0282487758905,1326.0282487758905,0.9994365717900593,0.001365904524247591
1326.0351932240221,1326.0351932240221,1.0007045972350996,0.0013662259116462155
1326.0421376722002,1326.0421376722002,0.9991857110358137,0.0013656620642138267
1326.049082120437,1326.049082120437,0.9998796843063179,0.0013653934112052154
1326.0560265687313,1326.0560265687313,0.9996681459725503,0.0013652751625249223
1326.0629710170615,1326.0629710170615,1.0006045048885739,0.0013659762334068226
1326.069915465426,1326.069915465426,1.0008953811337509,0.0013663127073831251
1326.0768599138603,1326.0768599138603,0.9984955277651869,0.0013657545340312548
1326.0838043623417,1326.0838043623417,1.0021533175537811,0.00136615669232831
1326.0907488108694,1326.0907488108694,0.9997709241740573,0.001366266252699258
1326.09769325942,1326.09769325942,1.0009806196018605,0.001366596322660422
1326.1046377080297,1326.1046377080297,0.999290230741785,0.0013661864574402729
1326.111582156708,1326.111582156708,0.9991794129803333,0.0013660968659091938
1326.1185266054106,1326.1185266054106,0.9994092217145513,0.0013667439794645072
1326.1254710541707,1326.1254710541707,0.9984661794475219,0.0013660921962137314
1326.132415502955,1326.132415502955,1.0007069759046265,0.001366793414025029
1326.139359951785,1326.139359951785,1.0023921861607623,0.0013667712892016196
1326.1463044006855,1326.1463044006855,0.9997629048310523,0.0013663809269632466
1326.153248849597,1326.153248849597,0.9999891079436232,0.0013661760745610856
1326.1601932985436,1326.1601932985436,0.9985568098916404,0.001365624931175671
1326.1671377475602,1326.1671377475602,0.9991018217588499,0.0013656774364254592
1326.1740821966,1326.1740821966,1.0018098866140766,0.001365564197796781
1326.181026645675,1326.181026645675,0.999040736664147,0.001364735951731267
1326.187971094808,1326.187971094808,1.0008037980642854,0.001364618733249938
1326.1949155439527,1326.1949155439527,0.9990990001326349,0.0013644414726547089
1326.201859993144,1326.201859993144,1.0001498111225686,0.0013647201662972284
1326.208804442405,1326.208804442405,1.0008104652922285,0.0013644127906142153
1326.2157488916775,1326.2157488916775,1.000518060752843,0.0013642674003516023
1326.2226933409852,1326.2226933409852,1.0000568634615872,0.0013642588674890007
1326.2296377903392,1326.2296377903392,1.0004127914801644,0.0013641905376738407
1326.2365822397167,1326.2365822397167,0.9996266179866449,0.0013645738314707972
1326.2435266891403,1326.2435266891403,1.0002394887767534,0.0013644248559859008
1326.2504711386114,1326.2504711386114,0.9978756481355215,0.001363907668898427
1326.2574155881052,1326.2574155881052,1.0007081076159214,0.0013649144048770438
1326.264360037611,1326.264360037611,0.999881747716136,0.0013646614066016942
1326.2713044871748,1326.2713044871748,1.0012560172023246,0.001364936193442795
1326.278248936773,1326.278248936773,1.000574070900195,0.0013641880655535677
1326.2851933863835,1326.2851933863835,0.9981018825677562,0.0013639003828535014
1326.2921378360636,1326.2921378360636,1.00013070541628,0.001364567058335256
1326.2990822857441,1326.2990822857441,1.0008338647009272,0.0013642409565181703
1326.3060267354701,1326.3060267354701,0.998869560613632,0.0013636488488656979
1326.3129711852207,1326.3129711852207,0.9999431159147483,0.0013635049462194686
1326.3199156350051,1326.3199156350051,1.0004014490130786,0.0013639166810315998
1326.326860084825,1326.326860084825,1.00046123479694,0.0013645095511884094
1326.3338045346684,1326.3338045346684,1.000119809743035,0.0013641490816543405
1326.340748984558,1326.340748984558,1.0005178524040876,0.0013641401902408587
1326.348804546437,1326.348804546437,0.9985760849247427,0.0013642566992106658
1326.3574156643792,1326.3574156643792,1.0006631672795243,0.0013649197994454255
1326.3643601143508,1326.3643601143508,1.001476055125091,0.0013653207527861027
1326.3713045643567,1326.3713045643567,0.9987415964486518,0.0013650364333993143
1326.3782490143863,1326.3782490143863,0.9981146993648998,0.0013650508547908146
1326.3851934644388,1326.3851934644388,1.0013724971507638,0.0013664293054230917
1326.3921379145263,1326.3921379145263,1.0007888441338106,0.0013665447343833219
1326.399082364649,1326.399082364649,0.9991368638655749,0.001366088106977367
1326.4060268147946,1326.4060268147946,0.9997767797457241,0.001366682779939596
1326.4129712649524,1326.4129712649524,1.000663184329276,0.0013664694052081038
1326.419915715156,1326.419915715156,0.9996414801505649,0.0013673072752301283
1326.426860165372,1326.426860165372,1.002089776206359,0.0013677035949621397
1326.4338046156106,1326.4338046156106,0.9984758825454616,0.0013669168496133542
1326.4407490658846,1326.4407490658846,0.9980563893119607,0.0013669758929915404
1326.447693516182,1326.447693516182,1.001366520309738,0.0013683113394892593
1326.4546379664905,1326.4546379664905,0.9994246830708103,0.0013677161344318692
1326.461582416846,1326.461582416846,1.0005771083679904,0.0013681511960782643
1326.468526867213,1326.468526867213,1.0012109356992138,0.001368662580383909
1326.4754713175798,1326.4754713175798,0.999339608001488,0.0013684608676327334
1326.4824157679936,1326.4824157679936,0.9997468135389097,0.0013690749013376918
1326.4893602184302,1326.4893602184302,1.00016259766655,0.001369703754178546
1326.4963046688788,1326.4963046688788,0.9990541235801821,0.001369711502687882
1326.503249119362,1326.503249119362,0.9983604925446965,0.001369702154649154
1326.510193569869,1326.510193569869,1.0004620812653866,0.0013700922123306828
1326.5171380203756,1326.5171380203756,1.0013032783843379,0.0013715051946587421
1326.5240824709288,1326.5240824709288,0.9992823288925747,0.0013710723300257078
1326.5310269214822,1326.5310269214822,0.9994783708376194,0.0013719159299708584
1326.5379713720702,1326.5379713720702,0.9995507991107635,0.001371748869689425
1326.5449158226706,1326.5449158226706,0.9992342769005823,0.0013720621335811254
1326.551860273305,1326.551860273305,1.0013999219438088,0.0013728457364567894
1326.558804723963,1326.558804723963,1.0007886683921892,0.0013725603865196894
1326.565749174621,1326.565749174621,0.9988360151539656,0.0013718440239367956
1326.572693625279,1326.572693625279,0.9992830330944624,0.0013718765257519868
1326.5796380759837,1326.5796380759837,1.0018717163439372,0.0013722949241860133
1326.5865825266997,1326.5865825266997,1.0021080614618803,0.0013726429141781087
1326.5935269774395,1326.5935269774395,0.9990364730074166,0.0013715450082299008
1326.6004714281908,1326.6004714281908,1.0003140429245658,0.001371810451618936
1326.607415878965,1326.607415878965,1.0012575354336757,0.0013726185995266112
1326.614360329763,1326.614360329763,1.0001795070692585,0.0013718950186091046
1326.6213047805718,1326.6213047805718,0.9993939869939474,0.001371852987271085
1326.6282492313817,1326.6282492313817,0.9984448351541525,0.0013715124061211069
1326.635193682226,1326.635193682226,1.0002102970501434,0.0013714930009124699
1326.6421381330936,1326.6421381330936,0.9997872033031936,0.00137111793306059
1326.649082583961,1326.649082583961,1.0008991400024478,0.0013719685620021541
1326.6560270348518,1326.6560270348518,0.9996269716120088,0.0013711412099614237
1326.6629714857547,1326.6629714857547,1.0009437022228747,0.001371281330912705
1326.6699159366801,1326.6699159366801,1.0016510471114668,0.001371260182684145
1326.6768603875946,1326.6768603875946,0.9998346699799001,0.0013701327218102253
1326.6838048385434,1326.6838048385434,0.9996835144215959,0.0013698205010162219
1326.6921381797406,1326.6921381797406,0.999303046070825,0.0013691852978324256
1326.6990826307128,1326.6990826307128,0.9994487788445763,0.001369341563289292
1326.7060270817083,1326.7060270817083,0.9996390178443967,0.00136890247114213
1326.713804866853,1326.713804866853,1.0005547675003768,0.0013690751979730776
1326.7213048739598,1326.7213048739598,1.0012713770962174,0.001368803060557759
1326.7282493250018,1326.7282493250018,0.9992313490126798,0.0013679396545156447
1326.7351937760554,1326.7351937760554,1.001071864592606,0.0013684453444206786
1326.7421382271211,1326.7421382271211,0.9994305643088227,0.0013671078095772143
1326.7490826782098,1326.7490826782098,1.0010416939598616,0.0013674245048391604
1326.7560271292984,1326.7560271292984,0.998192035089232,0.0013667974274546159
1326.7629715804105,1326.7629715804105,0.9990725841762309,0.001366024373063924
1326.7699160315342,1326.7699160315342,0.9998206053157496,0.0013663338022804898
1326.7768604826579,1326.7768604826579,1.0014808123605197,0.0013663864294410292
1326.783804933805,1326.783804933805,1.0009377445659082,0.0013665433098165646
1326.7907493849639,1326.7907493849639,0.9981985989632547,0.0013658174720159494
1326.797693836122,1326.797693836122,1.0013229340886365,0.0013664952672620652
1326.8046382873047,1326.8046382873047,1.001438734899627,0.0013664675194608703
1326.8115827384975,1326.8115827384975,0.9980519982692865,0.0013659063850142048
1326.8185271896912,1326.8185271896912,1.0010657595738772,0.0013664757835579403
1326.8254716409197,1326.8254716409197,0.9997066339519854,0.0013665006259031462
1326.8324160921134,1326.8324160921134,0.9996111158744284,0.0013664266160018702
1326.8393605433535,1326.8393605433535,1.0002169793307516,0.0013663968727404448
1326.8463049945935,1326.8463049945935,1.0012514599755782,0.001366534064001337
1326.8532494458454,1326.8532494458454,0.9988839440860063,0.0013662408944436644
1326.860193897132,1326.860193897132,0.99860470543663,0.0013658548953155334
1326.8671383483838,1326.8671383483838,1.0001419253045754,0.001365747030142662
1326.8740827996705,1326.8740827996705,1.0001927828311807,0.0013655625633362909
1326.8810272509572,1326.8810272509572,0.9987227436402255,0.0013647119035157386
1326.8879717022558,1326.8879717022558,1.0010695388732267,0.0013645960170512819
1326.8949161535768,1326.8949161535768,0.9996389015453255,0.0013637747050980775
1326.9018606048871,1326.9018606048871,0.9994293659759184,0.0013626911264897753
1326.9088050562086,1326.9088050562086,1.001544338606839,0.0013624812701173634
1326.915749507542,1326.915749507542,0.9971209193529464,0.001360440180152492
1326.9226939588868,1326.9226939588868,1.0022340595412014,0.0013609259731650282
1326.9296384102317,1326.9296384102317,0.9974601726539761,0.001359431750550218
1326.9365828615882,1326.9365828615882,1.002633633437688,0.001359714788766555
1326.9435273129561,1326.9435273129561,0.9995957963791262,0.0013580568350250884
1326.9504717643247,1326.9504717643247,1.0002635397303248,0.0013576411950842146
1326.9574162157041,1326.9574162157041,0.9983516780009503,0.0013564726976837038
1326.9643606670845,1326.9643606670845,0.9989454851025812,0.0013556098749594324
1326.971305118499,1326.971305118499,1.0013206262370151,0.0013555789563974184
1326.9782495698903,1326.9782495698903,0.999315506729831,0.0013544708512417119
1326.9851940213052,1326.9851940213052,1.0009411188880049,0.0013540979631187302
1326.9921384727083,1326.9921384727083,0.9996299241774202,0.001353523883268373
1326.9990829241347,1326.9990829241347,1.0003578885239923,0.0013533131842580026
1327.0060273755612,1327.0060273755612,1.000481067602041,0.0013532464284429853
1327.012971826999,1327.012971826999,1.0025228499785215,0.0013533793474004502
1327.0199162784254,1327.0199162784254,0.996955244849904,0.0013517725779307018
1327.0268607298867,1327.0268607298867,0.9987729955295828,0.0013520578268575647
1327.0338051813249,1327.0338051813249,1.0011809921186734,0.001352782736707753
1327.040749632786,1327.040749632786,0.9993738298630266,0.001352480663512309
1327.0476940842475,1327.0476940842475,0.9991440522367944,0.0013525344687327291
1327.0546385357088,1327.0546385357088,1.0017763272069566,0.001353025978726628
1327.0626940994268,1327.0626940994268,0.9997822262025979,0.001353247411468864
1327.0699163289491,1327.0699163289491,0.9995942787290358,0.0013532175479086083
1327.076860780434,1327.076860780434,1.0016319273654342,0.0013536836357830437
