time,time,flux,flux_err
1325.299863200683,1325.299863200683,1.0000263394051518,0.0003503292091592545
1325.308196408516,1325.308196408516,1.000245228902034,0.0003505524011310133
1325.3158351825784,1325.3158351825784,0.9999132848955196,0.0003199906446150002
1325.3227795228281,1325.3227795228281,0.9999413876594085,0.00032009518065505337
1325.329723863264,1325.329723863264,1.0001345113551374,0.0003202007514181854
1325.3366682038748,1325.3366682038748,0.9995004876294477,0.00032018093544858224
1325.3436125446601,1325.3436125446601,0.9997547606903581,0.00032028451625769284
1325.350556885643,1325.350556885643,1.0000374744238627,0.0003204110205928108
1325.3575012267893,1325.3575012267893,1.0001528994354496,0.0003205349687518947
1325.3644455680753,1325.3644455680753,1.0003765530928843,0.00032067482880933454
1325.3713899095592,1325.3713899095592,0.9995834815525747,0.00032066370594471827
1325.3783342512174,1325.3783342512174,1.0002629772090539,0.0003208610270684207
1325.385278593039,1325.385278593039,1.000267867745872,0.0003209315136643491
1325.392222935023,1325.392222935023,0.9995005811009122,0.0003209484189798513
1325.3991672771933,1325.3991672771933,1.0002571346109894,0.0003211597466224388
1325.4061116195155,1325.4061116195155,1.000013930337745,0.00032119106526779445
1325.4130559619884,1325.4130559619884,0.9995016377790282,0.00032116961374420455
1325.4200003046485,1325.4200003046485,1.0002317055873629,0.00032141422815936354
1325.426944647459,1325.426944647459,1.0002673546459877,0.0003215058750984847
1325.4338889904327,1325.4338889904327,0.9999316723318417,0.000321524186787799
1325.44083333357,1325.44083333357,0.999961909852184,0.00032162057766036816
1325.4477776768579,1325.4477776768579,1.0003650489994453,0.0003217550453492514
1325.4547220202858,1325.4547220202858,0.9996514802919736,0.00032177390572081413
1325.4616663639,1325.4616663639,0.9997921787282401,0.00032185999617729134
1325.4686107076536,1325.4686107076536,0.9997242222854018,0.00032194316869548964
1325.4755550515706,1325.4755550515706,0.9999671189738472,0.0003220717163231282
1325.4824993956036,1325.4824993956036,1.0005134460291687,0.00032227096017854663
1325.4894437398348,1325.4894437398348,1.0001371596498436,0.0003223243761914966
1325.496388084171,1325.496388084171,1.0002175251427778,0.0003224653151872326
1325.5033324286928,1325.5033324286928,0.9999812723189411,0.0003225696664997222
1325.510276773332,1325.510276773332,0.9999380257554261,0.00032263621518534703
1325.5172211181448,1325.5172211181448,1.0001317909954568,0.00032277753397805514
1325.5241654630745,1325.5241654630745,0.9996050317704164,0.0003228305410325391
1325.531109808167,1325.531109808167,0.9998057945951807,0.00032299958290157805
1325.5380541533762,1325.5380541533762,1.0000852307055708,0.0003231747405735665
1325.5449984987479,1325.5449984987479,0.9995743685214563,0.0003232060124512817
1325.5519428442599,1325.5519428442599,1.000278212325378,0.0003234039587021681
1325.5588871898997,1325.5588871898997,1.0003878816919136,0.00032347623484886014
1325.565831535679,1325.565831535679,0.999721788010174,0.00032348153914408574
1325.5727758815865,1325.5727758815865,0.9995718410465114,0.0003235738712442925
1325.579720227634,1325.579720227634,1.0004350789905,0.0003237532315284217
1325.586664573809,1325.586664573809,1.0002427541628909,0.00032384504602003827
1325.5936089201123,1325.5936089201123,0.9996472364426063,0.0003238601247338918
1325.6005532665667,1325.6005532665667,1.0001657856052006,0.00032396790199231546
1325.6074976131263,1325.6074976131263,1.0001714060272031,0.0003240277474656938
1325.6144419598372,1325.6144419598372,1.000435318263077,0.00032408919612984734
1325.6213863066528,1325.6213863066528,1.0001980595689086,0.0003241436417231847
1325.6283306535965,1325.6283306535965,0.9993895265783965,0.00032409489203836123
1325.6352750006797,1325.6352750006797,0.99967435785,0.0003241175648242017
1325.6422193478795,1325.6422193478795,0.9996618354353768,0.00032417571139755155
1325.6491636951955,1325.6491636951955,1.0001631246909561,0.00032426929978557567
1325.6561080426397,1325.6561080426397,0.9998060364645573,0.00032423146125539794
1325.6630523902236,1325.6630523902236,1.0003915338599783,0.00032436225722998647
1325.6699967378775,1325.6699967378775,0.9999091310536133,0.00032427138560453355
1325.6769410856823,1325.6769410856823,1.0003761834755576,0.0003243593998037308
1325.6838854335924,1325.6838854335924,1.0005742464838547,0.0003244691709804801
1325.6908297816306,1325.6908297816306,0.9999530188238512,0.00032441555040338584
1325.697774129773,1325.697774129773,1.0003119547408001,0.0003244721921144977
1325.7047184780324,1325.7047184780324,0.9999868649454584,0.00032449386333501765
1325.711662826396,1325.711662826396,1.0002439063049375,0.00032461989329685836
1325.7186071748765,1325.7186071748765,0.9992866009982826,0.0003245605242315492
1325.7255515234729,1325.7255515234729,0.9997101919840745,0.0003246763730958557
1325.7324958721742,1325.7324958721742,0.9999980696069513,0.0003247680419552125
1325.739440220981,1325.739440220981,0.9997841997970973,0.00032478024276032816
1325.7463845698917,1325.7463845698917,1.0005190204196148,0.0003249770672078394
1325.7533289189073,1325.7533289189073,1.0003918495941095,0.00032504043639505797
1325.7602732680284,1325.7602732680284,0.9999726500340127,0.0003251082731817345
1325.767217617265,1325.767217617265,1.0000551167173868,0.00032519010044842437
1325.7741619665837,1325.7741619665837,0.9998020568967139,0.0003252371601772837
1325.7811063160302,1325.7811063160302,1.0002192605019413,0.0003254249181819327
1325.7880506655704,1325.7880506655704,0.9997404705697914,0.00032542789142714877
1325.794995015191,1325.794995015191,1.0000881177797836,0.0003255662092282253
1325.8019393649402,1325.8019393649402,0.999646648790752,0.0003255567448598431
1325.8088837147595,1325.8088837147595,1.0004842083183447,0.0003257133030060875
1325.8158280646946,1325.8158280646946,0.9997404515701984,0.0003257215855692624
1325.8227724147123,1325.8227724147123,0.9997676767261725,0.00032575643084084853
1325.8297167648336,1325.8297167648336,1.0000056053802127,0.00032584874669538147
1325.8366611150366,1325.8366611150366,1.0002409046755414,0.0003259259603555028
1325.8436054653685,1325.8436054653685,0.9994693107104128,0.0003258096611558301
1325.8505498157574,1325.8505498157574,1.0002927743545722,0.0003259302788732669
1325.8574941662519,1325.8574941662519,1.000221016803196,0.0003259426215405166
1325.8644385168277,1325.8644385168277,1.0001880990888652,0.0003259435903703795
1325.8713828674968,1325.8713828674968,0.9998943968022461,0.00032585161708408706
1325.8783272182823,1325.8783272182823,1.0000653334659915,0.0003257896102397652
1325.8852715691137,1325.8852715691137,1.0001042321990514,0.0003257438971360735
1325.8922159200506,1325.8922159200506,0.9997573958218118,0.00032569143659972645
1325.899160271069,1325.899160271069,0.9995521022538189,0.00032561903357123284
1325.9061046221916,1325.9061046221916,1.0003082138773305,0.00032567273846559146
1325.9130489733725,1325.9130489733725,0.9999039532118987,0.0003255355042813854
1325.919993324635,1325.919993324635,0.9997977041133677,0.00032552320869713643
1325.9269376760262,1325.9269376760262,1.0005643555653683,0.00032562683972478393
1325.9338820274513,1325.9338820274513,1.0002342865838858,0.00032555929289502134
1325.940826378959,1325.940826378959,0.9997348751497949,0.00032553549186386166
1325.9477707305707,1325.9477707305707,0.9999736222253028,0.00032554365943185864
1325.954715082264,1325.954715082264,0.9999980759194596,0.00032552541916487106
1325.962214982152,1325.962214982152,0.9997701188745477,0.0003255466330786739
1325.9699926562246,1325.9699926562246,0.9998271341776548,0.00032552600954664714
1325.9769370081626,1325.9769370081626,1.000462866812071,0.00032564436251432145
1325.9838813601698,1325.9838813601698,0.9999836676414156,0.0003255937624270476
1325.9908257122474,1325.9908257122474,0.9999741774581115,0.0003256261885518423
1325.9977700644183,1325.9977700644183,1.0000637671980386,0.00032564094423526694
1326.0047144166354,1326.0047144166354,0.9998102522315001,0.0003256466936357582
1326.011658768946,1326.011658768946,0.9994652079903197,0.0003256654719474221
1326.0186031213377,1326.0186031213377,1.0001398499704315,0.0003258639613065765
1326.0255474737878,1326.0255474737878,1.0004910817821773,0.0003259563159314054
1326.0324918263082,1326.0324918263082,0.9997953130745948,0.0003259403520837861
1326.0394361788972,1326.0394361788972,1.0001193097452263,0.00032595272426722363
1326.046380531569,1326.046380531569,1.000536022427125,0.00032601088442534644
1326.053324884298,1326.053324884298,0.999718732975072,0.0003259242285484424
1326.0602692370976,1326.0602692370976,1.0000566309459002,0.0003259845738358599
1326.0672135899665,1326.0672135899665,1.000061053492774,0.0003260404191286075
1326.0741579429055,1326.0741579429055,0.9997305947480124,0.0003260072998213403
1326.0811022959147,1326.0811022959147,0.9996354537569209,0.00032601928032179706
1326.0880466489816,1326.0880466489816,1.0000233448174485,0.00032609347507672504
1326.0949910021304,1326.0949910021304,0.9996484093548912,0.000326075499765561
1326.1019353553138,1326.1019353553138,0.9999662118738865,0.0003261359365635276
1326.1088797085788,1326.1088797085788,1.0001170631988086,0.0003261670066545046
1326.115824061902,1326.115824061902,1.0006435677723862,0.0003262479777767176
1326.1227684152946,1326.1227684152946,1.0001948394967406,0.0003261469737356792
1326.1297127687462,1326.1297127687462,1.0000607395460193,0.0003261609626028686
1326.1366571222557,1326.1366571222557,1.0002881767378131,0.0003261735512418697
1326.1436014758349,1326.1436014758349,0.9997392027895374,0.00032611834091363995
1326.150545829461,1326.150545829461,0.9997345750575068,0.00032612557965211865
1326.1574901831443,1326.1574901831443,0.9994615735219641,0.00032607021411140246
1326.1644345369107,1326.1644345369107,0.9997702766408519,0.0003261549958245451
1326.1713788907105,1326.1713788907105,1.0003168283113006,0.0003262043661230231
1326.178323244581,1326.178323244581,1.000249535186644,0.0003261654953112625
1326.1852675985215,1326.1852675985215,1.0001736062462232,0.0003261159192865097
1326.1922119524845,1326.1922119524845,0.9999459094520413,0.0003260886546952213
1326.1991563065299,1326.1991563065299,1.000218753403416,0.00032613736838469666
1326.2061006606327,1326.2061006606327,0.9995879808672139,0.0003260012264522319
1326.2130450147713,1326.2130450147713,0.9998530935610545,0.0003260497608034972
1326.2199893689904,1326.2199893689904,1.0004948785171934,0.0003261596970773121
1326.2269337232333,1326.2269337232333,0.9998274802632741,0.0003260523124118967
1326.2338780775576,1326.2338780775576,1.000036156087864,0.00032610594642728543
1326.2408224319167,1326.2408224319167,0.9999118006752987,0.0003260070722133196
1326.2477667863345,1326.2477667863345,0.9999350967777655,0.0003260409227360514
1326.25471114081,1326.25471114081,0.9998867358620327,0.00032602699229848463
1326.2616554953327,1326.2616554953327,1.0004009279515063,0.00032607381111790436
1326.2685998498782,1326.2685998498782,0.9993178642762937,0.0003259516264059277
1326.2755442045163,1326.2755442045163,1.0000493651801516,0.0003260248854476699
1326.2824885591904,1326.2824885591904,1.0004778158818681,0.00032603249304065114
1326.2894329139103,1326.2894329139103,0.9999386203370253,0.00032600017499927647
1326.2963772686774,1326.2963772686774,1.000301185910085,0.00032602747251550497
1326.3033216235021,1326.3033216235021,1.0000278435556669,0.00032598868456345273
1326.3102659783854,1326.3102659783854,0.9997753529015562,0.00032598706863062643
1326.3172103332918,1326.3172103332918,0.9997338098767848,0.00032597694643921396
1326.3241546882327,1326.3241546882327,1.0002585621309317,0.0003260947081172706
1326.3310990432444,1326.3310990432444,0.9994055038053574,0.00032598624448257276
1326.3380433982902,1326.3380433982902,1.0001451644322912,0.0003260840348865944
1326.344987753395,1326.344987753395,1.0001584342606833,0.00032614018422689523
1326.3547098506017,1326.3547098506017,1.0008310895463999,0.0003262328976482537
1326.3616542057985,1326.3616542057985,0.999787010895964,0.0003261865312299072
1326.3685985610662,1326.3685985610662,1.0006656558185512,0.0003263112437418401
1326.3755429163566,1326.3755429163566,0.9996552106822764,0.00032617243993259963
1326.3824872716941,1326.3824872716941,0.9997463653977248,0.00032622468789452266
1326.3894316270776,1326.3894316270776,0.9998885368347172,0.00032625469662313407
1326.3963759824846,1326.3963759824846,1.0003928015778136,0.0003263473441991248
1326.4033203379731,1326.4033203379731,0.9997033832882307,0.000326300472518909
1326.4102646934618,1326.4102646934618,0.9994153608232323,0.00032626682407965724
1326.417209048997,1326.417209048997,1.0001732302773216,0.0003264034299389663
1326.42415340459,1326.42415340459,1.0001057914176306,0.0003264320013344182
1326.4310977602067,1326.4310977602067,1.0002609842928805,0.00032647583411389374
1326.4380421158812,1326.4380421158812,1.0001830124025475,0.0003264582673560483
1326.4449864715793,1326.4449864715793,0.9998417232945863,0.0003264175438269959
1326.4519308273243,1326.4519308273243,1.0001826197342893,0.0003265133747851851
1326.4588751831038,1326.4588751831038,1.000223464011399,0.00032651137924098544
1326.4658195389297,1326.4658195389297,0.9998831656631779,0.0003264599116761035
1326.4727638948025,1326.4727638948025,0.9997014151689486,0.0003264700513437551
1326.4797082506868,1326.4797082506868,0.9998335923978982,0.0003265248483360617
1326.4866526066176,1326.4866526066176,0.9997539874498103,0.00032651345583296703
1326.4935969625951,1326.4935969625951,1.000416692466685,0.0003266059135239465
1326.5005413185959,1326.5005413185959,0.9998174874450931,0.0003265523340221023
1326.5074856746314,1326.5074856746314,0.9995751913987909,0.0003265418833115501
1326.514430030737,1326.514430030737,1.0004922823397133,0.0003266692961135309
1326.5213743868308,1326.5213743868308,1.0003225238876783,0.00032663436187751777
1326.5283187429716,1326.5283187429716,1.0002281478314117,0.0003267346488784886
1326.53526309917,1326.53526309917,0.999986709835199,0.00032667666805215843
1326.5422074553803,1326.5422074553803,1.000048365808923,0.0003267306111044066
1326.5491518116373,1326.5491518116373,0.9993328846172858,0.0003267263532691468
1326.5560961679055,1326.5560961679055,0.9996453420555704,0.0003268161316989637
1326.5630405242207,1326.5630405242207,1.0004492660446944,0.00032692231944391424
1326.569984880582,1326.569984880582,0.9999045711419591,0.00032678559668643774
1326.576929236944,1326.576929236944,1.0002688961224078,0.00032686725498216223
1326.5838735933753,1326.5838735933753,1.0000575741230449,0.00032687739860886705
1326.5908179498188,1326.5908179498188,1.0000245430244803,0.00032691032216231817
1326.597762306285,1326.597762306285,0.9998152555329403,0.00032685582617700965
1326.6047066627978,1326.6047066627978,1.000346623067574,0.00032698084135341493
1326.6116510193342,1326.6116510193342,0.9997237303651267,0.0003269695549354992
1326.6185953759054,1326.6185953759054,1.000425643695577,0.0003270469251995905
1326.6255397325112,1326.6255397325112,0.9999631651237111,0.0003269981705832254
1326.6324840891175,1326.6324840891175,0.9997300852090444,0.0003269781711719222
1326.6394284457817,1326.6394284457817,0.9994135937070446,0.0003269022761981994
1326.6463728024812,1326.6463728024812,0.9996664866104428,0.0003269511129472321
1326.6533171592034,1326.6533171592034,1.0005093555032787,0.00032700545883829023
1326.6602615159377,1326.6602615159377,0.9998770494609195,0.00032689106386676046
1326.6672058727183,1326.6672058727183,1.0002187985563293,0.00032691137822207897
1326.674150229511,1326.674150229511,1.000050520895836,0.0003268696819260661
1326.6810945863497,1326.6810945863497,1.0001506520172458,0.00032678530912039926
1326.688872266022,1326.688872266022,1.0006630541639034,0.0003268393969142971
1326.6963721714744,1326.6963721714744,0.9997327342298423,0.00032670085631362306
1326.7033165283715,1326.7033165283715,0.9999488629166754,0.00032663157764185484
1326.7105386595933,1326.7105386595933,0.9996967580478758,0.0003266121673532077
1326.7185941137063,1326.7185941137063,1.000128269802289,0.00032660022953983
1326.7255384706848,1326.7255384706848,0.9995857399904151,0.0003264662221320732
1326.7324828277217,1326.7324828277217,0.9996532694390924,0.00032644370206650274
1326.7394271847702,1326.7394271847702,0.9999794575338979,0.000326447445294906
1326.7463715418419,1326.7463715418419,1.0000589427249384,0.0003264096944382806
1326.7533158989481,1326.7533158989481,1.0004591364995892,0.00032645259960007377
1326.7602602560669,1326.7602602560669,1.0001192708058717,0.00032640692358081345
1326.7672046132197,1326.7672046132197,1.0004298691909028,0.0003263563238799999
1326.7741489703965,1326.7741489703965,1.0004171147544496,0.00032632442152050417
1326.7810933275964,1326.7810933275964,0.9995436455072042,0.0003262171339813992
1326.788037684831,1326.788037684831,0.9997240899222384,0.0003262380139285545
1326.794982042066,1326.794982042066,0.9997944535711507,0.00032627509836230013
1326.8019263993242,1326.8019263993242,0.9998096455556554,0.0003262884525929438
1326.8088707566167,1326.8088707566167,0.9997819742442976,0.0003263174956689963
1326.815815113921,1326.815815113921,1.0001596539140085,0.0003263516384386249
1326.822759471261,1326.822759471261,1.0002051960869545,0.0003263634458268806
1326.829703828612,1326.829703828612,1.0002949812946444,0.0003263826190799514
1326.8366481859866,1326.8366481859866,1.0005842352985084,0.00032641471255287285
1326.843592543396,1326.843592543396,1.000032970031526,0.0003262938880155591
1326.8505369008167,1326.8505369008167,0.99980932318663,0.0003262543893267269
1326.8574812582494,1326.8574812582494,0.9997114485882023,0.0003262127168279021
1326.8644256157172,1326.8644256157172,0.9996804058320006,0.0003261531394098354
1326.8713699732082,1326.8713699732082,1.00088858112375,0.00032628920346654
1326.8783143306873,1326.8783143306873,0.9994775250862722,0.00032606006221002644
1326.8852586882128,1326.8852586882128,0.9992802953749986,0.00032591713129816587
1326.8922030457738,1326.8922030457738,1.000449492083403,0.0003260336010406181
1326.8991474033344,1326.8991474033344,1.0005423230625883,0.0003259564822247992
1326.9060917609183,1326.9060917609183,0.9999583295203862,0.0003258314247480079
1326.9130361185257,1326.9130361185257,0.9998843637939897,0.00032564129218615065
1326.9199804761447,1326.9199804761447,1.0001822642506588,0.00032566600268603283
1326.9269248337866,1326.9269248337866,0.999940987941933,0.0003254910421461435
1326.9338691914293,1326.9338691914293,0.9998484253641742,0.00032541606381276917
1326.9408135491176,1326.9408135491176,1.0001135851716803,0.00032537272390418767
1326.9477579068066,1326.9477579068066,0.9995903910677427,0.0003252175802801689
1326.9547022645186,1326.9547022645186,1.0000389908850282,0.00032523604043102784
1326.961646622254,1326.961646622254,0.9999057143768123,0.00032514567695485306
1326.9685909800012,1326.9685909800012,1.0001186775181812,0.0003251190925948993
1326.975535337771,1326.975535337771,1.0005076789847984,0.0003250900731286111
1326.9824796955531,1326.9824796955531,1.0000531514721926,0.0003249929651691751
1326.98942405337,1326.98942405337,0.9997308464956252,0.00032488889098203984
1326.9963684111872,1326.9963684111872,0.9999899372270556,0.0003248611859702875
1327.0033127690035,1327.0033127690035,0.9999831620282498,0.0003248938070376997
1327.0102571268437,1327.0102571268437,0.999537738059864,0.00032473470211825646
1327.0172014847071,1327.0172014847071,1.0001039831856342,0.00032485239798994914
1327.0241458425937,1327.0241458425937,1.000134239685949,0.0003247953739541945
1327.0310902004803,1327.0310902004803,0.9997586056297421,0.00032477515153809557
1327.0380345584017,1327.0380345584017,1.0000283632445117,0.0003247914761854573
1327.0449789163354,1327.0449789163354,1.0003741921388858,0.00032487203432991513
1327.0519232742686,1327.0519232742686,1.0000966397467197,0.00032478367291407845
1327.059423180862,1327.059423180862,1.000162111527888,0.0003247943230668563
