time,time,flux,flux_err
1354.113633802006,1354.113633802006,0.999936298371415,6.291923898697275e-05
1354.1224301138889,1354.1224301138889,1.000042867675352,6.292700483779316e-05
1354.130763462248,1354.130763462248,1.0000307871049683,6.292636781975205e-05
1354.1390968108888,1354.1390968108888,1.0000404532202996,6.292673980375348e-05
1354.146735714024,1354.146735714024,1.0000133876179589,5.7444132372776e-05
1354.1536801716084,1354.1536801716084,0.9999535191513539,5.7442254303631575e-05
1354.1606246293672,1354.1606246293672,0.9998734089268433,5.743846865996118e-05
1354.1675690872955,1354.1675690872955,1.0001368311180234,5.7446530164225873e-05
1354.1745135454098,1354.1745135454098,1.000013840450467,5.744270913706376e-05
1354.1814580036812,1354.1814580036812,0.9999234425444431,5.74409648092324e-05
1354.1884024621272,1354.1884024621272,1.000125353373849,5.744462666712093e-05
1354.195346920736,1354.195346920736,1.0000110747187996,5.7445026319984064e-05
1354.2022913795079,1354.2022913795079,0.9999382000571166,5.743971503885643e-05
1354.2092358384543,1354.2092358384543,0.9999555937491239,5.7443528948377224e-05
1354.2161802975581,1354.2161802975581,1.000011336896982,5.744389248480815e-05
1354.223124756819,1354.223124756819,0.9999297009108397,5.743982745249859e-05
1354.230069216243,1354.230069216243,0.9999931093359816,5.7444391876531267e-05
1354.2370136758357,1354.2370136758357,1.000015258856155,5.74446186444023e-05
1354.2439581355623,1354.2439581355623,1.0000934748176111,5.744632694233537e-05
1354.2509025954575,1354.2509025954575,1.0000153904139233,5.744460856277377e-05
1354.2578470554981,1354.2578470554981,1.0000968003480757,5.74456279022973e-05
1354.2647915156963,1354.2647915156963,0.9999775879055359,5.744184386495883e-05
1354.2717359760397,1354.2717359760397,0.9999488349427427,5.7443994753967274e-05
1354.2786804365346,1354.2786804365346,0.9999016884337244,5.744218358543479e-05
1354.2856248971752,1354.2856248971752,0.9999788522947736,5.744543360850747e-05
1354.2925693579607,1354.2925693579607,0.9999760277458215,5.7442913481408446e-05
1354.2995138188924,1354.2995138188924,1.000009977458707,5.7444151068090716e-05
1354.3064582799636,1354.3064582799636,0.9999742991939231,5.744260940273258e-05
1354.3134027411802,1354.3134027411802,1.0001115636218476,5.744708753496752e-05
1354.3203472025307,1354.3203472025307,0.9999597684687964,5.7443909857627146e-05
1354.327291664021,1354.327291664021,1.0000417330609517,5.7445676245218036e-05
1354.3342361256452,1354.3342361256452,0.9999882702753364,5.7444952926516925e-05
1354.3411805874148,1354.3411805874148,1.0000779713615073,5.744689945980278e-05
1354.3481250493064,1354.3481250493064,0.9999707709027673,5.744447411426159e-05
1354.355069511344,1354.355069511344,0.9999833590872216,5.744565783872055e-05
1354.362013973498,1354.362013973498,1.0000510090227244,5.744707245487524e-05
1354.3689584357794,1354.3689584357794,0.9999376893025289,5.744388596393513e-05
1354.3759028981956,1354.3759028981956,0.9999641532553222,5.744816858463211e-05
1354.382847360739,1354.382847360739,0.9999581089673342,5.74476493898302e-05
1354.3897918234052,1354.3897918234052,0.9999851933871877,5.745044993304534e-05
1354.3967362861993,1354.3967362861993,0.9999816648845481,5.745035414843171e-05
1354.4036807491273,1354.4036807491273,1.0001420207766465,5.745279975799476e-05
1354.4106252121544,1354.4106252121544,1.0000018595761238,5.7447804139229184e-05
1354.4175696753093,1354.4175696753093,0.9999469615059103,5.7449672137962866e-05
1354.4245141385807,1354.4245141385807,1.0000658300207,5.745159213227906e-05
1354.431458601974,1354.431458601974,0.9998809189220607,5.744768667808072e-05
1354.4384030654896,1354.4384030654896,0.9999604576153605,5.7449927595224656e-05
1354.4453475291164,1354.4453475291164,1.0000781669182173,5.7454806580595455e-05
1354.4522919928536,1354.4522919928536,0.9999477496605909,5.7451001638978845e-05
1354.459236456701,1354.459236456701,1.0000071284589276,5.745274821954959e-05
1354.4661809206596,1354.4661809206596,1.0000653990347508,5.745194040262915e-05
1354.473125384728,1354.473125384728,1.0000396372165183,5.745235934645352e-05
1354.4800698489194,1354.4800698489194,0.9999941228280805,5.745129666857568e-05
1354.4870143132034,1354.4870143132034,1.0000283959868685,5.7452444314301664e-05
1354.4939587775923,1354.4939587775923,0.9999417192737882,5.7452084724865495e-05
1354.500903242098,1354.500903242098,0.9999609476455082,5.745003766631126e-05
1354.5078477066963,1354.5078477066963,0.9999832154931241,5.745250189866292e-05
1354.5147921714054,1354.5147921714054,1.0000483029651321,5.745279850515952e-05
1354.5217366362135,1354.5217366362135,0.9999486216616698,5.745209617622791e-05
1354.5286811011265,1354.5286811011265,0.9999465237207582,5.74508560579474e-05
1354.5356255661325,1354.5356255661325,1.0000858044792809,5.745432379424862e-05
1354.5425700312376,1354.5425700312376,1.000001442197559,5.745438135384668e-05
1354.549514496447,1354.549514496447,1.0001037457910606,5.7456478619122186e-05
1354.5564589617502,1354.5564589617502,0.9998879105054421,5.745160299981667e-05
1354.5634034271516,1354.5634034271516,1.0000494582852895,5.745614965616616e-05
1354.5703478926348,1354.5703478926348,0.999952555467053,5.745172191728539e-05
1354.5772923582174,1354.5772923582174,1.000047015648431,5.7455916126836106e-05
1354.5842368238925,1354.5842368238925,1.0000759485268742,5.7459672242384703e-05
1354.591181289667,1354.591181289667,0.9999382376428769,5.745488479650516e-05
1354.5981257555286,1354.5981257555286,0.9999048816323557,5.745646233218484e-05
1354.6050702214714,1354.6050702214714,1.0000066637000575,5.7459890895996095e-05
1354.6120146875019,1354.6120146875019,1.0000725026674129,5.745992275339183e-05
1354.6189591536313,1354.6189591536313,1.0000460024569453,5.745691303925398e-05
1354.6259036198305,1354.6259036198305,0.999864425701168,5.7454665199752746e-05
1354.6328480861232,1354.6328480861232,0.9999749904561674,5.7455276742173615e-05
1354.6397925525027,1354.6397925525027,1.0000155682488778,5.74577419032092e-05
1354.646737018964,1354.646737018964,0.9999526989768533,5.7455890402864834e-05
1354.6536814855065,1354.6536814855065,1.0001268343935044,5.7462102078669844e-05
1354.6606259521309,1354.6606259521309,1.0000589946312304,5.746082742238812e-05
1354.6675704188365,1354.6675704188365,1.0000282873257493,5.746145273644133e-05
1354.6745148856294,1354.6745148856294,1.0000022412567677,5.7459354512523246e-05
1354.6814593524862,1354.6814593524862,0.9999001165659618,5.7460186697264536e-05
1354.6884038194307,1354.6884038194307,1.0000783668919595,5.746230188121511e-05
1354.6953482864506,1354.6953482864506,0.9999538900658844,5.745936535752411e-05
1354.702292753546,1354.702292753546,0.9999361386072593,5.745836490561444e-05
1354.7092372207178,1354.7092372207178,0.9999853487115263,5.746250937085398e-05
1354.7161816879702,1354.7161816879702,1.0000183822650561,5.746457319797467e-05
1354.7231261552931,1354.7231261552931,1.0000080828315532,5.7463289065692405e-05
1354.7300706226797,1354.7300706226797,1.0000814243281562,5.7466626358696296e-05
1354.737015090142,1354.737015090142,0.9999767891276564,5.746234375354882e-05
1354.7439595576739,1354.7439595576739,0.9999681456745326,5.74595380105636e-05
1354.7509040252821,1354.7509040252821,0.9999137831598537,5.746321030061566e-05
1354.7578484929595,1354.7578484929595,1.0000064378027218,5.746517818819298e-05
1354.7647929607015,1354.7647929607015,1.000011229989142,5.746484476517432e-05
1354.771737428519,1354.771737428519,1.000085763670898,5.7465886653648356e-05
1354.7786818964005,1354.7786818964005,1.0000206717271092,5.7466236314044486e-05
1354.7856263643516,1354.7856263643516,1.0000583905506122,5.7467509208021374e-05
1354.7925708323608,1354.7925708323608,1.0000036596897823,5.746387020802762e-05
1354.7995153004347,1354.7995153004347,0.9998883837035939,5.7461118383637316e-05
1354.8064597685782,1354.8064597685782,0.9998371855354286,5.745944401722735e-05
1354.8134042367856,1354.8134042367856,0.9999966859584573,5.7465769543970986e-05
1354.8203487050566,1354.8203487050566,1.0000476471930717,5.746752864475025e-05
1354.8272931733925,1354.8272931733925,1.0001034482933844,5.746702334565335e-05
1354.8342376417747,1354.8342376417747,1.000076317270938,5.746814841047467e-05
1354.841182110232,1354.841182110232,1.000066624883193,5.7466302484456335e-05
1354.848126578748,1354.848126578748,1.0000647173688562,5.746600386618185e-05
1354.855071047322,1354.855071047322,0.9998793145136752,5.7462887467023175e-05
1354.8620155159545,1354.8620155159545,0.9999588254088211,5.7465500918203475e-05
1354.8689599846452,1354.8689599846452,0.9999209157485369,5.746435488129458e-05
1354.8759044533879,1354.8759044533879,1.0000172625685622,5.746904124779382e-05
1354.8828489222005,1354.8828489222005,1.0000688959117174,5.746900726202307e-05
1354.88979339106,1354.88979339106,0.9999984500965706,5.747138625660255e-05
1354.8967378599834,1354.8967378599834,1.0000123037308613,5.74710734745093e-05
1354.903682328953,1354.903682328953,1.0001552404240193,5.747633667908743e-05
1354.9106267979814,1354.9106267979814,0.9998891459782474,5.746917372959397e-05
1354.9175712670617,1354.9175712670617,0.9999094621771942,5.7469273254249985e-05
1354.9245157361947,1354.9245157361947,0.9999027980986565,5.7469327177669236e-05
1354.932015762924,1354.932015762924,1.0000273495225593,5.747090590325544e-05
1354.939793568475,1354.939793568475,1.000055819113865,5.747298165393647e-05
1354.9467380377823,1354.9467380377823,0.9998968745378012,5.746715889811258e-05
1354.9536825071423,1354.9536825071423,0.9999747612960924,5.7470348793111185e-05
1354.960626976531,1354.960626976531,1.000191500839488,5.747605459859049e-05
1354.9675714459845,1354.9675714459845,0.9999804721753442,5.7469177954312786e-05
1354.9745159154897,1354.9745159154897,0.9999971747808141,5.7470969461893796e-05
1354.981460385036,1354.981460385036,1.0000662471683242,5.747170618231543e-05
1354.9884048546287,1354.9884048546287,1.0000004887887832,5.746896576050997e-05
1354.9953493242738,1354.9953493242738,1.000035048877492,5.747342628604163e-05
1355.0022937939655,1355.0022937939655,0.999836881101352,5.74673507627824e-05
1355.009238263704,1355.009238263704,0.9999886629406332,5.747020816240007e-05
1355.0161827334946,1355.0161827334946,0.9999395238984452,5.747162433674998e-05
1355.0231272033202,1355.0231272033202,1.0000204329029194,5.746917714640364e-05
1355.030071673198,1355.030071673198,1.0001081721272291,5.7473474263409486e-05
1355.0370161431226,1355.0370161431226,1.0000500439560998,5.747268492747199e-05
1355.0439606130822,1355.0439606130822,0.9999534376686103,5.746888573898765e-05
1355.0509050830822,1355.0509050830822,0.9999850396290505,5.746874178565718e-05
1355.057849553135,1355.057849553135,0.9999362968379535,5.747100040139465e-05
1355.0647940232284,1355.0647940232284,1.0000187154332318,5.747116145568456e-05
1355.071738493368,1355.071738493368,0.9999997973503707,5.747055637207615e-05
1355.078682963537,1355.078682963537,1.0000429967362123,5.7472374885338065e-05
1355.0856274337584,1355.0856274337584,1.0000591016216456,5.747082303253852e-05
1355.0925719040147,1355.0925719040147,0.9999424953773881,5.746893400133516e-05
1355.099516374312,1355.099516374312,0.9999950174562784,5.7473420700854446e-05
1355.1064608446497,1355.1064608446497,1.0000776620220315,5.74720216928347e-05
1355.1134053150283,1355.1134053150283,0.999921741192237,5.746792139518323e-05
1355.120349785436,1355.120349785436,1.0000295280190346,5.747000768466993e-05
1355.12729425589,1355.12729425589,1.0000124216095734,5.747364509098265e-05
1355.1342387263853,1355.1342387263853,0.9999255419144124,5.7474253110721014e-05
1355.1411831969094,1355.1411831969094,1.000046969243795,5.747515975569104e-05
1355.1481276674858,1355.1481276674858,0.999959908578018,5.747512659837697e-05
1355.1550721380795,1355.1550721380795,1.0000715638669437,5.747756055230288e-05
1355.16201660872,1355.16201660872,1.0000287183095327,5.747591531176181e-05
1355.1689610794015,1355.1689610794015,0.9999443871257645,5.7473113446626656e-05
1355.1759055501118,1355.1759055501118,0.9999897353590808,5.747681716892867e-05
1355.182850020857,1355.182850020857,0.9999520762701242,5.747269581240016e-05
1355.1897944916375,1355.1897944916375,0.9999778504104638,5.7473747767464766e-05
1355.1967389624465,1355.1967389624465,0.9999460439746162,5.7475549641676114e-05
1355.2036834333023,1355.2036834333023,1.0000315558478103,5.747698644112053e-05
1355.2106279041816,1355.2106279041816,1.000073065978138,5.74753229994403e-05
1355.2175723750956,1355.2175723750956,1.0001565146792655,5.7477473002359745e-05
1355.2245168460445,1355.2245168460445,0.9999402982034358,5.7474501470058816e-05
1355.2314613170288,1355.2314613170288,1.0000445138020364,5.7478777568858376e-05
1355.2384057880415,1355.2384057880415,0.9998734802516666,5.747215031723784e-05
1355.2453502590893,1355.2453502590893,0.9999034974309551,5.747537739725921e-05
1355.2522947301666,1355.2522947301666,1.0000231034308542,5.7480521321577634e-05
1355.2592392012612,1355.2592392012612,0.9999667038157561,5.747533743517125e-05
1355.266183672408,1355.266183672408,1.0001868328335726,5.7481003302614856e-05
1355.2731281435724,1355.2731281435724,0.9999317732903737,5.747302204906304e-05
1355.2800726147716,1355.2800726147716,1.0000413201474103,5.747573974777509e-05
1355.287017086,1355.287017086,1.0000340112632706,5.7480095078152164e-05
1355.2939615572516,1355.2939615572516,0.9999415382234794,5.747103310223419e-05
1355.3009060285385,1355.3009060285385,0.9999756926904031,5.7473592059225224e-05
1355.3078504998598,1355.3078504998598,0.9999449953671278,5.747252178411786e-05
1355.3147949711988,1355.3147949711988,1.0000236637897335,5.74797573745947e-05
1355.321739442567,1355.321739442567,0.9999904033904679,5.7477617286318e-05
1355.328683913976,1355.328683913976,0.9999542708956402,5.747516765161757e-05
1355.3370172796838,1355.3370172796838,1.0001128204085155,5.748014423483937e-05
1355.3439617511394,1355.3439617511394,0.9999881388515439,5.7477215447633663e-05
1355.350906222624,1355.350906222624,0.999981486575549,5.747701184728603e-05
1355.3578506941374,1355.3578506941374,0.9999803182049568,5.747831163582603e-05
1355.3647951656799,1355.3647951656799,0.9999719976481453,5.7474469746435284e-05
1355.3717396372344,1355.3717396372344,1.000093496974221,5.747803220680269e-05
1355.37868410883,1355.37868410883,1.0001413834542612,5.747921086045404e-05
1355.3856285804363,1355.3856285804363,0.9999280214430459,5.747450155161993e-05
1355.392850830946,1355.392850830946,0.9999055141935989,5.747611775053542e-05
1355.4009064180832,1355.4009064180832,0.9998485431170122,5.747145791013465e-05
1355.4078508897826,1355.4078508897826,0.9999399427612838,5.747674020966193e-05
1355.4147953614886,1355.4147953614886,1.0001438839105037,5.748128020345473e-05
1355.4217398332294,1355.4217398332294,1.0000767570117213,5.7479677149550716e-05
1355.428684304993,1355.428684304993,0.9998925590970696,5.747273486280141e-05
1355.4356287767746,1355.4356287767746,1.0001168694646008,5.747872072467372e-05
1355.442573248585,1355.442573248585,1.000054143089814,5.747728890768937e-05
1355.4495177204185,1355.4495177204185,0.9999414115232398,5.747365231164543e-05
1355.456462192276,1355.456462192276,0.9998879862326868,5.747327913712781e-05
1355.4634066641502,1355.4634066641502,1.0001156730259166,5.748002747867296e-05
1355.470351136048,1355.470351136048,0.9999792345254959,5.747374163379237e-05
1355.4772956079694,1355.4772956079694,1.000003576213997,5.747669848056253e-05
1355.4842400799134,1355.4842400799134,1.0000250330969576,5.747807261653896e-05
1355.4911845518754,1355.4911845518754,0.9998659070149312,5.747381982443443e-05
1355.4981290238604,1355.4981290238604,1.0001210642989546,5.748214122068739e-05
1355.505073495863,1355.505073495863,0.9999826911631221,5.747798266341504e-05
1355.5120179678888,1355.5120179678888,1.0000504237107024,5.747859753803938e-05
1355.5189624399322,1355.5189624399322,0.9999395282536984,5.747462496977529e-05
1355.5259069119988,1355.5259069119988,0.9998641916810135,5.747354614120964e-05
1355.5328513840884,1355.5328513840884,1.0000462625868418,5.747754736236929e-05
1355.5397958561903,1355.5397958561903,0.9999875313418123,5.7472431278455814e-05
1355.5467403283208,1355.5467403283208,1.0000527833858155,5.7474973834861396e-05
1355.5536848004572,1355.5536848004572,0.9999936227716205,5.747940150499433e-05
1355.5606292726168,1355.5606292726168,1.000036810159121,5.747906996701016e-05
1355.5675737447998,1355.5675737447998,1.0001308511058618,5.748115487831962e-05
1355.5745182169885,1355.5745182169885,1.0000443558403178,5.747869016635708e-05
1355.5814626892068,1355.5814626892068,1.0000036118452225,5.748001631650443e-05
1355.5884071614419,1355.5884071614419,0.9998663704961667,5.747750987943785e-05
1355.595351633695,1355.595351633695,0.9999039666636265,5.747786508856175e-05
1355.602296105965,1355.602296105965,0.9999317888124427,5.74790105486866e-05
1355.6092405782472,1355.6092405782472,1.0000758042070217,5.747907185050245e-05
1355.6161850505528,1355.6161850505528,1.0000663509904413,5.747945923740984e-05
1355.623129522875,1355.623129522875,0.9999009149263681,5.747645848823669e-05
1355.6300739952094,1355.6300739952094,1.0000720726040944,5.747923333674397e-05
1355.6370184675613,1355.6370184675613,1.0000268097994292,5.7476135211565065e-05
1355.6439629399306,1355.6439629399306,0.9999413627413173,5.747486041457024e-05
1355.6509074123235,1355.6509074123235,1.0000147574184166,5.74788317433601e-05
1355.6578518847157,1355.6578518847157,1.0000413164272053,5.747859978725481e-05
1355.6647963571434,1355.6647963571434,1.000067768257481,5.748158699287548e-05
1355.671740829571,1355.671740829571,1.0000293722379543,5.748142036252253e-05
1355.6786853020153,1355.6786853020153,0.9999731427947101,5.747649598562874e-05
1355.6856297744837,1355.6856297744837,0.9999796279715314,5.74799137776071e-05
1355.6925742469582,1355.6925742469582,0.999924949361468,5.7477290793833395e-05
1355.6995187194493,1355.6995187194493,1.0000175587062086,5.747944449029722e-05
1355.7064631919584,1355.7064631919584,0.9998614263567074,5.7475997334115204e-05
1355.7134076644793,1355.7134076644793,1.0000014420677448,5.747846195965089e-05
1355.720352137017,1355.720352137017,1.0000019551644468,5.7479671591803e-05
1355.727296609573,1355.727296609573,1.0001589499021166,5.748535734243521e-05
1355.7342410821166,1355.7342410821166,1.0000368586971968,5.747801879150803e-05
1355.7417411125127,1355.7417411125127,1.0000869005194155,5.748246890962042e-05
1355.749518921812,1355.749518921812,0.9999923470208156,5.747669437272014e-05
1355.7564633944198,1355.7564633944198,1.0000690067032862,5.748327159605205e-05
1355.7634078670394,1355.7634078670394,0.9999590653905743,5.747813717371269e-05
1355.770352339677,1355.770352339677,1.0000193352952564,5.7478365797450186e-05
1355.777296812319,1355.777296812319,0.9998455200759601,5.7477293787875794e-05
1355.7842412849739,1355.7842412849739,1.0000119326150119,5.7481192589567775e-05
1355.7911857576403,1355.7911857576403,1.0000954397582313,5.7484325880687256e-05
1355.7981302303297,1355.7981302303297,1.0001408476527047,5.7483160057981976e-05
1355.8050747030247,1355.8050747030247,1.0000216724637356,5.7481826107277455e-05
1355.81201917572,1355.81201917572,0.9999976514952345,5.748102434646957e-05
1355.8189636484385,1355.8189636484385,0.9998679276504495,5.7478695255948686e-05
1355.8259081211804,1355.8259081211804,0.9999809503068665,5.748033602339524e-05
1355.8328525939164,1355.8328525939164,0.9999739888539996,5.747814977612345e-05
1355.8397970666697,1355.8397970666697,0.9999851229597818,5.748035081588509e-05
1355.846741539435,1355.846741539435,0.9999982833709884,5.748241186099499e-05
1355.8536860122117,1355.8536860122117,1.0000943651511025,5.748338320329349e-05
1355.8606304849884,1355.8606304849884,0.9999467021269688,5.7479058735992506e-05
1355.8675749577944,1355.8675749577944,1.0000089050348555,5.748273428460942e-05
1355.8745194305945,1355.8745194305945,0.9999981167961914,5.748004607721924e-05
1355.8814639034122,1355.8814639034122,1.0000419356603587,5.7483782095511514e-05
