time,time,flux,flux_err
1517.3671537612736,1517.3671537612736,0.9991375403256777,0.0023939262464495294
1517.3757649019258,1517.3757649019258,1.0000234482106714,0.0023042875360265004
1517.3829871490561,1517.3829871490561,0.9981254290940982,0.0022371695477715657
1517.3899316177808,1517.3899316177808,0.9988695458361381,0.0021761284275964394
1517.3968760866915,1517.3968760866915,0.9964559108019364,0.0021189066949499646
1517.4052094499616,1517.4052094499616,0.9985095676540588,0.00205735916611327
1517.4121539194311,1517.4121539194311,0.9959492683813547,0.0020080078409003906
1517.4190983892731,1517.4190983892731,1.0016022957288513,0.0019636035860321746
1517.426042859301,1517.426042859301,1.000431571580546,0.001922131627649574
1517.432987329516,1517.432987329516,0.9995258624825558,0.0018857079267542403
1517.4399318000098,1517.4399318000098,0.999843898095618,0.001851087375456429
1517.446876270597,1517.446876270597,0.9967975610413218,0.001817889781902765
1517.4538207415567,1517.4538207415567,0.9988995873058254,0.0017880706949537175
1517.4607652125155,1517.4607652125155,1.0010247644881811,0.0017594134258283399
1517.4677096838482,1517.4677096838482,1.0002830532914424,0.0017325999883987444
1517.4746541552734,1517.4746541552734,1.001602071218849,0.0017078266751263164
1517.4815986266985,1517.4815986266985,1.0003654294640394,0.0016834524133679714
1517.4885430984964,1517.4885430984964,0.9974647761050541,0.0016609503037298165
1517.4954875704805,1517.4954875704805,1.0005900473777891,0.001639053397943923
1517.5024320425575,1517.5024320425575,1.0001031647640268,0.0016190865473541041
1517.5093765148208,1517.5093765148208,0.9977948540762556,0.0015998790306800674
1517.5163209871776,1517.5163209871776,0.9987807340790777,0.0015816820128515072
1517.523265459627,1517.523265459627,0.9986341633287831,0.001564450204780166
1517.5302099322632,1517.5302099322632,1.0024101151980995,0.0015476825003164216
1517.5371544049922,1517.5371544049922,1.001269314333633,0.0015319993808877775
1517.5440988779076,1517.5440988779076,1.0026311083872657,0.0015172732801399704
1517.551043350823,1517.551043350823,0.9996621209943886,0.0015018743152656715
1517.5579878239246,1517.5579878239246,1.0000316202900807,0.00148759135457896
1517.5649322971196,1517.5649322971196,0.9988119711987787,0.0014739860295507104
1517.5718767705005,1517.5718767705005,0.9983889771321589,0.001460477151239091
1517.578821243788,1517.578821243788,0.999914033807374,0.0014474856641068148
1517.585765717263,1517.585765717263,1.0018504200314582,0.0014364503050248024
1517.5927101908296,1517.5927101908296,1.0014698181843527,0.001425322426025214
1517.59965466449,1517.59965466449,0.998716883823714,0.0014135284758432958
1517.6065991381506,1517.6065991381506,0.9985111204794371,0.0014037136454091528
1517.6135436119039,1517.6135436119039,1.0005770418182096,0.001394294157578003
1517.6204880859373,1517.6204880859373,1.0014467000506548,0.0013849826743366196
1517.6274325595975,1517.6274325595975,0.9995425828425584,0.0013763112802101796
1517.6343770337235,1517.6343770337235,0.999300864880168,0.0013690536383870176
1517.6413215078496,1517.6413215078496,1.0010711902860867,0.0013612361885254655
1517.6482659819758,1517.6482659819758,0.9983008633288939,0.0013524978665443135
1517.655210456102,1517.655210456102,1.0007029219790182,0.0013441555409959196
1517.6621549302279,1517.6621549302279,1.0019156023794331,0.0013367422416021596
1517.669099404354,1517.669099404354,0.998087384155917,0.0013292898907440287
1517.67604387848,1517.67604387848,1.000091727750915,0.0013219008755296024
1517.6829883530718,1517.6829883530718,1.000214000903723,0.0013135787388691858
1517.6899328271977,1517.6899328271977,0.9999091117898177,0.0013066241036112096
1517.6968773016968,1517.6968773016968,1.0011760427799379,0.0012988909155864168
1517.7038217759157,1517.7038217759157,1.0001527763996405,0.0012915067623522432
1517.7107662505073,1517.7107662505073,0.9993256035050724,0.0012840327645800777
1517.7177107248197,1517.7177107248197,0.9997348900963983,0.0012762078531324884
1517.7246551992253,1517.7246551992253,0.9987513589713892,0.0012692960850173506
1517.7315996738168,1517.7315996738168,1.0005197703059372,0.0012619777064270875
1517.7385441482227,1517.7385441482227,1.0009821067071625,0.001254867451637627
1517.7454886226278,1517.7454886226278,0.999916330065403,0.0012482280252399175
1517.7524330971264,1517.7524330971264,0.99823755961009,0.0012401617796439558
1517.759377571625,1517.759377571625,1.000156806886925,0.001233162216781904
1517.7663220461236,1517.7663220461236,0.9998626625516529,0.0012263096031906327
1517.7732665205294,1517.7732665205294,1.0006579967996836,0.001220319861938552
1517.7802109950276,1517.7802109950276,1.0008548502650714,0.0012130679221164216
1517.7871554695264,1517.7871554695264,0.9999215520987255,0.0012055077446957254
1517.7940999440248,1517.7940999440248,1.0010538969654899,0.0012004307406266648
1517.8010444183376,1517.8010444183376,1.0001513507437108,0.001192677200038297
1517.807988892929,1517.807988892929,0.9984485513224339,0.0011859282392732643
1517.8149333672413,1517.8149333672413,0.9999163452669844,0.0011804439141478774
1517.821877841647,1517.821877841647,1.000056697641495,0.0011751364695399675
1517.8288223161453,1517.8288223161453,0.9999204147536573,0.0011696775951556796
1517.8357667903647,1517.8357667903647,1.0004399390139305,0.0011645046648461872
1517.842711264863,1517.842711264863,1.0003138336237705,0.0011587928432068848
1517.8496557390827,1517.8496557390827,0.999108217825283,0.0011534766665901857
1517.8566002132084,1517.8566002132084,0.9992022348777045,0.0011492860085758844
1517.8635446878002,1517.8635446878002,1.0006568608931556,0.001143486436217389
1517.8704891619261,1517.8704891619261,0.9997079371424398,0.0011392556259096898
1517.8774336360525,1517.8774336360525,0.9992863073609932,0.0011362076130243045
1517.8843781101782,1517.8843781101782,1.0004174148751521,0.0011315490870155193
1517.8913225843044,1517.8913225843044,1.0011096531697838,0.0011274485425349658
1517.8982670584305,1517.8982670584305,1.0003516589146089,0.0011251647315940773
1517.9052115325567,1517.9052115325567,0.9995064152469512,0.0011220515627610068
1517.9121560065898,1517.9121560065898,1.0003386883816943,0.0011189107244929546
1517.9191004803433,1517.9191004803433,1.0008523414079513,0.0011161636724742311
1517.926044954469,1517.926044954469,0.9989648765881658,0.001113609996625128
1517.9329894282225,1517.9329894282225,1.0001870772254695,0.0011119026121481572
1517.9399339021625,1517.9399339021625,0.9995316578342053,0.0011096753665927452
1517.9479894916828,1517.9479894916828,0.9998919443716193,0.0011073330687172318
1517.9552117444018,1517.9552117444018,1.0008263531562638,0.0011049508713884188
1517.962156218062,1517.962156218062,0.9995330622196394,0.0011025518757359582
1517.9691006916296,1517.9691006916296,0.9999376103015285,0.0010999200267478818
1517.9760451651969,1517.9760451651969,0.9998175950037975,0.0010986355090865118
1517.982989638764,1517.982989638764,0.9996609644330092,0.0010965810935997015
1517.9899341122382,1517.9899341122382,0.9990621484883817,0.0010944598081689678
1517.9968785856195,1517.9968785856195,1.000456722983365,0.0010924607470353947
1518.0038230589066,1518.0038230589066,1.0007550334324509,0.0010902705435553225
1518.0107675322881,1518.0107675322881,1.0011479851342768,0.0010884297607345638
1518.0177120054827,1518.0177120054827,0.9985831230644198,0.001086016715698499
1518.0246564785843,1518.0246564785843,1.000661967889868,0.0010853214089849637
1518.0316009517794,1518.0316009517794,0.9987723179381245,0.0010821738714419562
1518.0385454246946,1518.0385454246946,0.9996515724072564,0.0010808057396320314
1518.045489897703,1518.045489897703,1.0020022287106611,0.0010792347547829572
1518.0524343706184,1518.0524343706184,0.9980055862408873,0.0010766286640886062
1518.059378843534,1518.059378843534,1.0015042602810562,0.0010755525423408745
1518.0663233162625,1518.0663233162625,0.9997916902151157,0.001072944033531426
1518.0732677889919,1518.0732677889919,1.0006843315547043,0.0010708676211758918
1518.0802122616278,1518.0802122616278,1.0005467656015206,0.001069051493967046
1518.0871567341705,1518.0871567341705,0.9987996839692184,0.0010663619925116788
1518.0941012067135,1518.0941012067135,0.9995199491439394,0.0010650545872813145
1518.10104567907,1518.10104567907,0.9996439487375184,0.001062443117996642
1518.1079901515197,1518.1079901515197,1.0004641425434904,0.0010606659270308888
1518.1149346237828,1518.1149346237828,0.9998849366904932,0.0010586946870783955
1518.1218790959533,1518.1218790959533,0.9992136852134677,0.0010572972871052328
1518.1288235682166,1518.1288235682166,1.001114315442895,0.0010553399863594101
1518.1357680401077,1518.1357680401077,1.0000647377343674,0.0010528988046778283
1518.1427125122777,1518.1427125122777,0.9998969900049766,0.0010511361319868375
1518.1496569840756,1518.1496569840756,0.9992042933985349,0.0010490252342322582
1518.1566014558734,1518.1566014558734,1.0010626154394113,0.0010468245046580229
1518.1635459276708,1518.1635459276708,1.0000671732753523,0.0010440660927650157
1518.170490399469,1518.170490399469,0.9999349585788477,0.0010428285996089892
1518.177434870801,1518.177434870801,1.0010890793788974,0.0010418510275448042
1518.1843793424127,1518.1843793424127,0.9989190206396333,0.0010397878351531631
1518.1913238138377,1518.1913238138377,0.9996796133323009,0.0010379273142537865
1518.19826828517,1518.19826828517,1.0015461480804404,0.0010374370602477226
1518.2052127564086,1518.2052127564086,0.998422334357733,0.0010359067528793724
1518.2121572276476,1518.2121572276476,0.9995736790788134,0.0010348396607867045
1518.219101698794,1518.219101698794,1.0013827257224819,0.0010334577205872346
1518.2260461697529,1518.2260461697529,0.9985464989659587,0.001032377553495216
1518.2329906407128,1518.2329906407128,0.9993984343586682,0.001030761277904916
1518.2399351114861,1518.2399351114861,0.9994281264680869,0.001031008906827319
1518.2468795823524,1518.2468795823524,1.0008332155623632,0.0010305099191905466
1518.2538240530328,1518.2538240530328,1.0021613440321733,0.0010306146352074426
1518.2607685235266,1518.2607685235266,0.9989615862759568,0.00102958814777878
1518.267990772799,1518.267990772799,1.000173005758263,0.001028679421862478
1518.2760463585014,1518.2760463585014,0.9995240868837978,0.001027115252051421
1518.282990828809,1518.282990828809,0.9983648164507603,0.0010269245806961292
1518.2899352990232,1518.2899352990232,0.9998284955548167,0.0010256569692839112
1518.296879769145,1518.296879769145,1.00094698351573,0.0010257666551156156
1518.3038242391733,1518.3038242391733,0.9992665688791667,0.001025066987904428
1518.310768709108,1518.310768709108,0.9989189539545471,0.001023995001219719
1518.3191020729373,1518.3191020729373,1.0006821765019642,0.001022695647691891
1518.3260465425928,1518.3260465425928,1.0003611871957105,0.001021068159832984
1518.332991012435,1518.332991012435,1.0002498845084724,0.001020264242726184
1518.3399354819971,1518.3399354819971,1.001284353377169,0.001019820024607988
1518.3468799514667,1518.3468799514667,1.0002466890686872,0.0010190494120588017
1518.3538244208435,1518.3538244208435,0.9987829982673289,0.0010174200186876079
1518.3607688899403,1518.3607688899403,0.9997134865373504,0.0010167823285156976
1518.3677133592234,1518.3677133592234,0.9997632071135965,0.0010160332912143135
1518.3746578283203,1518.3746578283203,0.9995902502284661,0.0010149962685705592
1518.381602297324,1518.381602297324,1.000945388021107,0.0010147124211609196
1518.3885467662344,1518.3885467662344,1.0005191631889658,0.0010142226525019465
1518.3954912349593,1518.3954912349593,1.0004393272858654,0.0010131342586880841
1518.4024357036833,1518.4024357036833,1.0012293774725654,0.0010123632305340672
1518.409380172315,1518.409380172315,0.999691152973915,0.0010115766457945365
1518.4171579770032,1518.4171579770032,1.0002736881327619,0.0010105528307909723
1518.4246580029126,1518.4246580029126,0.9987848831464656,0.0010098188466908082
1518.4316024711713,1518.4316024711713,0.9997559435228516,0.0010091714717191593
1518.4385469395233,1518.4385469395233,0.9991286963027605,0.0010078420632890597
1518.4454914075952,1518.4454914075952,1.0005634340538072,0.0010082859795066883
1518.4524358755748,1518.4524358755748,1.0007716614617517,0.0010086739145941264
1518.4593803435541,1518.4593803435541,1.0004434660658434,0.0010069209124727817
1518.4677137047759,1518.4677137047759,0.999149113912423,0.0010063869624268723
1518.4746581725685,1518.4746581725685,1.000880994383154,0.0010065631489300608
1518.4816026400824,1518.4816026400824,1.000156048670926,0.0010070458143552603
1518.488547107689,1518.488547107689,0.9999260215862125,0.0010052993914888716
1518.4954915750163,1518.4954915750163,0.999415926938973,0.0010048033617075175
1518.502436042437,1518.502436042437,0.9996553768709541,0.0010041782672653252
1518.509380509578,1518.509380509578,0.999171050220238,0.0010040582096152498
1518.5163249767193,1518.5163249767193,1.0013070332155956,0.0010049341143157499
1518.523269443674,1518.523269443674,0.9996959700368759,0.0010043219381703588
1518.5302139105358,1518.5302139105358,1.0004351683779713,0.0010040440270218036
1518.5371583773042,1518.5371583773042,1.000662808974499,0.0010039083357989867
1518.5441028440728,1518.5441028440728,1.000827713722129,0.0010042893007585689
1518.5510473106556,1518.5510473106556,0.9990992487894793,0.001003681468523249
1518.5579917770515,1518.5579917770515,0.9988355846576665,0.001003047459445743
1518.564936243448,1518.564936243448,1.000126980252027,0.0010034185323063926
1518.5718807097505,1518.5718807097505,0.9994973879052772,0.0010037020200046938
1518.5788251759604,1518.5788251759604,1.0003735377801388,0.001003000632460999
1518.585769641984,1518.585769641984,0.999933678836163,0.0010026397767971622
1518.5927141079144,1518.5927141079144,1.0003220558556563,0.0010033265219725773
1518.5996585739376,1518.5996585739376,1.000433324760367,0.0010033479749944284
1518.606603039682,1518.606603039682,0.9997503025940118,0.001003180730077564
1518.6135475053331,1518.6135475053331,0.999645937757823,0.0010025994057928035
1518.620491970984,1518.620491970984,1.0001835650034923,0.0010033736807096099
1518.6274364363558,1518.6274364363558,0.9982890667952878,0.0010028070143666622
1518.6343809017271,1518.6343809017271,1.0013797207429294,0.0010027723771882813
1518.641325367006,1518.641325367006,1.000861912634511,0.0010036496967962803
1518.648269832098,1518.648269832098,1.0006702146345565,0.00100277072451835
1518.6552142971905,1518.6552142971905,0.9998834051342239,0.0010028956425776245
1518.662158762003,1518.662158762003,0.9997619426540665,0.0010021740724765668
1518.6691032268159,1518.6691032268159,0.99989590161636,0.0010023820388011038
1518.676047691629,1518.676047691629,0.9996132822808252,0.0010021967828000296
1518.6829921563483,1518.6829921563483,0.9992268945247942,0.0010026900299697202
1518.6899366207886,1518.6899366207886,0.9999402748846465,0.0010026293220673987
1518.6968810851358,1518.6968810851358,0.999803675630911,0.001002429317576368
1518.703825549483,1518.703825549483,0.9999598615952401,0.0010036929330003194
1518.7107700136435,1518.7107700136435,1.0005062265089633,0.0010028628882981293
1518.7177144777118,1518.7177144777118,1.0013694712719414,0.0010028255000906724
1518.7246589417796,1518.7246589417796,0.9997170345007124,0.0010021606411253349
1518.731603405568,1518.731603405568,0.9996344032348301,0.0010023749830266652
1518.7385478694496,1518.7385478694496,0.9994149003152003,0.0010026275557993335
1518.7454923331447,1518.7454923331447,1.0006881402355456,0.0010034658576717002
1518.7524367966537,1518.7524367966537,0.9989297798586347,0.0010032334175047871
1518.7593812600694,1518.7593812600694,1.0005202043551904,0.0010029513879385222
1518.7663257234856,1518.7663257234856,1.0007453422821082,0.0010026673005416875
1518.7732701867146,1518.7732701867146,0.9993877367934262,0.0010029453624933904
1518.7802146497584,1518.7802146497584,1.0002687639638244,0.0010024795807702012
1518.7871591128016,1518.7871591128016,0.9985274517225322,0.0010029574448805366
1518.7941035757515,1518.7941035757515,1.0005916464706548,0.00100337636740612
1518.8010480386088,1518.8010480386088,1.0007447658272581,0.0010028666079886827
1518.8079925011866,1518.8079925011866,1.0001101468841016,0.001002793669426443
1518.8149369636708,1518.8149369636708,1.00046527258852,0.0010034194250327353
1518.8218814261552,1518.8218814261552,0.9993975833437598,0.0010024909843390749
1518.82882588864,1518.82882588864,1.000167901518461,0.001003176699850928
1518.8357703510314,1518.8357703510314,0.9999139164152201,0.001002395434693076
1518.8427148131436,1518.8427148131436,0.9990703760236794,0.001002851588963169
1518.8496592751621,1518.8496592751621,0.9991204190032488,0.0010024561421950386
1518.856603737088,1518.856603737088,1.0007227108471113,0.0010028388782936978
1518.8635481989209,1518.8635481989209,1.000969611669166,0.0010028423526410673
1518.870492660753,1518.870492660753,1.0013928853321719,0.0010029601078281065
1518.8774371223062,1518.8774371223062,0.9990536415321822,0.0010033239147751699
1518.8843815837663,1518.8843815837663,0.9991826378261,0.0010023555458464263
1518.8913260453196,1518.8913260453196,1.000814901547327,0.0010031897403070134
1518.8982705065,1518.8982705065,0.9995041098123846,0.001003030524702431
1518.9052149676809,1518.9052149676809,0.9999358141526195,0.0010022828618194276
1518.9121594287683,1518.9121594287683,1.0003771798814278,0.0010028773261413185
1518.9191038897625,1518.9191038897625,0.9981043962302097,0.0010023440052179579
1518.926048350571,1518.926048350571,0.9998513418474199,0.0010027445116097466
1518.9329928112857,1518.9329928112857,1.002192761648461,0.0010029344034223364
1518.9399372720006,1518.9399372720006,1.0013282436606457,0.001002807133802697
1518.9468817325298,1518.9468817325298,0.9987270066599994,0.0010024106450654993
1518.953826192872,1518.953826192872,0.99878774515862,0.0010021151991398672
1518.9607706530285,1518.9607706530285,0.9997972306770899,0.0010018240379817264
1518.9677151131843,1518.9677151131843,1.0012753513291626,0.0010023795949290649
1518.974659573341,1518.974659573341,0.9998629801025928,0.0010021503343359411
1518.9816040334972,1518.9816040334972,0.9997783549706065,0.0010026815367154304
1518.9885484932809,1518.9885484932809,1.0000760416079424,0.0010030955052181363
1518.9954929530643,1518.9954929530643,0.9997335172539884,0.0010027852474171557
1519.0024374127552,1519.0024374127552,0.9999621801051983,0.0010028121411065048
1519.0093818722594,1519.0093818722594,1.0005490386554983,0.0010032301030060624
1519.0163263316704,1519.0163263316704,0.9987481795205998,0.001003032017125926
1519.0232707909886,1519.0232707909886,1.0011192767978314,0.0010026782533225289
1519.0302152502131,1519.0302152502131,0.999601215081686,0.0010021656394877771
1519.037159709252,1519.037159709252,1.0012672581326043,0.0010033125464990501
1519.0441041682905,1519.0441041682905,0.999126622459303,0.0010030020656000295
1519.0510486271428,1519.0510486271428,0.9989797546286813,0.0010026984267962025
1519.0579930859021,1519.0579930859021,1.0018730092922163,0.0010033543370557697
1519.064937544475,1519.064937544475,0.998877219188023,0.0010025144054877178
1519.0718820031407,1519.0718820031407,0.9996479173107982,0.0010026777557902336
1519.0788264615278,1519.0788264615278,0.9996199319142403,0.0010029661666350201
1519.0857709199145,1519.0857709199145,0.9997390211457553,0.001003168955650623
1519.0927153781147,1519.0927153781147,1.0014658477608438,0.0010029067655944008
1519.099659836129,1519.099659836129,0.9992455209609103,0.00100319179429975
1519.10660429405,1519.10660429405,1.000585582542057,0.0010025423453231467
1519.1135487522502,1519.1135487522502,0.9996522683825901,0.0010026424776340833
1519.1204932097057,1519.1204932097057,0.9994561992001652,0.0010027768416490668
1519.1274376674403,1519.1274376674403,1.0017219413357838,0.0010030606041962974
1519.134382124989,1519.134382124989,0.9989846247622596,0.0010026722598806023
1519.1413265824442,1519.1413265824442,1.0005011719780807,0.0010030255707084413
