time,time,flux,flux_err
1325.3038615118423,1325.3038615118423,1.0000771440699248,0.00010678193049708186
1325.312194891825,1325.312194891825,0.999953978816725,0.00010677321258605687
1325.3205282716528,1325.3205282716528,0.9999012714783428,0.00010675310793657356
1325.3281672028947,1325.3281672028947,0.9998994538340312,9.744129275422983e-05
1325.3351116857998,1325.3351116857998,0.9999243037500125,9.743353216192522e-05
1325.3420561686116,1325.3420561686116,1.0002333428508927,9.744255200507923e-05
1325.3490006513305,1325.3490006513305,1.0000064528753085,9.742441713070076e-05
1325.3559451339563,1325.3559451339563,1.000137391330628,9.742612081296281e-05
1325.3628896164887,1325.3628896164887,0.9999960483810121,9.742278383214564e-05
1325.369834098928,1325.369834098928,0.9998445976702028,9.741876165027125e-05
1325.376778581181,1325.376778581181,1.0000757341306485,9.742762549840089e-05
1325.3837230634344,1325.3837230634344,1.0000456879384316,9.743339861169854e-05
1325.3906675455014,1325.3906675455014,1.0001140903840025,9.744423078445915e-05
1325.3976120276614,1325.3976120276614,0.9999581408021883,9.744873640483715e-05
1325.4045565095416,1325.4045565095416,1.0000307883467199,9.745733190629578e-05
1325.411500991516,1325.411500991516,0.9999414241815762,9.746132170226953e-05
1325.4184454732099,1325.4184454732099,0.9999709483230085,9.747458750355862e-05
1325.4253899549974,1325.4253899549974,1.0000087399046964,9.748376943903057e-05
1325.4323344365055,1325.4323344365055,0.9998521174078746,9.747910066841518e-05
1325.4392789180135,1325.4392789180135,1.0000518703781514,9.749759389171631e-05
1325.4462233995218,1325.4462233995218,0.9999173352111514,9.749345744400662e-05
1325.4531678810295,1325.4531678810295,1.0000523479687078,9.750945667888076e-05
1325.4601123620723,1325.4601123620723,1.0000190291414022,9.751349655758108e-05
1325.467056843394,1325.467056843394,1.0000061444296477,9.751125396999989e-05
1325.4740013245296,1325.4740013245296,1.0000135994963586,9.751317908935165e-05
1325.480945805572,1325.480945805572,0.9999841372326799,9.752129936960904e-05
1325.4878902866142,1325.4878902866142,0.999907111528262,9.752024700566823e-05
1325.4948347674706,1325.4948347674706,1.0000277236224524,9.752918657525527e-05
1325.5017792483268,1325.5017792483268,1.0000322000916986,9.752901610896993e-05
1325.5087237290895,1325.5087237290895,1.0001232870958114,9.754205953745679e-05
1325.51566820976,1325.51566820976,1.0000708383948849,9.754116130977685e-05
1325.5226126904295,1325.5226126904295,0.9999515989992727,9.753841986097751e-05
1325.5295571710062,1325.5295571710062,0.9998583441237663,9.753879851728422e-05
1325.536501651583,1325.536501651583,1.0000673394565562,9.75547156924722e-05
1325.5434461318803,1325.5434461318803,0.9998305386683859,9.754585501601741e-05
1325.550390612271,1325.550390612271,1.000060912233445,9.756257097744665e-05
1325.5573350925683,1325.5573350925683,1.0000240112670773,9.756386638967704e-05
1325.5642795729589,1325.5642795729589,1.0000465960904088,9.756824237827931e-05
1325.57122405307,1325.57122405307,1.000186432024747,9.757514195467072e-05
1325.5781685331808,1325.5781685331808,0.9999467812373339,9.757573026983103e-05
1325.5851130131991,1325.5851130131991,0.9999918530397782,9.757899650944285e-05
1325.592057493217,1325.592057493217,0.9997596104900067,9.75682638532632e-05
1325.5990019731416,1325.5990019731416,0.9999029004798017,9.757673536092366e-05
1325.6059464530667,1325.6059464530667,1.0000873578454161,9.758925187063777e-05
1325.612890932805,1325.612890932805,1.0000611071667023,9.75911738810513e-05
1325.6198354126368,1325.6198354126368,1.0000873865048991,9.759792827924219e-05
1325.6267798923755,1325.6267798923755,1.0000350938787137,9.759588807612542e-05
1325.6337243720209,1325.6337243720209,1.0001720142856323,9.760184414624892e-05
1325.6406688515733,1325.6406688515733,0.9999219011599536,9.759481773904776e-05
1325.6476133311253,1325.6476133311253,1.0000190129981,9.760326440365155e-05
1325.654557810678,1325.654557810678,1.0001168778442338,9.760880334460716e-05
1325.6615022899507,1325.6615022899507,0.9998647622207855,9.760168240852329e-05
1325.6684467695961,1325.6684467695961,0.9999781533557399,9.76077713714543e-05
1325.675391248776,1325.675391248776,0.9999717383282494,9.761014890085861e-05
1325.682335727956,1325.682335727956,1.0001132594558542,9.761843516156832e-05
1325.6892802071357,1325.6892802071357,0.999922126277216,9.761853056593721e-05
1325.6962246863154,1325.6962246863154,1.0001583204674853,9.762632783973828e-05
1325.7031691654952,1325.7031691654952,0.9998903139897806,9.761617602341207e-05
1325.710113644675,1325.710113644675,0.999922126089676,9.762111606797432e-05
1325.7170581238545,1325.7170581238545,0.9999221731999988,9.762382570172223e-05
1325.7240026026618,1325.7240026026618,0.9999501491683429,9.763066641533603e-05
1325.7309470817486,1325.7309470817486,1.0000445850289172,9.763952160489098e-05
1325.7378915605557,1325.7378915605557,1.000229908878141,9.765315256972428e-05
1325.7448360394562,1325.7448360394562,1.000077137350622,9.765281305080631e-05
1325.7517805182633,1325.7517805182633,0.9999665423185693,9.764829490422724e-05
1325.7587249969777,1325.7587249969777,0.9999352289431922,9.765671969316918e-05
1325.7656694756918,1325.7656694756918,0.9998655222640224,9.765795334819214e-05
1325.7726139544056,1325.7726139544056,1.000084026560796,9.76699961447079e-05
1325.7795584330268,1325.7795584330268,0.9999318058166221,9.767467190699569e-05
1325.7865029116476,1325.7865029116476,1.0000320542375962,9.768632350364271e-05
1325.7934473901755,1325.7934473901755,1.0000617257209987,9.769342872376776e-05
1325.8003918687034,1325.8003918687034,0.9998677021726591,9.769010814383771e-05
1325.8073363471383,1325.8073363471383,1.000082463502541,9.770266487582229e-05
1325.814280825573,1325.814280825573,1.000111206409882,9.770821503946132e-05
1325.8212253039142,1325.8212253039142,0.9999131515692877,9.770089140022314e-05
1325.828169782256,1325.828169782256,1.0000563648691199,9.771457757922892e-05
1325.8351142605977,1325.8351142605977,0.9998740003075289,9.771359311036103e-05
1325.8420587388462,1325.8420587388462,0.9998628337542115,9.771863792936786e-05
1325.8490032170016,1325.8490032170016,1.0000739583350446,9.772954205349985e-05
1325.8559476952496,1325.8559476952496,1.000160263978302,9.773710657024655e-05
1325.8628921734053,1325.8628921734053,1.0000376113583458,9.773341800690216e-05
1325.8698366514673,1325.8698366514673,0.9999225829230847,9.772496193323572e-05
1325.8767811295297,1325.8767811295297,1.0001042798440867,9.773744978997506e-05
1325.883725607499,1325.883725607499,0.9999823141711526,9.772803619064251e-05
1325.890670085561,1325.890670085561,0.9998686779487702,9.772044496234962e-05
1325.8976145635302,1325.8976145635302,0.9999880823637695,9.772457065450862e-05
1325.9045590414062,1325.9045590414062,0.9999732324936194,9.772701160795762e-05
1325.9115035192815,1325.9115035192815,1.0000977765950338,9.773583339783817e-05
1325.9184479971577,1325.9184479971577,0.9999027704142132,9.77236707800422e-05
1325.9253924749403,1325.9253924749403,1.0000784229343225,9.773244594041522e-05
1325.9323369527235,1325.9323369527235,1.0001326516632931,9.773483511008143e-05
1325.9392814304128,1325.9392814304128,0.9999419694423191,9.772405097086242e-05
1325.9462259081029,1325.9462259081029,0.9999566037346149,9.772684456854916e-05
1325.9531703858856,1325.9531703858856,0.9999602039387512,9.77321516607387e-05
1325.960114863482,1325.960114863482,1.0000256254219704,9.773233396823256e-05
1325.967892678301,1325.967892678301,1.0000020864878854,9.773951632624323e-05
1325.9753927141387,1325.9753927141387,0.9999509884299315,9.773740560087548e-05
1325.9823371915488,1325.9823371915488,1.0000322654439397,9.77417776569619e-05
1325.9892816691452,1325.9892816691452,1.0000520886857882,9.774677287371878e-05
1325.9962261465553,1325.9962261465553,1.0000167231954873,9.774381651327666e-05
1326.003170623966,1326.003170623966,0.9999713453869312,9.774867780635998e-05
1326.0101151012827,1326.0101151012827,0.9998596469423141,9.774280346963249e-05
1326.0170595786935,1326.0170595786935,1.0000936523297992,9.776068300956222e-05
1326.0240040560104,1326.0240040560104,0.9999192910984516,9.775691888094868e-05
1326.0309485332346,1326.0309485332346,0.9999948505557938,9.776304543829576e-05
1326.0378930105514,1326.0378930105514,1.000025054645441,9.777359177582402e-05
1326.0448374876821,1326.0448374876821,1.0000597442046266,9.777048549100517e-05
1326.0517819649065,1326.0517819649065,1.0000714617509174,9.77780019126764e-05
1326.0587264421306,1326.0587264421306,1.0000802241554272,9.777565352228143e-05
1326.0656709190748,1326.0656709190748,0.999859790274287,9.777291725997182e-05
1326.0726153963922,1326.0726153963922,1.0000193357020468,9.778604756780068e-05
1326.0795598732432,1326.0795598732432,1.0000831853718972,9.778686097945345e-05
1326.086504350375,1326.086504350375,0.9999161701795483,9.778552028254911e-05
1326.0934488274122,1326.0934488274122,1.0000614540166888,9.779748455384553e-05
1326.1003933042641,1326.1003933042641,0.9998758625464991,9.77854809914e-05
1326.1073377811156,1326.1073377811156,0.9999704466379088,9.779136020312929e-05
1326.1142822579666,1326.1142822579666,0.9999736299684416,9.779395071008953e-05
1326.1212267348183,1326.1212267348183,1.0000469830330687,9.779958272338165e-05
1326.1281712116693,1326.1281712116693,1.0000084647131453,9.779802102258161e-05
1326.1351156885214,1326.1351156885214,1.0000383774821693,9.78013361968287e-05
1326.1420601653724,1326.1420601653724,1.000022437685711,9.780574239506149e-05
1326.1490046422243,1326.1490046422243,1.0000903700116428,9.780639820675914e-05
1326.1559491187963,1326.1559491187963,1.000024821678442,9.780155817157819e-05
1326.1628935954614,1326.1628935954614,0.9999356809980237,9.780130198970391e-05
1326.169838072313,1326.169838072313,1.0000025750638115,9.780695242389908e-05
1326.1767825486986,1326.1767825486986,0.9998781567203847,9.779654595337868e-05
1326.183727025457,1326.183727025457,0.9998591416389637,9.779890620135469e-05
1326.190671501936,1326.190671501936,0.9999269667318484,9.780135258113116e-05
1326.1976159784147,1326.1976159784147,1.0001376856989865,9.781111408582984e-05
1326.2045604549871,1326.2045604549871,1.0001301516592966,9.781207005560768e-05
1326.2115049314657,1326.2115049314657,1.0000004771961895,9.780718001411715e-05
1326.2184494078522,1326.2184494078522,1.000000799386533,9.780430786166669e-05
1326.2253938842375,1326.2253938842375,1.0000829163706118,9.780808025017338e-05
1326.2323383606235,1326.2323383606235,0.9999782307141583,9.780577271756008e-05
1326.2392828370091,1326.2392828370091,0.9999916547490949,9.780635799990571e-05
1326.2462273133017,1326.2462273133017,0.9999495229616457,9.780157833817128e-05
1326.253171789595,1326.253171789595,1.0000263235284341,9.780987164636325e-05
1326.260116265887,1326.260116265887,0.9999548729646349,9.780772011363361e-05
1326.267060742087,1326.267060742087,0.9998621229072026,9.780979960247656e-05
1326.2740052182867,1326.2740052182867,1.0000723602159884,9.781346164915248e-05
1326.280949694486,1326.280949694486,1.0000586390167243,9.781598723229241e-05
1326.2878941705926,1326.2878941705926,1.0000253366768284,9.78163717069604e-05
1326.294838646699,1326.294838646699,1.0001157699238503,9.782582262701016e-05
1326.301783122805,1326.301783122805,1.0000171349138616,9.782220021372849e-05
1326.3087275988182,1326.3087275988182,0.9999588611387773,9.782070960133861e-05
1326.3156720748318,1326.3156720748318,0.9998067282739018,9.781493183127834e-05
1326.3226165508452,1326.3226165508452,1.0000824826882475,9.782673707915666e-05
1326.3295610268583,1326.3295610268583,0.9999865720780784,9.782730294308029e-05
1326.336505502779,1326.336505502779,0.9999682674507107,9.78266742969535e-05
1326.3434499786988,1326.3434499786988,1.000059529442313,9.783043784077608e-05
1326.3509500125808,1326.3509500125808,0.9999249445994604,9.78270705666282e-05
1326.360116720721,1326.360116720721,1.0001038177265975,9.78372503095705e-05
1326.3670611965476,1326.3670611965476,0.9999609937609785,9.783647839431149e-05
1326.3740056722818,1326.3740056722818,0.9999876341460963,9.783944818154324e-05
1326.3809501480155,1326.3809501480155,0.9999965063624765,9.783773693773252e-05
1326.3878946236564,1326.3878946236564,1.0000113879771324,9.784061231988035e-05
1326.3948390993903,1326.3948390993903,0.9999636890825017,9.784184521768999e-05
1326.401783575031,1326.401783575031,1.0001294668149843,9.785143835672357e-05
1326.408728050765,1326.408728050765,0.999971750355569,9.784686397408588e-05
1326.415672526406,1326.415672526406,0.99998264872675,9.78536654757376e-05
1326.4226170018603,1326.4226170018603,0.9999064230913293,9.785200625918021e-05
1326.429561477501,1326.429561477501,1.000048345246571,9.785891800413774e-05
1326.4365059530487,1326.4365059530487,1.000058817186226,9.78624619448373e-05
1326.443450428503,1326.443450428503,0.9999807645799781,9.785985882127634e-05
1326.4503949039577,1326.4503949039577,1.000082491650566,9.786881020846944e-05
1326.4573393793191,1326.4573393793191,1.0000002499956109,9.786944327789618e-05
1326.4642838547736,1326.4642838547736,0.9998973171019904,9.786454622575733e-05
1326.4712283301346,1326.4712283301346,1.000022081607137,9.786963900995581e-05
1326.4781728054961,1326.4781728054961,1.0000379607274097,9.787349290477313e-05
1326.485117280858,1326.485117280858,1.0000330462059885,9.78742066034567e-05
1326.4920617560324,1326.4920617560324,0.9999143504655083,9.786672071803483e-05
1326.4990062313013,1326.4990062313013,1.0000475947205731,9.787666548055084e-05
1326.5059507065691,1326.5059507065691,1.0000278457001262,9.787494179912028e-05
1326.5128951817444,1326.5128951817444,1.000059770386833,9.787807167017143e-05
1326.5198396569194,1326.5198396569194,0.999996434866594,9.787944581246182e-05
1326.5267841320015,1326.5267841320015,1.0001867208518143,9.789312779726514e-05
1326.5337286070833,1326.5337286070833,0.99987191726932,9.788380599380617e-05
1326.5406730822583,1326.5406730822583,0.9999949201025704,9.788997888870062e-05
1326.5476175573406,1326.5476175573406,1.0001878602175502,9.790225006456664e-05
1326.5545620323294,1326.5545620323294,0.9998441602912237,9.789093333200713e-05
1326.561506507318,1326.561506507318,0.9999847111448865,9.7902044425279e-05
1326.568450982307,1326.568450982307,0.9999373732392973,9.790177646778796e-05
1326.5753954572024,1326.5753954572024,0.9998267408023895,9.789292063261529e-05
1326.5823399320986,1326.5823399320986,0.9998498430913653,9.790034064214395e-05
1326.589284407087,1326.589284407087,1.0002548514563343,9.792242969713974e-05
1326.5962288817968,1326.5962288817968,1.0001384579248978,9.791320585510026e-05
1326.6031733565992,1326.6031733565992,0.9999629909463652,9.790792751369495e-05
1326.610117831495,1326.610117831495,1.0000564491208341,9.791254895856797e-05
1326.6170623061112,1326.6170623061112,0.9999419414189301,9.79083095018775e-05
1326.6240067810068,1326.6240067810068,0.9999635523241647,9.791160551031416e-05
1326.6309512556234,1326.6309512556234,0.9999811673071891,9.791419006105003e-05
1326.6378957301463,1326.6378957301463,1.000055579691938,9.791895763566594e-05
1326.6448402051353,1326.6448402051353,0.9999805827102696,9.792179551014883e-05
1326.6517846796585,1326.6517846796585,0.999953053908276,9.791558880492969e-05
1326.6587291541814,1326.6587291541814,1.0000783997652791,9.792420400805765e-05
1326.665673628705,1326.665673628705,1.0000936202490238,9.791559885567913e-05
1326.6726181032277,1326.6726181032277,0.9999502371545169,9.790714202976091e-05
1326.6795625777515,1326.6795625777515,0.9998609930494379,9.790414251424105e-05
1326.6865070522745,1326.6865070522745,0.9999014290590204,9.790388788838219e-05
1326.6945626426282,1326.6945626426282,1.0001433601859047,9.791765370147495e-05
1326.7017848957596,1326.7017848957596,0.9999499860937753,9.791123252844468e-05
1326.708729370283,1326.708729370283,1.0001445649897225,9.791018797552478e-05
1326.7162294025816,1326.7162294025816,0.999865191351877,9.789910838616528e-05
1326.7240072137683,1326.7240072137683,0.9999162785687592,9.79023700954569e-05
1326.730951688012,1326.730951688012,1.0000858796000933,9.790596786923294e-05
1326.737896162349,1326.737896162349,1.0000691329514961,9.790613189689333e-05
1326.7448406364067,1326.7448406364067,1.000081537240224,9.789990547586806e-05
1326.7517851106502,1326.7517851106502,1.000015279477645,9.79060083113683e-05
1326.758729584894,1326.758729584894,0.9999058412842408,9.789841314239854e-05
1326.7656740589514,1326.7656740589514,0.9999956939355353,9.789620142645387e-05
1326.7726185331019,1326.7726185331019,0.9999684620719709,9.789870718239823e-05
1326.7795630071596,1326.7795630071596,1.0000081823745262,9.789453017338638e-05
1326.786507481124,1326.786507481124,1.000077674890584,9.790439131267823e-05
1326.7934519551816,1326.7934519551816,0.9999265722133448,9.789776105560753e-05
1326.800396429146,1326.800396429146,0.9998885939061376,9.790006675004341e-05
1326.8073409031106,1326.8073409031106,1.0000055579192728,9.790357162389508e-05
1326.8142853769816,1326.8142853769816,0.9999601611898046,9.789900684401339e-05
1326.8212298508527,1326.8212298508527,1.0001152716453192,9.791171512302948e-05
1326.8281743248172,1326.8281743248172,0.9999860091947432,9.790699231201565e-05
1326.8351187985022,1326.8351187985022,1.0001850632033187,9.791585598468663e-05
1326.8420632723737,1326.8420632723737,0.9999827643175416,9.790644758687034e-05
1326.8490077461515,1326.8490077461515,0.9999944060917467,9.790708783809087e-05
1326.8559522198366,1326.8559522198366,0.9998320983639377,9.789971308044238e-05
1326.8628966935216,1326.8628966935216,1.0000050078685085,9.790772170817464e-05
1326.869841167207,1326.869841167207,0.9998638210692512,9.78968015195837e-05
1326.8767856408917,1326.8767856408917,0.9998986030485615,9.789954796747568e-05
1326.8837301144833,1326.8837301144833,1.000270279792178,9.791926713150093e-05
1326.8906745880754,1326.8906745880754,1.0000585377339701,9.790594753106112e-05
1326.8976190615736,1326.8976190615736,1.000096283150929,9.79045495834258e-05
1326.904563535166,1326.904563535166,1.000011703182198,9.78997064445273e-05
1326.9115080085714,1326.9115080085714,0.9997859566675411,9.7883689394682e-05
1326.9184524820703,1326.9184524820703,0.9998726024595491,9.788103733715124e-05
1326.9253969554757,1326.9253969554757,1.0001523441199507,9.789199753575218e-05
1326.9323414288815,1326.9323414288815,1.0000863241954214,9.788609579832984e-05
1326.9392859021941,1326.9392859021941,0.9998987494481202,9.787359210751119e-05
1326.9462303755993,1326.9462303755993,1.000095991581424,9.787833908076501e-05
1326.953174848912,1326.953174848912,0.9998916129352166,9.78690309035516e-05
1326.960119322131,1326.960119322131,1.0001437377686522,9.788054696506839e-05
1326.967063795444,1326.967063795444,0.9997489260925233,9.785479703696605e-05
1326.97400826857,1326.97400826857,1.0002637442393165,9.787565295071724e-05
1326.9809527417888,1326.9809527417888,1.0000280018006271,9.78612167497406e-05
1326.9878972149158,1326.9878972149158,0.9998995921742605,9.784951188211008e-05
1326.9948416880416,1326.9948416880416,1.000077621940601,9.786375884345336e-05
1327.0017861611682,1327.0017861611682,0.9999630622315078,9.785296495294612e-05
1327.008730634108,1327.008730634108,0.9999184185351938,9.785456198215137e-05
1327.0156751071409,1327.0156751071409,0.9999623827302109,9.785274548276636e-05
1327.0226195802672,1327.0226195802672,0.9998819801763237,9.785182173015696e-05
1327.0295640531137,1327.0295640531137,1.0001922303456774,9.786122037654993e-05
1327.0365085260541,1327.0365085260541,0.9999417414284878,9.784988254859942e-05
1327.0434529989004,1327.0434529989004,1.0000513514248432,9.786026778779837e-05
1327.0503974718408,1327.0503974718408,1.0000131833995063,9.785723913043531e-05
1327.057341944594,1327.057341944594,0.9999725828110113,9.785591024749453e-05
1327.065119754198,1327.065119754198,1.0001423481004272,9.78634731945238e-05
1327.0726197847266,1327.0726197847266,0.9999116283170902,9.785264101671975e-05
1327.0795642574808,1327.0795642574808,0.9998294007455808,9.785664602393639e-05
