time,time,flux,flux_err
1354.1136749225316,1354.1136749225316,0.9995546605594111,0.0004407095914282045
1354.1224712225303,1354.1224712225303,1.0004823908579947,0.0004409549691003171
1354.130110114871,1354.130110114871,0.9996804221864586,0.0004024632196042777
1354.1370545626535,1354.1370545626535,1.0004427748071825,0.0004025687946271177
1354.1439990105987,1354.1439990105987,1.0003102238491246,0.0004025515166976187
1354.150943458742,1354.150943458742,1.0003234099224518,0.0004026347666109425
1354.157887907048,1354.157887907048,0.9992736331467664,0.0004024844331376954
1354.1648323555348,1354.1648323555348,0.9998176481871133,0.0004025424835827966
1354.1717768041901,1354.1717768041901,0.9998558490765671,0.00040254528196773256
1354.1787212530146,1354.1787212530146,1.000107114088128,0.0004026065382005129
1354.1856657020016,1354.1856657020016,1.00018116307586,0.00040260622197216066
1354.1926101511635,1354.1926101511635,1.0002552173589732,0.0004026283701847007
1354.1995546005,1354.1995546005,1.000197327828139,0.00040259944739325483
1354.2064990499937,1354.2064990499937,0.9996450356510336,0.00040253889913033835
1354.2134434996383,1354.2134434996383,0.9994217998624666,0.0004024614059076619
1354.2203879494525,1354.2203879494525,1.0007953205552564,0.0004026469183601048
1354.2273323994407,1354.2273323994407,0.9996490344179539,0.00040243536993818396
1354.234276849575,1354.234276849575,1.0002843891306932,0.00040258194146670153
1354.24122129986,1354.24122129986,0.9997629261146661,0.0004024315391711027
1354.2481657502965,1354.2481657502965,0.9999323690281956,0.00040251595917924427
1354.2551102008958,1354.2551102008958,0.9998437747198917,0.0004024961178320565
1354.262054651653,1354.262054651653,1.0003232455529976,0.00040258643206593926
1354.268999102555,1354.268999102555,0.9998193566502953,0.0004024977436727568
1354.275943553597,1354.275943553597,1.000246173372759,0.00040257762641097565
1354.282888004796,1354.282888004796,1.0003345639749344,0.00040264782619809524
1354.2898324561409,1354.2898324561409,1.000077083830661,0.0004025848646698815
1354.2967769076308,1354.2967769076308,0.9995154601113162,0.0004024320137817743
1354.3037213592547,1354.3037213592547,0.999630691989006,0.0004024749304124794
1354.3106658110362,1354.3106658110362,1.0002404277870751,0.00040251912891456717
1354.3176102629511,1354.3176102629511,0.9995998102836227,0.0004024226759728929
1354.324554714994,1354.324554714994,1.0002888834836527,0.0004025620305770514
1354.3314991671828,1354.3314991671828,1.0001060805336492,0.00040252948734802315
1354.3384436195113,1354.3384436195113,0.9996049226350034,0.0004024816386587361
1354.3453880719678,1354.3453880719678,1.0009760014842055,0.00040270128412170126
1354.352332524552,1354.352332524552,0.9998857385561719,0.00040253494464493006
1354.3592769772704,1354.3592769772704,0.9998740789196562,0.0004024778505343883
1354.3662214301287,1354.3662214301287,0.9991686659892111,0.00040238887048103567
1354.3731658831086,1354.3731658831086,0.9999963462789104,0.00040254827120933285
1354.3801103362114,1354.3801103362114,1.000230211785857,0.00040255887130284445
1354.3870547894535,1354.3870547894535,0.9998095343444191,0.0004025159050855593
1354.393999242812,1354.393999242812,0.9997716915067629,0.0004024748097133459
1354.4009436962988,1354.4009436962988,1.0001535501509558,0.0004025418030670782
1354.407888149896,1354.407888149896,1.0002834160834286,0.00040260686804798935
1354.4148326036332,1354.4148326036332,1.000169158244933,0.00040257933387486495
1354.421777057475,1354.421777057475,0.9992090802072712,0.00040242311081070144
1354.4287215114443,1354.4287215114443,1.0003824020184835,0.0004025788864146018
1354.4356659655248,1354.4356659655248,0.9996658956951217,0.00040243387290441113
1354.442610419716,1354.442610419716,1.0002718456759956,0.00040255518960579376
1354.449554874035,1354.449554874035,0.9999295294852271,0.00040254712167320255
1354.456499328459,1354.456499328459,1.0001072344067985,0.0004025815514997035
1354.463443782999,1354.463443782999,0.9997862501581534,0.0004024740149359299
1354.4703882376496,1354.4703882376496,1.0002201016761272,0.00040259699835612896
1354.4773326924114,1354.4773326924114,1.0003350375077882,0.00040263951459563785
1354.4842771472718,1354.4842771472718,1.0000889771219756,0.00040256713609399355
1354.4912216022485,1354.4912216022485,1.0002243901947487,0.0004025462677475926
1354.498166057336,1354.498166057336,0.9997458452620558,0.0004025008697271848
1354.5051105125106,1354.5051105125106,0.999727141564503,0.00040246037801120935
1354.512054967808,1354.512054967808,0.9994888071427598,0.00040245281636964514
1354.5189994231976,1354.5189994231976,0.9992758190432893,0.00040240590676413025
1354.5259438786925,1354.5259438786925,1.0005259814494243,0.00040257178096718123
1354.5328883342922,1354.5328883342922,0.9999951349026752,0.0004024459632864049
1354.539832789985,1354.539832789985,1.0008575508631588,0.00040258488115653266
1354.5467772457882,1354.5467772457882,1.0001094467683675,0.0004024657344691611
1354.5537217016677,1354.5537217016677,0.9999341410386791,0.00040240529371030314
1354.5606661576508,1354.5606661576508,0.999295101340189,0.0004023028873180453
1354.5676106137396,1354.5676106137396,1.000389407855011,0.0004024836536096416
1354.5745550699153,1354.5745550699153,0.9996320640597769,0.00040237976218420086
1354.5814995261844,1354.5814995261844,1.0003608492724048,0.0004024310080214424
1354.588443982541,1354.588443982541,0.9997661399638407,0.0004024269278281553
1354.595388439002,1354.595388439002,1.000383137769234,0.0004025002218648379
1354.6023328955503,1354.6023328955503,1.000234028102777,0.0004025173547477604
1354.60927735218,1354.60927735218,1.0002424517462478,0.00040249098335442304
1354.616221808897,1354.616221808897,0.9997410031201174,0.0004024248504567167
1354.6231662657133,1354.6231662657133,0.9995869055153712,0.0004024024123484694
1354.6301107226057,1354.6301107226057,1.0004701355872327,0.0004025795872643066
1354.6370551795785,1354.6370551795785,1.000045370546869,0.00040247497103766883
1354.6439996366453,1354.6439996366453,0.9989114536224342,0.00040226178028968367
1354.650944093793,1354.650944093793,0.9995861172165326,0.0004024480807554346
1354.6578885510226,1354.6578885510226,1.000522783775743,0.0004025831825081306
1354.6648330083397,1354.6648330083397,1.0006053976463583,0.0004026315468091303
1354.6717774657259,1354.6717774657259,1.000347504004599,0.00040258657583707943
1354.6787219232115,1354.6787219232115,0.9992649345550875,0.0004023717814110938
1354.685666380761,1354.685666380761,1.000136218326464,0.00040248379969394944
1354.6926108383861,1354.6926108383861,1.0000456059957312,0.00040247653623432227
1354.699555296093,1354.699555296093,0.9996906637932976,0.00040234498375380147
1354.706499753887,1354.706499753887,1.0002159580183207,0.0004024705925030392
1354.7134442117392,1354.7134442117392,1.0007150618127842,0.0004025666494491452
1354.7203886696734,1354.7203886696734,0.9994893679023701,0.0004023816036639364
1354.7273331276824,1354.7273331276824,1.0007205586075418,0.000402632948052134
1354.734277585768,1354.734277585768,0.9998128573905172,0.00040244043699277904
1354.7412220439226,1354.7412220439226,1.0003125965384423,0.0004025114710500438
1354.7481665021473,1354.7481665021473,1.0009347800723494,0.00040264781387171255
1354.755110960442,1354.755110960442,0.9991162405466868,0.0004023551263375749
1354.762055418812,1354.762055418812,0.9996429413581733,0.0004024339751575386
1354.7689998772407,1354.7689998772407,0.9992320234439107,0.00040235870147525496
1354.7759443357509,1354.7759443357509,1.0000540733707932,0.00040256639139345604
1354.782888794319,1354.782888794319,1.000227438439539,0.0004024967721672026
1354.7898332529571,1354.7898332529571,1.0006783967509196,0.0004026210685526572
1354.7967777116708,1354.7967777116708,1.000884621972748,0.00040260067109587367
1354.803722170437,1354.803722170437,0.9994894227389333,0.00040243688482546815
1354.8106666292729,1354.8106666292729,1.0001089259550187,0.00040247685299930533
1354.8176110881673,1354.8176110881673,0.9992281453780881,0.00040232551079725994
1354.824555547137,1354.824555547137,0.9997129022614665,0.000402327612834965
1354.831500006171,1354.831500006171,1.0001770615705443,0.000402481451341888
1354.8384444652515,1354.8384444652515,0.9998495101712177,0.0004024837158516513
1354.845388924396,1354.845388924396,0.9998093846921593,0.0004024338107897243
1354.85233338361,1354.85233338361,1.0009558035521569,0.0004026034269174102
1354.8592778428824,1354.8592778428824,0.9997663943526325,0.0004024505549664813
1354.8662223022136,1354.8662223022136,1.0002051777611798,0.00040251909571601096
1354.8731667615964,1354.8731667615964,1.0000844341320707,0.00040249982646172096
1354.8801112210497,1354.8801112210497,0.9995699295146319,0.00040237269093814086
1354.8870556805432,1354.8870556805432,0.9999410564312964,0.0004024692320040373
1354.894000140101,1354.894000140101,1.00019822280829,0.0004024364547904113
1354.9009445997174,1354.9009445997174,0.9999876175254826,0.00040245729000899777
1354.907889059391,1354.907889059391,1.0002609214910338,0.00040250867127231024
1354.914833519129,1354.914833519129,0.9997119722863278,0.00040238733434902463
1354.9217779789026,1354.9217779789026,0.9997860722913684,0.000402412089047268
1354.9287224387338,1354.9287224387338,1.0000145452014966,0.00040242230548374674
1354.9370557906118,1354.9370557906118,0.9992161964884312,0.0004022687633370348
1354.9440002505537,1354.9440002505537,1.000457494562601,0.0004025093979678054
1354.9509447105597,1354.9509447105597,1.0004265844071811,0.00040244865590470015
1354.9578891706178,1354.9578891706178,1.0005697857142197,0.0004025570117142939
1354.964833630723,1354.964833630723,0.9996719954380632,0.0004023638359361901
1354.971778090874,1354.971778090874,1.0000023562398426,0.00040239978324767484
1354.978722551084,1354.978722551084,0.9998855718898516,0.0004024537395180751
1354.9856670113345,1354.9856670113345,1.0003003821080256,0.00040242341743057937
1354.992611471637,1354.992611471637,0.9992700801350327,0.0004023610478970806
1354.9995559319864,1354.9995559319864,0.9998615049477548,0.0004025019911272196
1355.0065003923823,1355.0065003923823,1.0002439473324247,0.0004024836954258203
1355.0134448528308,1355.0134448528308,1.0004473984035371,0.00040251349295830033
1355.02038931332,1355.02038931332,0.9997066194870943,0.00040234058909803397
1355.0273337738556,1355.0273337738556,0.9998530893899314,0.0004023792538740704
1355.034278234438,1355.034278234438,1.0002718795923493,0.0004024482410643823
1355.0412226950725,1355.0412226950725,0.9998359116813109,0.0004023152788509639
1355.048167155736,1355.048167155736,0.9997201186442553,0.000402329761105958
1355.0551116164522,1355.0551116164522,1.0003375208080612,0.0004024437456008607
1355.0620560772034,1355.0620560772034,0.9997388117042995,0.0004023069062900151
1355.0690005380184,1355.0690005380184,1.0001670239391944,0.00040240407072926704
1355.0759449988566,1355.0759449988566,1.0002337226386506,0.00040243295102332594
1355.0828894597412,1355.0828894597412,0.9999644311336364,0.0004023925107417027
1355.089833920667,1355.089833920667,0.9998048065614107,0.0004023362433428569
1355.0967783816454,1355.0967783816454,1.0003809569032427,0.000402405230931077
1355.1037228426521,1355.1037228426521,0.9999823511002693,0.0004024008273950756
1355.1106673037002,1355.1106673037002,0.9996857986838317,0.00040234102670795005
1355.1176117647944,1355.1176117647944,1.0005379813104318,0.00040251109302778506
1355.124556225924,1355.124556225924,1.0007089609922057,0.00040258301617754274
1355.1315006870886,1355.1315006870886,0.99986660918799,0.0004024495243946053
1355.138445148293,1355.138445148293,0.9994809300796262,0.00040238382866045777
1355.145389609545,1355.145389609545,0.9999928783079938,0.0004024852891959997
1355.1523340708256,1355.1523340708256,1.000181847485473,0.00040253104710553223
1355.1592785321468,1355.1592785321468,0.9998751001732377,0.00040242230148160324
1355.1662229934977,1355.1662229934977,0.9993992756398349,0.00040232417460665874
1355.1731674549003,1355.1731674549003,0.9996101165831071,0.00040236448664868223
1355.1801119163267,1355.1801119163267,1.0003538576826718,0.00040246284828147487
1355.1870563777939,1355.1870563777939,1.0005051529425297,0.00040248721461411824
1355.1940008392896,1355.1940008392896,0.9999281418531716,0.0004023739932075895
1355.2009453008268,1355.2009453008268,1.0007476628182324,0.00040248553047748253
1355.2078897623983,1355.2078897623983,1.0002068563022786,0.0004023811186053691
1355.2148342239993,1355.2148342239993,0.9995719166380589,0.0004022822339018253
1355.2217786856352,1355.2217786856352,1.000192337662891,0.0004024032563244132
1355.2287231473115,1355.2287231473115,0.9997114005763447,0.000402349648928588
1355.2356676090174,1355.2356676090174,0.9997028376271382,0.00040232853717544066
1355.2426120707519,1355.2426120707519,1.0001717010236595,0.00040239233440070516
1355.2495565325214,1355.2495565325214,0.9993278570661465,0.0004023135667967297
1355.2565009943146,1355.2565009943146,1.0001579081413872,0.00040243243212664283
1355.263445456154,1355.263445456154,1.0001678692913238,0.0004023900695292796
1355.270389918011,1355.270389918011,1.0001789682170932,0.0004023547170507507
1355.2773343799086,1355.2773343799086,0.9995892993008573,0.00040225715187317955
1355.284278841847,1355.284278841847,1.001005179277545,0.00040250287929755957
1355.2912233037973,1355.2912233037973,0.9998433229925476,0.0004023338552256586
1355.2981677657763,1355.2981677657763,1.0000409034445856,0.00040234577234061824
1355.3051122277905,1355.3051122277905,1.000063228975613,0.0004023798847297773
1355.3120566898338,1355.3120566898338,1.0002122580921484,0.00040236727217835087
1355.3190011519177,1355.3190011519177,0.9992837987116365,0.00040224666457989896
1355.3259456140133,1355.3259456140133,0.9997189033197589,0.00040235754967131833
1355.3337234115952,1355.3337234115952,0.9998867126898301,0.0004023557015742435
1355.3412234307343,1355.3412234307343,1.0003497868119684,0.0004024473550049287
1355.3481678929172,1355.3481678929172,1.0002908581365355,0.00040245983333230375
1355.3551123551351,1355.3551123551351,0.9996228805805403,0.00040234296184995616
1355.3620568173762,1355.3620568173762,1.0001146458361028,0.00040242885659419903
1355.3690012796578,1355.3690012796578,0.999934667317197,0.00040234205121164227
1355.3759457419517,1355.3759457419517,1.000714024329935,0.00040247397960502685
1355.3828902042744,1355.3828902042744,0.9993459149632322,0.00040223656284349137
1355.389834666626,1355.389834666626,1.0004465162453708,0.0004024609241217216
1355.3978902429712,1355.3978902429712,0.9994097210215539,0.0004022658869579237
1355.405112483882,1355.405112483882,1.0002258662454533,0.0004023664104773674
1355.4120569463098,1355.4120569463098,0.9998163074303348,0.0004023165391452206
1355.4190014087665,1355.4190014087665,0.9996980338278115,0.00040234093857428817
1355.425945871246,1355.425945871246,1.0003932168069096,0.00040242146575942205
1355.4328903337494,1355.4328903337494,1.0000125430605498,0.0004023777692885924
1355.4398347962813,1355.4398347962813,1.0001257056368051,0.00040240076927399734
1355.446779258825,1355.446779258825,1.0001020312628435,0.0004023761178727058
1355.4537237213924,1355.4537237213924,0.9999879712131923,0.0004023540739149973
1355.4606681839887,1355.4606681839887,1.0004313095818513,0.0004024300930296499
1355.467612646614,1355.467612646614,0.9990958886900476,0.0004022295213414816
1355.474557109251,1355.474557109251,0.999968544025543,0.00040239187253105185
1355.481501571911,1355.481501571911,1.000217357266,0.0004024348549937388
1355.4884460345947,1355.4884460345947,1.000305404333694,0.00040244799526306576
1355.4953904973072,1355.4953904973072,0.99983496833778,0.0004023823622368534
1355.502334960037,1355.502334960037,1.0000493137569495,0.00040239370326094006
1355.5092794227846,1355.5092794227846,1.0005004626383254,0.000402520404568641
1355.51622388555,1355.51622388555,1.0000488497858868,0.00040243176951605935
1355.5231683483494,1355.5231683483494,0.9992584351248965,0.00040227093041030006
1355.5301128111494,1355.5301128111494,0.9997839487632632,0.0004023126009690253
1355.5370572739905,1355.5370572739905,1.000660009849755,0.00040240997512942637
1355.5440017368423,1355.5440017368423,0.9998741076150066,0.00040231039438360305
1355.5509461997124,1355.5509461997124,1.0000336540994732,0.00040239393250679636
1355.5578906626056,1355.5578906626056,1.000016695212151,0.0004023945851118238
1355.564835125516,1355.564835125516,1.0002944937600562,0.0004023634711516972
1355.571779588444,1355.571779588444,0.9998321940770859,0.0004023063237711095
1355.5787240513894,1355.5787240513894,1.0004760270450328,0.0004024381185277272
1355.5856685143522,1355.5856685143522,1.0001416652206185,0.00040241850032996597
1355.5926129773445,1355.5926129773445,0.9999314054065227,0.00040234606688303615
1355.5995574403478,1355.5995574403478,0.9997267028429663,0.000402320778055968
1355.606501903369,1355.606501903369,1.0007573352531236,0.00040248667257096704
1355.613446366408,1355.613446366408,0.9993228429230745,0.00040219560182774784
1355.6203908294635,1355.6203908294635,0.9998904560638445,0.0004023721933778649
1355.6273352925432,1355.6273352925432,0.9998497822372187,0.00040231209859836997
1355.6342797556285,1355.6342797556285,0.9994491714207865,0.00040221418557273667
1355.6412242187366,1355.6412242187366,1.0002338002256406,0.0004024230712575593
1355.6481686818627,1355.6481686818627,1.0012177542283223,0.00040258914481693293
1355.6551131450062,1355.6551131450062,0.9993655344285655,0.00040229294066201893
1355.6620576081666,1355.6620576081666,1.0000550732212985,0.00040239794177949806
1355.6690020713393,1355.6690020713393,1.000153901898916,0.00040244127860307856
1355.675946534529,1355.675946534529,1.0003572240438736,0.00040242168894236526
1355.6828909977307,1355.6828909977307,0.9994842792474756,0.00040227128018997457
1355.6898354609557,1355.6898354609557,1.0000523278173898,0.00040238904385813816
1355.696779924198,1355.696779924198,0.9990576929498524,0.00040228177264740904
1355.7037243874342,1355.7037243874342,0.9998800312004101,0.0004024380443880553
1355.7106688507174,1355.7106688507174,1.0007320357678273,0.00040256238021844334
1355.7176133139947,1355.7176133139947,1.0007667727692255,0.00040250661997893387
1355.7245577772896,1355.7245577772896,0.9995793911804185,0.00040233498794014084
1355.7315022406015,1355.7315022406015,0.9993354974873749,0.00040232865691513365
1355.7384467039315,1355.7384467039315,0.9997921480046094,0.00040237095827357506
1355.7467800599359,1355.7467800599359,0.9994278250913355,0.0004022657023462635
1355.7537245232947,1355.7537245232947,1.0003113244127104,0.00040242071978782755
1355.7606689866652,1355.7606689866652,0.9997964071562123,0.0004023011953730622
1355.7676134500473,1355.7676134500473,1.0002018683119362,0.00040233433040241085
1355.7745579134403,1355.7745579134403,1.000211323799324,0.00040240065769380146
1355.7815023768521,1355.7815023768521,1.0002332730647134,0.00040237414500702076
1355.7884468402806,1355.7884468402806,0.9999624772618851,0.00040234432278533764
1355.7953913037209,1355.7953913037209,1.0003381379669016,0.00040237684932163936
1355.8023357671668,1355.8023357671668,0.9996206111598095,0.00040223993607394924
1355.8092802306303,1355.8092802306303,0.9993694035934642,0.0004022560407692936
1355.8162246941,1355.8162246941,1.0002992487527547,0.00040240003436960967
1355.8231691575925,1355.8231691575925,1.000160016007744,0.00040240545399371366
1355.8301136210907,1355.8301136210907,0.9997815532516882,0.0004023459116115287
1355.837058084601,1355.837058084601,0.9995840080486911,0.00040232016528741294
1355.8440025481225,1355.8440025481225,0.9995765448624603,0.0004023172994772776
1355.850947011656,1355.850947011656,0.9996698067809738,0.0004023111096862999
1355.8578914752065,1355.8578914752065,1.000323723873502,0.00040240927978375216
1355.8648359387576,1355.8648359387576,1.0008567740360028,0.0004024938120002177
1355.871780402326,1355.871780402326,1.0002817303183476,0.0004024075593074041
1355.878724865906,1355.878724865906,0.9998816278935001,0.0004023600493157058
