time,time,flux,flux_err
1517.3665742613587,1517.3665742613587,0.9988680055795036,0.0016677432882937974
1517.3751854445723,1517.3751854445723,1.0002007422982946,0.0015621769668632192
1517.382407727745,1517.382407727745,0.9996390945785343,0.0015063142757548663
1517.3893522310213,1517.3893522310213,0.9994399868281544,0.00146213644893791
1517.3962967346706,1517.3962967346706,0.9985058306495391,0.0014232657049187748
1517.4046301393846,1517.4046301393846,0.9983127713059424,0.001380308377750434
1517.4115746434993,1517.4115746434993,1.0006586931963921,0.0013483223112957412
1517.4185191481731,1517.4185191481731,0.9999440602271896,0.0013180540453222138
1517.425463652846,1517.425463652846,1.0012834612439905,0.0012907704430331769
1517.432408157892,1517.432408157892,1.0012634408362013,0.0012655838488907487
1517.4393526633107,1517.4393526633107,1.0017467034496967,0.001242209132466994
1517.4462971688222,1517.4462971688222,0.9985450222054222,0.0012210694876859092
1517.4532416746133,1517.4532416746133,1.000723079509757,0.0012025338064231604
1517.4601861806836,1517.4601861806836,0.9995470894209898,0.0011851525269398985
1517.4671306869404,1517.4671306869404,1.0011817234757574,0.001170024190413703
1517.4740751935697,1517.4740751935697,0.9984718940431769,0.0011555453611570173
1517.481019700292,1517.481019700292,0.9995007853592177,0.0011419602717294129
1517.4879642070146,1517.4879642070146,1.0000733279238347,0.0011295160441163105
1517.4949087142027,1517.4949087142027,0.9983431097403036,0.0011155372963979435
1517.5018532215768,1517.5018532215768,0.998018811552113,0.0011039082775316767
1517.5087977290445,1517.5087977290445,1.000679650025777,0.0010923128679419334
1517.5157422366979,1517.5157422366979,0.9994281439471425,0.0010801627902286683
1517.5226867444449,1517.5226867444449,0.9992885053318112,0.0010690652631511184
1517.5296312525643,1517.5296312525643,0.9983953643499595,0.0010585333733288055
1517.5365757607765,1517.5365757607765,0.9999407288689544,0.001049240784381109
1517.543520269082,1517.543520269082,1.0007299306421624,0.0010401881476378191
1517.550464777667,1517.550464777667,0.9992618116814842,0.0010309260301193605
1517.5574092863455,1517.5574092863455,1.000947782782538,0.0010220709820506825
1517.5643537950236,1517.5643537950236,0.9998539099915227,0.0010138799937076959
1517.5712983039812,1517.5712983039812,1.0007400750364466,0.00100670336927294
1517.5782428130315,1517.5782428130315,0.999670689007375,0.0009986219060961346
1517.585187322269,1517.585187322269,1.000224333489043,0.0009916693062627475
1517.5921318315989,1517.5921318315989,0.9999633356580828,0.0009845791186848182
1517.599076341115,1517.599076341115,1.000915518567836,0.000978666297521806
1517.606020850632,1517.606020850632,0.9998300896748639,0.0009714694283248476
1517.6129653603336,1517.6129653603336,0.9998545842356685,0.0009653413151327996
1517.61990987013,1517.61990987013,0.9997205391354325,0.0009595363498737245
1517.6268543799258,1517.6268543799258,0.9991885765486973,0.0009543013418099175
1517.6337988899074,1517.6337988899074,1.0002808227687152,0.0009498781526123164
1517.6407433999825,1517.6407433999825,1.0004757716006274,0.0009444040852860424
1517.6476879101508,1517.6476879101508,0.9990032296150229,0.0009395153019464914
1517.6546324204123,1517.6546324204123,1.0019580559418508,0.0009361983905689075
1517.6615769306738,1517.6615769306738,0.9989496764774906,0.0009309889647187003
1517.6685214411214,1517.6685214411214,1.0003919712156772,0.0009272116182280174
1517.6754659515689,1517.6754659515689,1.0003650625875413,0.0009227330049940794
1517.6824104621098,1517.6824104621098,0.9990442923802918,0.0009179027005399383
1517.6893549727436,1517.6893549727436,0.9991098354069006,0.000913339011427017
1517.696299483378,1517.696299483378,1.0006906918792307,0.0009099326093390382
1517.7032439941045,1517.7032439941045,0.9985908112086305,0.0009063033951763619
1517.7101885049246,1517.7101885049246,1.0000762708136688,0.0009016834155014316
1517.7171330157448,1517.7171330157448,1.0000308833647353,0.0008974990342692125
1517.7240775266582,1517.7240775266582,1.0009110485154378,0.0008943991234914197
1517.7310220375716,1517.7310220375716,0.9992507927830317,0.0008906053678415137
1517.7379665485782,1517.7379665485782,1.0007439086058878,0.0008865818176501356
1517.7449110595844,1517.7449110595844,1.0001192156701602,0.0008820401124455703
1517.7518555705908,1517.7518555705908,1.000314627687675,0.0008778645042755818
1517.7588000818769,1517.7588000818769,0.9992149385641689,0.0008736612235495482
1517.76574459279,1517.76574459279,0.999922428054008,0.000870313905547766
1517.7726891041693,1517.7726891041693,1.0007382747928733,0.0008669229203439311
1517.7796336151755,1517.7796336151755,0.9989800990780836,0.0008627609420674051
1517.7865781264616,1517.7865781264616,1.0007841170135519,0.0008596058725696791
1517.7935226378404,1517.7935226378404,1.0002321683323294,0.0008566188412632298
1517.8004671491262,1517.8004671491262,0.9990634967417178,0.0008529430366757705
1517.8074116601324,1517.8074116601324,1.0002835439951832,0.0008498187851375891
1517.814356171512,1517.814356171512,1.0006155127533276,0.000847832896171101
1517.8213006828908,1517.8213006828908,0.999390063634794,0.000844595622612347
1517.8282451942698,1517.8282451942698,0.9999382135364805,0.0008414060148406023
1517.8351897056486,1517.8351897056486,0.9995615634634551,0.0008387148060120424
1517.8421342170277,1517.8421342170277,1.000360726312198,0.0008367624282465316
1517.8490787284065,1517.8490787284065,1.0001381689921671,0.0008353196938759072
1517.8560232397854,1517.8560232397854,0.9999951188585827,0.0008320813541841356
1517.8629677511647,1517.8629677511647,1.0004789721814726,0.0008303296523718377
1517.8699122625435,1517.8699122625435,0.9992459855377206,0.000828809739390319
1517.8768567739228,1517.8768567739228,1.0003974100962811,0.0008264606991599307
1517.8838012848355,1517.8838012848355,0.9999211861406563,0.0008244075723716037
1517.8907457962146,1517.8907457962146,0.9993450241567284,0.000822711482538111
1517.8976903075938,1517.8976903075938,1.0003545179583933,0.0008216767463115143
1517.9046348189727,1517.9046348189727,0.9996414311316937,0.0008198657666976811
1517.9115793303517,1517.9115793303517,0.9999132841204226,0.0008187408690000607
1517.9185238417308,1517.9185238417308,1.001508973115814,0.0008177293064138502
1517.9254683531096,1517.9254683531096,0.999620244339621,0.000815863798471848
1517.9324128641158,1517.9324128641158,0.9998495088230046,0.0008150737313536201
1517.9393573754019,1517.9393573754019,0.9997784663506069,0.0008141718828593804
1517.9474130086014,1517.9474130086014,1.0000849226301034,0.0008131616595952521
1517.9546353000633,1517.9546353000633,0.9997322258156938,0.0008123033479809956
1517.9615798113489,1517.9615798113489,1.0000868087325556,0.0008107535122789109
1517.9685243224485,1517.9685243224485,0.9995603924312999,0.0008096883842822946
1517.9754688336411,1517.9754688336411,1.0003088947291723,0.0008092411133306535
1517.9824133446477,1517.9824133446477,1.000158106789969,0.0008080892770145086
1517.9893578558404,1517.9893578558404,0.9991740248471125,0.0008073956290829519
1517.9963023668472,1517.9963023668472,1.0011650864528634,0.00080616281546739
1518.0032468778531,1518.0032468778531,0.999772715080697,0.0008062917437239722
1518.0101913888598,1518.0101913888598,1.000111308178748,0.0008050833781882121
1518.017135899773,1518.017135899773,1.0005357815907172,0.0008042009580267534
1518.024080410686,1518.024080410686,0.9999700755938576,0.0008034237968489023
1518.0310249215997,1518.0310249215997,0.9993267569431042,0.0008022859874774683
1518.0379694324197,1518.0379694324197,0.9994346198387232,0.0008015647270808269
1518.044913943333,1518.044913943333,1.0004251262517245,0.0008009536729011252
1518.051858453967,1518.051858453967,1.000354124684547,0.0008006784038631703
1518.0588029647874,1518.0588029647874,0.998983783680006,0.0007991615570791951
1518.0657474753277,1518.0657474753277,0.9997588120181385,0.0007982092236421502
1518.0726919861486,1518.0726919861486,1.0004162655760975,0.0007972225275294043
1518.0796364966889,1518.0796364966889,0.9999537680368584,0.0007959484191596207
1518.0865810071366,1518.0865810071366,1.0008241749582698,0.0007952653224989684
1518.0935255177706,1518.0935255177706,0.9998789957388073,0.0007955356103717221
1518.100470028218,1518.100470028218,1.0005452343281742,0.0007938584756957918
1518.1074145385726,1518.1074145385726,0.9999718822667077,0.0007936292528341333
1518.11435904902,1518.11435904902,1.0003597125352959,0.00079237036991396
1518.1213035591886,1518.1213035591886,0.9985933962205185,0.0007915917660334581
1518.1282480695431,1518.1282480695431,1.0004253032674064,0.0007906530545174108
1518.1351925797112,1518.1351925797112,0.9993179557665582,0.0007904534330658535
1518.1421370898795,1518.1421370898795,1.000655484744457,0.0007899532870748327
1518.1490816000478,1518.1490816000478,1.0005061230915402,0.0007899161298262798
1518.1560261100299,1518.1560261100299,0.9996968468503132,0.0007887132749062239
1518.1629706201047,1518.1629706201047,0.9997381234725868,0.0007887140626732988
1518.1699151300868,1518.1699151300868,1.0001628987497941,0.0007867978613605922
1518.1768596398829,1518.1768596398829,1.0012545694289483,0.0007869963695447795
1518.1838041496783,1518.1838041496783,1.0018138837010744,0.0007864040374314046
1518.1907486595671,1518.1907486595671,0.9983831504160369,0.0007859105353458049
1518.1976931691768,1518.1976931691768,0.9986332834235071,0.0007850707983819607
1518.204637678972,1518.204637678972,0.9977367325644254,0.0007838677251461222
1518.2115821884886,1518.2115821884886,0.9978875935786163,0.0007839295558301117
1518.218526698005,1518.218526698005,1.000051104899727,0.0007836378646247872
1518.2254712074282,1518.2254712074282,1.0014366030699506,0.0007841173277555287
1518.2324157169446,1518.2324157169446,1.0003148354354443,0.0007832401284861252
1518.2393602262746,1518.2393602262746,1.0005680426417984,0.0007828926122732223
1518.2463047355116,1518.2463047355116,0.9998440830320092,0.0007817210000628718
1518.2532492446553,1518.2532492446553,1.0004802817915601,0.0007818969446715584
1518.2601937540787,1518.2601937540787,0.9998409337440191,0.0007820519553087912
1518.2674160434908,1518.2674160434908,0.9993925100309005,0.0007815142120377077
1518.27547167399,1518.27547167399,0.9985319928347993,0.000780995302797773
1518.2824161827612,1518.2824161827612,0.9997461704052221,0.0007809486866458517
1518.2893606916255,1518.2893606916255,1.0015965388442005,0.0007799647529407607
1518.29630520049,1518.29630520049,1.000805196294628,0.0007801867246804908
1518.3032497092613,1518.3032497092613,0.9996056711024887,0.0007791031607508597
1518.3101942178462,1518.3101942178462,1.0001958540632787,0.0007802920165737685
1518.3185276282416,1518.3185276282416,1.0006608225120337,0.0007808785791411435
1518.3254721367332,1518.3254721367332,0.9997370850680628,0.0007790568982896406
1518.3324166452253,1518.3324166452253,0.9989272448436888,0.0007783221106312415
1518.3393611535307,1518.3393611535307,0.9993825947162238,0.0007789936928226844
1518.3463056619294,1518.3463056619294,1.0000542366089373,0.0007776015871458514
1518.3532501700488,1518.3532501700488,1.0002348964595915,0.0007775142722347379
1518.3601946782612,1518.3601946782612,1.0004054054109672,0.0007771535935697891
1518.3671391863804,1518.3671391863804,0.9989343456451273,0.0007771500157562659
1518.3740836944066,1518.3740836944066,1.000258493073249,0.0007759460182753676
1518.3810282023394,1518.3810282023394,1.000620202175152,0.0007760211561955736
1518.3879727102728,1518.3879727102728,1.0005126021617188,0.0007757647865868477
1518.3949172180196,1518.3949172180196,1.0005513719875136,0.000775618337563686
1518.4018617257666,1518.4018617257666,1.0001260042471471,0.0007757372345177994
1518.4088062333271,1518.4088062333271,0.998858799349,0.0007748893045311344
1518.4165840818805,1518.4165840818805,1.0007057931981063,0.0007740398441127556
1518.4240841498856,1518.4240841498856,0.9997603497356758,0.0007738550642789725
1518.4310286573534,1518.4310286573534,0.9998100791957618,0.0007751075401649052
1518.4379731646343,1518.4379731646343,0.9996532388286049,0.0007747533050940523
1518.4449176719152,1518.4449176719152,1.0002591346911325,0.0007739663505966693
1518.4518621791035,1518.4518621791035,0.9990968894379876,0.0007736990424475033
1518.4588066861984,1518.4588066861984,1.0008614567387197,0.0007749999903773556
1518.4671400944517,1518.4671400944517,0.9998100833437815,0.0007741293795911583
1518.474084601546,1518.474084601546,1.0008920726003718,0.0007740828898662194
1518.481029108362,1518.481029108362,0.9992528810656273,0.0007730625031740319
1518.4879736150842,1518.4879736150842,1.0002949514692465,0.000774862470486007
1518.4949181218067,1518.4949181218067,0.9997655689333461,0.0007734009554351286
1518.5018626284357,1518.5018626284357,0.9993427514673232,0.0007725307130708988
1518.5088071347855,1518.5088071347855,1.0004606573292918,0.0007727201348095098
1518.5157516413215,1518.5157516413215,1.0007442757701273,0.0007729846784761908
1518.5226961476712,1518.5226961476712,1.0004236959594652,0.0007733686343683328
1518.529640653928,1518.529640653928,0.9996675625941887,0.0007723821099308635
1518.5365851600914,1518.5365851600914,0.9991994739992336,0.0007731921245264586
1518.543529666255,1518.543529666255,0.9997730354856692,0.0007725937673237715
1518.5504741721393,1518.5504741721393,0.9999603258716148,0.0007735435538268724
1518.5574186781168,1518.5574186781168,1.0001510456078009,0.000773645795386832
1518.5643631840012,1518.5643631840012,1.001026020369948,0.0007731538861435099
1518.5713076897919,1518.5713076897919,0.9990535059430089,0.0007720625752170066
1518.5782521954898,1518.5782521954898,0.999750534864452,0.000772567834590817
1518.5851967011877,1518.5851967011877,1.000749342830758,0.0007721658645998929
1518.5921412066066,1518.5921412066066,0.9995403862404221,0.0007726987508787345
1518.5990857120246,1518.5990857120246,1.0004659143648809,0.0007724470611444339
1518.6060302174433,1518.6060302174433,0.999603942569568,0.0007716021764002782
1518.6129747226755,1518.6129747226755,1.0005123344716753,0.0007723244336875882
1518.619919227814,1518.619919227814,0.9994098549764697,0.0007725629361442417
1518.6268637329533,1518.6268637329533,1.0005077725919416,0.000772510204060564
1518.6338082379066,1518.6338082379066,1.0003669329158007,0.0007721062036809485
1518.6407527428594,1518.6407527428594,0.9993555743154948,0.0007716368220702908
1518.647697247719,1518.647697247719,1.0003346033376683,0.0007718702141117731
1518.6546417524855,1518.6546417524855,0.9993246531983588,0.0007718637752575594
1518.6615862570657,1518.6615862570657,0.9992567015927227,0.0007727472925841855
1518.6685307617395,1518.6685307617395,1.0007616314742256,0.0007727283228113994
1518.6754752663196,1518.6754752663196,1.0002347551050277,0.0007721825676896245
1518.6824197707133,1518.6824197707133,1.0006206490142753,0.0007718709572873332
1518.6893642749212,1518.6893642749212,1.0005064575938323,0.0007719158326996266
1518.696308779036,1518.696308779036,0.9996032983055576,0.000772515274296083
1518.703253283337,1518.703253283337,0.9994458382176242,0.0007721889649788433
1518.710197787358,1518.710197787358,0.9997913507140346,0.0007717412207538432
1518.7171422912866,1518.7171422912866,1.0004865416419007,0.0007722777902864891
1518.7240867951218,1518.7240867951218,0.9989352392715138,0.0007708874688860602
1518.731031298957,1518.731031298957,1.0003285113035605,0.0007724745765117392
1518.7379758026063,1518.7379758026063,0.9995177090239504,0.0007719500836817963
1518.7449203062552,1518.7449203062552,1.0012489746786957,0.0007719128663754816
1518.751864809718,1518.751864809718,1.0002238360115994,0.0007716567991088049
1518.7588093130876,1518.7588093130876,0.9988456197654039,0.000772670362147011
1518.7657538165506,1518.7657538165506,1.000611037612456,0.0007718192508232012
1518.7726983198265,1518.7726983198265,0.9996392179488588,0.0007712729058843882
1518.7796428229171,1518.7796428229171,1.0012757952261464,0.0007721798845337142
1518.786587326007,1518.786587326007,0.99944512610824,0.000771778388289539
1518.7935318289105,1518.7935318289105,0.9999249139483404,0.0007714912998919163
1518.800476331815,1518.800476331815,1.000447421715044,0.0007715491416158957
1518.8074208346256,1518.8074208346256,0.9994390505113732,0.0007723902121935145
1518.8143653373431,1518.8143653373431,0.9990113090519612,0.0007720112156346925
1518.8213098398746,1518.8213098398746,1.0005360209630911,0.0007714932410677924
1518.8282543424993,1518.8282543424993,1.000119649702674,0.0007716375408736734
1518.8351988449372,1518.8351988449372,0.9998551479375475,0.0007723031532004201
1518.8421433470967,1518.8421433470967,1.0002422406354756,0.0007721708076862106
1518.849087849628,1518.849087849628,0.9994324825391917,0.0007720653681375052
1518.8560323516936,1518.8560323516936,0.9995098976870199,0.0007719216530596961
1518.8629768537594,1518.8629768537594,1.000830272657106,0.00077211855498811
1518.8699213558248,1518.8699213558248,0.9997270108432834,0.0007720470732695121
1518.8768658574252,1518.8768658574252,1.0011330340386373,0.0007720699364184103
1518.8838103593046,1518.8838103593046,0.9999100436031849,0.0007723100769128901
1518.8907548609975,1518.8907548609975,1.0003383162457316,0.0007719131895439933
1518.8976993625977,1518.8976993625977,0.9993808629643803,0.0007711009280041051
1518.9046438641046,1518.9046438641046,0.9999165147829278,0.0007719582857940115
1518.9115883656111,1518.9115883656111,0.9997606308677913,0.0007724352546182278
1518.9185328668389,1518.9185328668389,1.0003874362532519,0.0007731669117453302
1518.9254773680666,1518.9254773680666,0.9998805807921005,0.0007714284779993493
1518.9324218692009,1518.9324218692009,0.99961416741711,0.0007717772621832206
1518.9393663703354,1518.9393663703354,0.9997651714087656,0.0007715576049342652
1518.9463108711905,1518.9463108711905,0.9998202881334853,0.0007719491745510077
1518.9532553721385,1518.9532553721385,1.0007626779878454,0.0007714395610295769
1518.9601998728078,1518.9601998728078,0.9995830593868227,0.0007709049481398639
1518.9671443734762,1518.9671443734762,1.0000317317533542,0.0007713813571477099
1518.9740888740519,1518.9740888740519,0.9997980133357535,0.0007711356108219585
1518.9810333746275,1518.9810333746275,1.0006692013387806,0.000771538576419925
1518.9879778749237,1518.9879778749237,0.9999186157797958,0.0007721723465309677
1518.9949223752194,1518.9949223752194,0.9993831887592679,0.000771524063395327
1519.001866875423,1519.001866875423,0.9996834260814731,0.0007719106373744347
1519.008811375533,1519.008811375533,1.0006460307123946,0.0007730439186169087
1519.0157558754563,1519.0157558754563,1.0002446076983287,0.0007729483162523951
1519.022700375473,1519.022700375473,1.0010690734524477,0.0007725542559769825
1519.0296448753968,1519.0296448753968,1.0002396207128468,0.0007721695404692572
1519.0365893751346,1519.0365893751346,0.9990301694756575,0.0007726761087615086
1519.0435338745924,1519.0435338745924,0.9990753283206063,0.0007720993127306444
1519.0504783741435,1519.0504783741435,0.9998229793905804,0.0007716554752569243
1519.0574228736018,1519.0574228736018,1.000334669797581,0.0007715634986304948
1519.0643673729664,1519.0643673729664,0.9995769460500007,0.0007727296856911696
1519.0713118721449,1519.0713118721449,1.000515617458389,0.0007726090966341875
1519.0782563713237,1519.0782563713237,1.000521666203978,0.0007728849860265741
1519.0852008703157,1519.0852008703157,1.0002237121530313,0.0007713687857520367
1519.0921453693081,1519.0921453693081,1.0000142201215112,0.0007722190684579654
1519.0990898682073,1519.0990898682073,0.9988930026954919,0.0007720655879154532
1519.1060343670138,1519.1060343670138,0.9999602902043826,0.0007722923032806045
1519.112978865633,1519.112978865633,0.9998219602849467,0.0007714824241151616
1519.1199233641605,1519.1199233641605,1.0009097517587402,0.0007715892899121961
1519.1268678627798,1519.1268678627798,0.9998704973392549,0.0007717747547267065
1519.1338123611204,1519.1338123611204,0.9996728092239232,0.0007723009659934722
