time,time,flux,flux_err
1325.3039631185143,1325.3039631185143,0.9995401757492667,0.0004374259776157677
1325.3122965540658,1325.3122965540658,1.0004974854481075,0.00043792819734339496
1325.3206299894625,1325.3206299894625,0.9998838619120786,0.0004381024392155242
1325.328268971679,1325.328268971679,1.0002946856542736,0.00040026544298233
1325.3352135009638,1325.3352135009638,1.000038671275049,0.0004004782145715116
1325.3421580299694,1325.3421580299694,0.9998635753460883,0.00040073313470576544
1325.3491025588817,1325.3491025588817,1.0004005641361182,0.000401092279150894
1325.3560470877012,1325.3560470877012,1.0000557824701715,0.00040121932729053335
1325.362991616427,1325.362991616427,0.9993670360979557,0.0004014275742638863
1325.3699361449671,1325.3699361449671,1.0000369262666762,0.000401805751746574
1325.3768806734138,1325.3768806734138,0.9998883473057296,0.0004020171061356927
1325.3838252017674,1325.3838252017674,0.9998838877345602,0.0004022935697836263
1325.3907697298418,1325.3907697298418,1.0000666340441922,0.00040255911149294154
1325.3977142579158,1325.3977142579158,1.000366902946117,0.00040283084994454895
1325.4046587859898,1325.4046587859898,0.9998080100295355,0.0004029055894647548
1325.4116033139715,1325.4116033139715,0.999625702724581,0.00040299318800664344
1325.4185478416728,1325.4185478416728,1.0003351757344063,0.0004032821926541052
1325.4254923693745,1325.4254923693745,1.0000211391290286,0.00040333310192004946
1325.4324368967968,1325.4324368967968,1.0001322237908645,0.0004034670855159006
1325.4393814243122,1325.4393814243122,0.9996763561129788,0.00040352392080509806
1325.4463259516415,1325.4463259516415,0.9999267363093967,0.0004035665459593659
1325.4532704788771,1325.4532704788771,1.0006223708139532,0.0004037757824309605
1325.4602150060205,1325.4602150060205,1.0004351548854884,0.0004037981802490192
1325.46715953307,1325.46715953307,1.000065053138285,0.000403757137361998
1325.4741040601198,1325.4741040601198,0.9994397140689543,0.00040374326975678627
1325.481048586797,1325.481048586797,0.9991603954146029,0.00040379580115136056
1325.487993113567,1325.487993113567,0.9998126157898003,0.00040392915267061706
1325.4949376402446,1325.4949376402446,0.999914627471397,0.00040402199362436325
1325.5018821667356,1325.5018821667356,1.0005385967214953,0.0004041161381664399
1325.5088266932264,1325.5088266932264,1.0000837124861341,0.00040424419061335225
1325.5157712196246,1325.5157712196246,1.0005700307817134,0.00040429969733009634
1325.5227157458357,1325.5227157458357,1.000180779231113,0.00040435606478870026
1325.5296602720473,1325.5296602720473,1.0001186829058308,0.00040445699482889285
1325.5366047980726,1325.5366047980726,0.9995805511403326,0.00040439203155292396
1325.543549324191,1325.543549324191,0.9997538186473289,0.0004045219603388046
1325.5504938499373,1325.5504938499373,1.0003433831862953,0.00040473471202754084
1325.557438375683,1325.557438375683,1.000174322238046,0.0004048029591982114
1325.564382901429,1325.564382901429,1.0002085900874884,0.0004049278848496186
1325.571327427175,1325.571327427175,0.9991388767850833,0.0004047960716107634
1325.5782719529207,1325.5782719529207,0.9998529576532468,0.00040491575007409197
1325.5852164783876,1325.5852164783876,0.9998380192521565,0.00040500594427814
1325.5921610038538,1325.5921610038538,1.0006789096129318,0.000405130116708757
1325.5991055291338,1325.5991055291338,1.0000675118901134,0.0004050644805613586
1325.6060500544143,1325.6060500544143,1.0003949648967727,0.0004051058338132781
1325.6129945796013,1325.6129945796013,1.000119462964093,0.00040507091005615744
1325.6199391047885,1325.6199391047885,0.9995196319397819,0.00040494512030486647
1325.6268836296963,1325.6268836296963,1.0002371764159856,0.00040501418965342543
1325.633828154697,1325.633828154697,1.0003648015424411,0.00040502605501856713
1325.6407726796049,1325.6407726796049,0.9996352821220649,0.0004048700367499957
1325.6477172044192,1325.6477172044192,0.9995226174141896,0.00040474195899696384
1325.654661729141,1325.654661729141,1.0001758540637682,0.0004048444459823293
1325.6616062538621,1325.6616062538621,0.9996898774957828,0.0004047384795933023
1325.6685507783973,1325.6685507783973,1.0004251165524647,0.0004048009187359573
1325.6754953029326,1325.6754953029326,0.9995854801203441,0.0004046435096223651
1325.6824398273748,1325.6824398273748,0.9997076265405009,0.00040465024145023524
1325.6893843517237,1325.6893843517237,0.999838510835982,0.0004046599500281559
1325.6963288760726,1325.6963288760726,1.0004177062516582,0.0004047557109855864
1325.7032734003285,1325.7032734003285,1.000338160593692,0.00040480220774964085
1325.7102179245844,1325.7102179245844,0.9999779429790516,0.0004047452049644134
1325.7171624485604,1325.7171624485604,0.9999332714804237,0.00040479088420784776
1325.7241069727231,1325.7241069727231,0.9998061880055417,0.00040482505983492395
1325.7310514966998,1325.7310514966998,1.0002362694075457,0.0004050296410278936
1325.7379960205828,1325.7379960205828,1.0004230013080384,0.00040511709121530016
1325.7449405444663,1325.7449405444663,0.9996202330994949,0.0004050647154397815
1325.7518850681631,1325.7518850681631,0.9994832846645345,0.0004051512060315639
1325.7588295920464,1325.7588295920464,0.9998031232997565,0.0004052581177221324
1325.7657741155572,1325.7657741155572,1.0007496176383393,0.00040553449072125295
1325.7727186393472,1325.7727186393472,0.9997380917940737,0.000405442784733849
1325.7796631627648,1325.7796631627648,1.0002071464755509,0.0004056408763360822
1325.7866076861824,1325.7866076861824,1.0001295579286078,0.0004057157251606414
1325.7935522096,1325.7935522096,1.0001120413901343,0.000405906740718487
1325.8004967330176,1325.8004967330176,0.9993981052288026,0.00040586629271674907
1325.8074412564354,1325.8074412564354,1.0000209718273667,0.0004059882993480379
1325.8143857795735,1325.8143857795735,1.0001737897137122,0.00040603657562153506
1325.8213303028047,1325.8213303028047,1.000324147582479,0.00040612930342148084
1325.828274825943,1325.828274825943,0.9992105716322127,0.0004060298704134346
1325.8352193490814,1325.8352193490814,1.0001765356766257,0.0004062120242276976
1325.8421638720333,1325.8421638720333,1.0000257257251428,0.00040623853155214535
1325.8491083949853,1325.8491083949853,1.0002268755753072,0.00040627545491909366
1325.8560529179367,1325.8560529179367,1.0000052429757986,0.0004062781269742261
1325.8629974407959,1325.8629974407959,1.000165391359522,0.00040626257358313667
1325.8699419636546,1325.8699419636546,1.0001423654097419,0.00040629806520441953
1325.8768864863273,1325.8768864863273,1.0009083268581562,0.00040621548186521757
1325.883831009093,1325.883831009093,0.9993119895955427,0.0004059335528154886
1325.8907755316723,1325.8907755316723,0.9995144074467641,0.00040588692744479934
1325.8977200542517,1325.8977200542517,0.9997245000862611,0.00040591852990712703
1325.9046645768315,1325.9046645768315,1.0002069606560535,0.0004059050282664638
1325.911609099224,1325.911609099224,0.9999149883273521,0.00040592372164071527
1325.9185536217105,1325.9185536217105,0.9998826134649109,0.00040582797035065236
1325.9254981441034,1325.9254981441034,1.0005019250161986,0.0004058443806864427
1325.9324426664039,1325.9324426664039,1.0003746669529001,0.0004058781929218916
1325.9393871887037,1325.9393871887037,0.999844813819271,0.00040581362967658684
1325.9463317109107,1325.9463317109107,0.9996546309231944,0.0004057243194563999
1325.9532762331178,1325.9532762331178,0.9993827752393031,0.0004056762519326805
1325.9602207552311,1325.9602207552311,1.0000566415290624,0.00040578798061611046
1325.9679986199692,1325.9679986199692,1.0005954105748078,0.00040588589798775727
1325.97549870377,1325.97549870377,0.9997349504950328,0.0004057803208218096
1325.9824432256974,1325.9824432256974,1.0003594340874595,0.0004059220539954638
1325.9893877476247,1325.9893877476247,1.0000277659349737,0.0004058478027972391
1325.996332269459,1325.996332269459,1.0001352428976675,0.00040588927723028977
1326.0032767913867,1326.0032767913867,1.00001678030872,0.0004059731340183513
1326.0102213131277,1326.0102213131277,1.0000567770833724,0.00040607098623702376
1326.0171658348693,1326.0171658348693,0.9995829846058959,0.0004061408630209744
1326.0241103565172,1326.0241103565172,0.9996885292517916,0.00040624216035854986
1326.0310548781654,1326.0310548781654,1.0001163700385691,0.00040639775820409057
1326.0379993998133,1326.0379993998133,0.9998083363335389,0.0004064039489740048
1326.044943921368,1326.044943921368,1.000416560922465,0.0004064325308276691
1326.0518884428302,1326.0518884428302,1.0004803556770878,0.0004065331383607463
1326.058832964292,1326.058832964292,1.0003110301701585,0.00040655998141337626
1326.0657774856604,1326.0657774856604,0.9996570573938186,0.0004064523259383417
1326.0727220071226,1326.0727220071226,1.000069291151588,0.000406596500515368
1326.0796665283044,1326.0796665283044,1.0002695092274048,0.000406609844498877
1326.086611049674,1326.086611049674,1.0001003882522101,0.0004066920255171386
1326.093555570949,1326.093555570949,0.9999529128942198,0.0004067006917091878
1326.1005000920388,1326.1005000920388,0.9994203968887237,0.0004065763427771002
1326.107444613128,1326.107444613128,1.0002659534185099,0.0004068247954599165
1326.114389134217,1326.114389134217,1.0001143100303171,0.0004067825494664952
1326.1213336553064,1326.1213336553064,1.0004525329100755,0.0004068951384430592
1326.1282781763953,1326.1282781763953,0.999562853574816,0.0004067991015221283
1326.1352226974852,1326.1352226974852,0.9993570423022282,0.00040678299636326724
1326.1421672181084,1326.1421672181084,1.0002315062810356,0.0004069649190869094
1326.1491117391981,1326.1491117391981,0.9999476021265477,0.0004069264922188354
1326.1560562599147,1326.1560562599147,1.0000407455168303,0.0004069379947743457
1326.1630007808176,1326.1630007808176,1.0002110297205395,0.00040698411282863765
1326.1699453015347,1326.1699453015347,1.00022492962639,0.0004069606685885278
1326.1768898222513,1326.1768898222513,1.0000059542602147,0.0004069826806591602
1326.183834342875,1326.183834342875,0.9999209949558938,0.0004069779453722653
1326.1907788634985,1326.1907788634985,1.0001526146705035,0.00040705122848576087
1326.197723384122,1326.197723384122,0.9997766110528248,0.000406991154668402
1326.204667904746,1326.204667904746,0.9999017800824053,0.0004070385181013024
1326.211612425183,1326.211612425183,1.0004022740472862,0.00040720218605045446
1326.218556945621,1326.218556945621,0.9996129622288284,0.00040708274039382775
1326.225501466058,1326.225501466058,1.0004572013671216,0.0004072022641095271
1326.2324459864024,1326.2324459864024,1.000008818637846,0.00040719250142777323
1326.2393905066533,1326.2393905066533,1.0002711179644208,0.0004072740646691621
1326.2463350269973,1326.2463350269973,0.9994077513392081,0.0004070739937939252
1326.2532795473421,1326.2532795473421,0.9998019277091265,0.0004071505876101876
1326.2602240674996,1326.2602240674996,0.9998670494666037,0.00040717413657377806
1326.267168587658,1326.267168587658,0.9991168651731736,0.00040708476688567
1326.274113107816,1326.274113107816,1.0001399333007375,0.0004072538261417172
1326.2810576278805,1326.2810576278805,1.0007371239472125,0.00040728466877853103
1326.288002148039,1326.288002148039,1.0010775468847442,0.00040729357088353514
1326.2949466680104,1326.2949466680104,0.9997430482157739,0.00040714234582544693
1326.3018911878887,1326.3018911878887,0.99990045990362,0.0004071583916281001
1326.3088357078602,1326.3088357078602,0.9996760947740787,0.0004070914357106795
1326.3157802277392,1326.3157802277392,0.9996723536695671,0.00040712763250721936
1326.322724747711,1326.322724747711,0.9995262810011261,0.0004071118216249299
1326.329669267403,1326.329669267403,1.0007181921747104,0.0004072720341414312
1326.336613787189,1326.336613787189,1.0000138541408314,0.00040721192586968874
1326.3435583069743,1326.3435583069743,1.0005232535747326,0.0004073783074083383
1326.3510583882605,1326.3510583882605,0.9995032374321433,0.00040722054580438923
1326.3602251541427,1326.3602251541427,0.9996769793886863,0.00040727090345289474
1326.3671696737415,1326.3671696737415,1.0001117813559415,0.0004073608807421152
1326.374114193341,1326.374114193341,0.9996634821850714,0.0004073066074509548
1326.3810587128469,1326.3810587128469,1.0001179458568612,0.00040741175772879176
1326.388003232353,1326.388003232353,1.0002401878485223,0.00040747999653337576
1326.3949477517658,1326.3949477517658,0.999778400918936,0.0004073816196652711
1326.401892271179,1326.401892271179,1.0002819825112919,0.0004074875633732168
1326.4088367904985,1326.4088367904985,1.0001092387543529,0.00040748525215557704
1326.4157813098186,1326.4157813098186,1.0004348013874762,0.00040758234552006436
1326.4227258291382,1326.4227258291382,0.9994768659473889,0.0004074101030771423
1326.4296703483649,1326.4296703483649,1.00040108027969,0.0004075550996182549
1326.4366148675915,1326.4366148675915,0.9998454206417865,0.00040758236656760806
1326.443559386818,1326.443559386818,0.9996818853668442,0.00040754474579351465
1326.4505039059518,1326.4505039059518,1.0007026736154025,0.00040777098248739006
1326.4574484249922,1326.4574484249922,0.999845220077517,0.00040761344407317925
1326.4643929440326,1326.4643929440326,0.9992865451535282,0.0004075781966783789
1326.471337463166,1326.471337463166,0.9998896145047264,0.00040768139226032786
1326.47828198202,1326.47828198202,0.9998414239677584,0.0004076455322328328
1326.4852265009679,1326.4852265009679,0.9993226857771432,0.00040761638637625924
1326.4921710200076,1326.4921710200076,0.9999300481027596,0.0004077040480794268
1326.4991155387693,1326.4991155387693,1.000796228632915,0.0004078537596681672
1326.5060600575298,1326.5060600575298,1.0000656229222555,0.00040774475366527356
1326.513004576291,1326.513004576291,1.0002581317582429,0.0004078146942395544
1326.519949095052,1326.519949095052,0.9997880080959691,0.00040770996641249834
1326.5268936138132,1326.5268936138132,0.9998639254505118,0.0004077415335845853
1326.533838132574,1326.533838132574,0.9996581297623657,0.0004077613865037007
1326.540782651335,1326.540782651335,1.0002353061697933,0.0004078856706223856
1326.5477271696304,1326.5477271696304,0.999882176590894,0.00040792579387177643
1326.5546716883914,1326.5546716883914,1.0005300977345553,0.00040806186981095263
1326.5616162067795,1326.5616162067795,1.000003501798785,0.00040798245243157835
1326.5685607254477,1326.5685607254477,0.9997193885077605,0.0004079464688343386
1326.5755052437428,1326.5755052437428,0.9996585208569,0.00040788839186636723
1326.5824497622248,1326.5824497622248,0.9997146737791273,0.00040792890975552536
1326.5893942806129,1326.5893942806129,1.0009139769138073,0.0004080660974806581
1326.5963387989086,1326.5963387989086,0.9995984848380125,0.0004079445049981899
1326.6032833172037,1326.6032833172037,0.9996141416516917,0.0004079016341848161
1326.610227835499,1326.610227835499,0.9998456412991542,0.0004079476919153681
1326.6171723537013,1326.6171723537013,1.0007421792930902,0.0004081204185484038
1326.6241168719032,1326.6241168719032,1.0003180141222563,0.0004080089807605312
1326.6310613900127,1326.6310613900127,0.9995761999087935,0.0004078958338727263
1326.6380059081214,1326.6380059081214,1.0000927745904775,0.0004079769989746046
1326.6449504262307,1326.6449504262307,0.9997341026676618,0.0004078582052401903
1326.6518949442466,1326.6518949442466,0.9996799820944563,0.0004078368905649412
1326.6588394621692,1326.6588394621692,1.0003528062499374,0.0004078897252104144
1326.6657839801856,1326.6657839801856,0.9997048112153951,0.0004077520486188963
1326.6727284982012,1326.6727284982012,1.0000319651752443,0.00040775570485923054
1326.6796730160313,1326.6796730160313,1.0006216887898203,0.00040776550513895344
1326.6866175338607,1326.6866175338607,1.0005073872519934,0.00040770527409300764
1326.6946731745059,1326.6946731745059,0.9994023817036354,0.00040746388298998684
1326.7018954729926,1326.7018954729926,1.0000850280582623,0.00040745934435690377
1326.7088399908225,1326.7088399908225,0.9992876251375403,0.0004072565927855429
1326.7163400697805,1326.7163400697805,0.9995634850116512,0.0004072696622680205
1326.7241179297685,1326.7241179297685,1.0001565511286612,0.000407298651020195
1326.731062447319,1326.731062447319,1.000324425881193,0.0004072877522956003
1326.738006964869,1326.738006964869,1.0000910600163089,0.0004072290796252845
1326.7449514823263,1326.7449514823263,1.0007565957687339,0.0004072229424622287
1326.7518959998765,1326.7518959998765,1.0004427245588103,0.0004071328501804222
1326.7588405173333,1326.7588405173333,0.9996552218007636,0.0004069636198917141
1326.7657850347907,1326.7657850347907,0.9996393365184554,0.00040692803769114505
1326.7727295521545,1326.7727295521545,0.9992297965861736,0.00040688206243170614
1326.7796740695187,1326.7796740695187,1.0000678466045687,0.00040692403219244567
1326.7866185867897,1326.7866185867897,0.9999831956949803,0.0004069757805438412
1326.7935631041537,1326.7935631041537,1.0001043115820116,0.00040696610913514605
1326.8005076213315,1326.8005076213315,1.0001962954418435,0.00040700826443242137
1326.8074521385092,1326.8074521385092,0.9997183236806757,0.0004069027764202592
1326.8143966556868,1326.8143966556868,1.0006842349799692,0.0004070796631611215
1326.8213411727713,1326.8213411727713,1.0005576210338092,0.0004069780382773316
1326.828285689949,1326.828285689949,1.0002306313609164,0.00040691934990381274
1326.8352302069407,1326.8352302069407,0.9991002761548542,0.0004067780180269337
1326.8421747239324,1326.8421747239324,0.9997372373593176,0.00040687570820465856
1326.8491192409238,1326.8491192409238,0.9998107723121145,0.00040691468568413764
1326.856063757822,1326.856063757822,1.0000064352684643,0.00040684584428153674
1326.8630082748136,1326.8630082748136,0.9997378634357702,0.00040683322410258106
1326.8699527916192,1326.8699527916192,1.0006797045332838,0.0004069145906525075
1326.8768973085175,1326.8768973085175,0.9996871799042889,0.00040666972707949407
1326.8838418252292,1326.8838418252292,1.0002825698501054,0.0004066985670349883
1326.8907863419415,1326.8907863419415,1.0000776821604291,0.0004065195972157851
1326.8977308588394,1326.8977308588394,1.0002172910918519,0.00040643948722896293
1326.9046753752725,1326.9046753752725,0.9996734527064767,0.00040624660498147017
1326.9116198921706,1326.9116198921706,1.0005984630890234,0.0004063442881817026
1326.9185644086035,1326.9185644086035,0.9997757896057646,0.00040607190995811454
1326.925508925036,1326.925508925036,1.0004424936540826,0.0004061049656527042
1326.9324534418415,1326.9324534418415,1.000195197827362,0.0004059473734667257
1326.9393979583674,1326.9393979583674,0.9997945213328284,0.00040581909825574265
1326.9463424747996,1326.9463424747996,0.9997599973230029,0.0004057698152792106
1326.9532869912327,1326.9532869912327,0.9998427145594233,0.0004056304314967009
1326.9602315075722,1326.9602315075722,1.0001616298125913,0.00040564519962674693
1326.9671760236326,1326.9671760236326,0.9998105156235171,0.00040549683838115284
1326.9741205400653,1326.9741205400653,1.0001901292906958,0.0004055067162647341
1326.9810650564973,1326.9810650564973,0.9998099402679042,0.00040535339959973867
1326.9880095724652,1326.9880095724652,1.0006334172723603,0.0004054331389393705
1326.9949540888974,1326.9949540888974,0.9994955849319634,0.00040525184988675453
1327.001898604865,1327.001898604865,0.9999507987675829,0.0004052556469188332
1327.008843121018,1327.008843121018,1.0001031551574073,0.0004053037434780775
1327.0157876371711,1327.0157876371711,1.0003686409655608,0.0004053798328699116
1327.0227321532316,1327.0227321532316,0.9993595357050852,0.00040520476827695447
1327.0296766691984,1327.0296766691984,1.0003401336550222,0.00040536687152431126
1327.0366211851658,1327.0366211851658,0.9999213697403617,0.000405334609907025
1327.0435657010391,1327.0435657010391,0.9999081691844,0.0004053945542292576
1327.0505102169134,1327.0505102169134,1.0000360747764074,0.0004054621160415951
1327.057454732787,1327.057454732787,1.0006003708007112,0.0004055301957551911
1327.06523259054,1327.06523259054,0.9996266845765651,0.0004054790268318463
