time,time,flux,flux_err
1437.996754498981,1437.996754498981,0.9999186272334336,0.00020072299855180406
1438.0050880357282,1438.0050880357282,0.9999655330549619,0.000200573742078201
1438.0134215728049,1438.0134215728049,1.000113119576007,0.00020038374269448745
1438.0210606487349,1438.0210606487349,0.9999710691355694,0.0001827697811831512
1438.0280052634716,1438.0280052634716,1.0000257267431771,0.00018265558532904776
1438.0349498784176,1438.0349498784176,1.0001196330690194,0.00018249245042320386
1438.0418944935968,1438.0418944935968,1.0001302207082374,0.00018240062098820394
1438.0488391089852,1438.0488391089852,0.9998868984471423,0.00018228381968811127
1438.0557837245829,1438.0557837245829,1.0000865282813656,0.00018218486596722577
1438.0627283403676,1438.0627283403676,1.0000079641060133,0.00018205070101376332
1438.069672956361,1438.069672956361,0.9999312366897561,0.0001819354949583927
1438.0766175725644,1438.0766175725644,1.0001929771231823,0.00018188182167222524
1438.0835621889541,1438.0835621889541,0.9997292141438369,0.00018171675507809348
1438.0905068055536,1438.0905068055536,0.999875148546861,0.0001816106040438235
1438.0974514223158,1438.0974514223158,0.9999756815568652,0.00018153236675925953
1438.1043960392642,1438.1043960392642,1.0000373608206325,0.00018143755612087418
1438.1113406564452,1438.1113406564452,1.000055252241498,0.00018136191273848836
1438.1182852737663,1438.1182852737663,1.0000131251169315,0.0001812695482602968
1438.125229891227,1438.125229891227,1.0001524862818878,0.00018118789102256435
1438.1321745089206,1438.1321745089206,1.0002399386959897,0.00018111200379951882
1438.139119126707,1438.139119126707,0.9998506109004387,0.0001810019360831715
1438.1460637447267,1438.1460637447267,1.0000152563034783,0.0001809566508881765
1438.1530083628627,1438.1530083628627,0.9998900212615609,0.00018084022398952716
1438.1599529812079,1438.1599529812079,0.9999210352982548,0.00018077692592535294
1438.1668975996695,1438.1668975996695,1.000218401376512,0.00018072953106614307
1438.1738422182948,1438.1738422182948,0.9997620698986885,0.0001806191268273432
1438.1807868370593,1438.1807868370593,0.9998643190399793,0.0001805465256341561
1438.1877314559868,1438.1877314559868,1.0002568431924188,0.00018050036776111252
1438.1946760750775,1438.1946760750775,0.9998948948969986,0.00018042362330916004
1438.2016206942608,1438.2016206942608,1.0002303952756648,0.0001803788245403857
1438.208565313631,1438.208565313631,0.9997221508654703,0.00018025791692568308
1438.2155099330705,1438.2155099330705,0.9999771826780119,0.00018024747692259633
1438.2224545526963,1438.2224545526963,0.9997306069693048,0.00018014938998914522
1438.229399172416,1438.229399172416,1.0003450882474036,0.00018015250097946098
1438.2363437922745,1438.2363437922745,1.000049396999402,0.00018009489878781148
1438.24328841225,1438.24328841225,0.9999463978255164,0.00018002246240285494
1438.250233032365,1438.250233032365,0.9999719037782681,0.00018001429433387212
1438.2571776525729,1438.2571776525729,1.0001612577203915,0.00018000656828340896
1438.2641222729205,1438.2641222729205,0.9999869689836404,0.00017992246308994888
1438.2710668933848,1438.2710668933848,0.9998726684278132,0.00017990140582255045
1438.2780115139417,1438.2780115139417,0.9999367616133199,0.00017985229249774958
1438.2849561345927,1438.2849561345927,1.0004463337502305,0.00017988207617802726
1438.2919007553596,1438.2919007553596,1.0001293363020305,0.00017983231268856777
1438.298845376243,1438.298845376243,0.999436188616792,0.0001797642770201333
1438.3057899972425,1438.3057899972425,0.9997311511268829,0.00017972867927833192
1438.312734618312,1438.312734618312,1.0000522503199212,0.00017974413543981444
1438.3196792394751,1438.3196792394751,0.9999966158467867,0.00017971862322046475
1438.3266238607307,1438.3266238607307,1.0001556327609822,0.00017972731990224724
1438.3335684820793,1438.3335684820793,1.0003264003481616,0.00017969635549226623
1438.3405131035215,1438.3405131035215,0.9998514468173487,0.000179617255850035
1438.3474577250568,1438.3474577250568,1.0001291143218016,0.00017966461619168606
1438.354402346662,1438.354402346662,1.0001803159995497,0.0001795968705591855
1438.36134696836,1438.36134696836,0.9997457610313436,0.00017952823564868474
1438.3682915901281,1438.3682915901281,0.9998043123758444,0.00017951946001809436
1438.3752362119894,1438.3752362119894,1.0000320423515727,0.0001795278632711125
1438.3821808339203,1438.3821808339203,1.0002981833144158,0.00017949787313847025
1438.389125455898,1438.389125455898,0.9996116749490787,0.0001794488487959153
1438.3960700780158,1438.3960700780158,1.0000102885651898,0.00017942349681551435
1438.4030147001326,1438.4030147001326,0.9998447328141487,0.00017940447836746622
1438.4099593223666,1438.4099593223666,1.0000920037788459,0.000179323171098541
1438.41690394467,1438.41690394467,1.0003418155249553,0.00017935941791890782
1438.4238485669734,1438.4238485669734,0.9999525819431458,0.00017934880197393373
1438.4307931893934,1438.4307931893934,1.0001208611609977,0.00017936798781443235
1438.43773781186,1438.43773781186,0.9998346873564523,0.00017935251928720777
1438.4446824343963,1438.4446824343963,1.0001725260795207,0.0001793805927671008
1438.4516270569097,1438.4516270569097,0.9999904302219405,0.0001793475330046329
1438.4585716796323,1438.4585716796323,0.9998030623842198,0.00017928223167149482
1438.465516302285,1438.465516302285,0.9995620947470094,0.00017924405621684821
1438.4724609250304,1438.4724609250304,1.0001347285668973,0.00017932297685659379
1438.4794055478467,1438.4794055478467,1.0001774388793658,0.00017936839234014866
1438.4863501706625,1438.4863501706625,1.000029786537849,0.00017925812993717247
1438.4932947935713,1438.4932947935713,1.0000644893686368,0.00017926442640917137
1438.5002394165035,1438.5002394165035,1.0002188868163606,0.00017935191745744125
1438.5071840394592,1438.5071840394592,1.0002166577202711,0.00017937529854894564
1438.5141286625076,1438.5141286625076,0.9998765095937578,0.00017932751502617043
1438.5210732855562,1438.5210732855562,0.9998257541276606,0.00017933523515814226
1438.528017908675,1438.528017908675,0.9999266918849493,0.0001793148278176767
1438.5349625317933,1438.5349625317933,0.9998088269393401,0.00017927405128518076
1438.5419071549816,1438.5419071549816,0.999930934180993,0.00017933225186686283
1438.54885177817,1438.54885177817,0.9998655978421492,0.00017934568804334826
1438.5557964014747,1438.5557964014747,1.0001207063045077,0.00017936508813399719
1438.5627410247328,1438.5627410247328,1.0002277459316038,0.0001793799805301246
1438.5696856480376,1438.5696856480376,1.000181160566233,0.00017934698341076053
1438.5766302713887,1438.5766302713887,0.9999491334436534,0.00017935743812703714
1438.5835748947632,1438.5835748947632,1.0000269651441875,0.00017934293433904933
1438.5905195181615,1438.5905195181615,1.000265176252659,0.0001793631119904729
1438.5974641415828,1438.5974641415828,0.9998633904540398,0.00017931449818679756
1438.6044087650503,1438.6044087650503,0.9997013475643046,0.00017930305119351795
1438.6113533885182,1438.6113533885182,0.999802528749084,0.00017930949087230765
1438.6182980120088,1438.6182980120088,0.9999386927867837,0.0001792144072298441
1438.6252426355234,1438.6252426355234,1.0000412543085881,0.00017932411818372254
1438.6321872590606,1438.6321872590606,1.0002601922025103,0.00017938053117584255
1438.6391318825981,1438.6391318825981,1.0001058845126218,0.00017931833588681254
1438.6460765061825,1438.6460765061825,1.000204424718016,0.00017934195605284073
1438.65302112979,1438.65302112979,1.0002852863033236,0.00017937959251547523
1438.6599657533975,1438.6599657533975,1.000052849959687,0.00017934199750458416
1438.6669103770282,1438.6669103770282,0.9998036465513562,0.00017930830124289753
1438.673855000659,1438.673855000659,1.0000944236203675,0.0001792816188135729
1438.6807996243128,1438.6807996243128,0.9998097214528073,0.00017930258720349725
1438.68774424799,1438.68774424799,0.9997605010148678,0.00017928260898149442
1438.6946888716438,1438.6946888716438,1.0001000858902906,0.00017936507874244536
1438.7016334953212,1438.7016334953212,0.9999261921989167,0.0001793128973736541
1438.7085781190451,1438.7085781190451,1.0001642535882278,0.00017935785646340746
1438.7155227427224,1438.7155227427224,1.0001635165472123,0.00017931444507975107
1438.7224673664464,1438.7224673664464,0.9999810228745455,0.0001793043998126416
1438.729411990147,1438.729411990147,0.9998496302183508,0.00017932020009216716
1438.7363566138938,1438.7363566138938,0.9998169400349548,0.0001793070932588111
1438.7433012375714,1438.7433012375714,1.0002320021829123,0.00017934967345401253
1438.7502458613412,1438.7502458613412,1.0000795472105561,0.00017937491780486091
1438.7571904850654,1438.7571904850654,0.9999331712424702,0.00017931052426169787
1438.7641351087661,1438.7641351087661,0.999969306904853,0.00017924050356946342
1438.7710797325365,1438.7710797325365,0.9998490835559494,0.0001791141075003238
1438.7780243562836,1438.7780243562836,0.9998339257953571,0.0001793047048709812
1438.784968979961,1438.784968979961,1.0001195758344052,0.0001793001378870272
1438.7919136037312,1438.7919136037312,1.000162711659137,0.00017935206320684004
1438.7988582274784,1438.7988582274784,1.0003154047072162,0.0001793204676952237
1438.8058028511555,1438.8058028511555,1.000003670487979,0.00017932473854266126
1438.812747474926,1438.812747474926,0.9998329544854979,0.00017929250104029693
1438.819692098627,1438.819692098627,1.00000742348336,0.00017934248972182462
1438.8266367223503,1438.8266367223503,0.9998712147403858,0.00017927016634406017
1438.8335813460512,1438.8335813460512,0.9998065698184572,0.00017916663351207345
1438.840525969775,1438.840525969775,1.0001546787842988,0.00017924332804465046
1438.8474705934289,1438.8474705934289,0.9998665527357318,0.00017931906787351464
1438.8544152171296,1438.8544152171296,0.9998674711018349,0.00017927455478419189
1438.8613598408297,1438.8613598408297,1.0004381023459419,0.00017934406602605304
1438.8683044644843,1438.8683044644843,0.9999800594802798,0.00017930160095693491
1438.8752490881382,1438.8752490881382,1.0001436222173203,0.00017931587420902119
1438.882193711792,1438.882193711792,0.9999636957457554,0.00017927098927215422
1438.8891383354228,1438.8891383354228,0.9996381139423878,0.00017921499273110118
1438.8960829590533,1438.8960829590533,0.9998840993198245,0.00017911814577625614
1438.903027582684,1438.903027582684,0.9999592484002369,0.0001792500145724275
1438.9099722062683,1438.9099722062683,1.0001070800569722,0.0001793128947330018
1438.9169168298524,1438.9169168298524,1.0003811158702824,0.00017927263722629223
1438.9238614534365,1438.9238614534365,0.9998820816166093,0.00017929609135951903
1438.9308060769977,1438.9308060769977,0.9998839280826951,0.00017922463186426907
1438.937750700535,1438.937750700535,1.0000996118783783,0.00017931725245642582
1438.9446953240729,1438.9446953240729,0.9999244423803415,0.00017929488286086624
1438.9516399475635,1438.9516399475635,0.9999346334313215,0.00017929188377390255
1438.9585845711013,1438.9585845711013,1.0001947197449375,0.0001791790542063053
1438.965529194569,1438.965529194569,0.9998948546088524,0.00017934916943107877
1438.9724738180134,1438.9724738180134,0.9999042910045249,0.00017931904399605958
1438.9794184414582,1438.9794184414582,1.0001943025783373,0.00017934475640841397
1438.986363064879,1438.986363064879,0.9999768135656308,0.00017931695836608961
1438.9933076883003,1438.9933076883003,0.9997897717328718,0.00017930060397291283
1439.000252311675,1439.000252311675,1.0000713918977122,0.00017932749149012335
1439.0071969350497,1439.0071969350497,0.9999399099784163,0.0001793278431781432
1439.0141415583773,1439.0141415583773,1.0000002394388088,0.00017927713633311525
1439.0210861817056,1439.0210861817056,1.0001573965798556,0.0001792784288261496
1439.0280308050103,1439.0280308050103,1.0000260428801768,0.00017933547676894827
1439.0349754282686,1439.0349754282686,0.9998823502370486,0.0001792815619640765
1439.0419200515503,1439.0419200515503,0.9999517363519269,0.00017930893469424698
1439.048864674738,1439.048864674738,1.0000586129683569,0.00017930080056479224
1439.0558092979502,1439.0558092979502,1.0000901874855728,0.00017931446286323022
1439.062753921115,1439.062753921115,1.0000083557880342,0.0001793248206319446
1439.0696985443033,1439.0696985443033,0.9998825293109445,0.00017927250783756065
1439.0766431674915,1439.0766431674915,1.0000924038352026,0.00017928632111560252
1439.0835877905636,1439.0835877905636,0.9997532497529367,0.0001792886522040349
1439.090532413659,1439.090532413659,1.0002281654749614,0.00017933770219834126
1439.0974770367309,1439.0974770367309,0.9997893507777057,0.00017931481716246324
1439.104421659756,1439.104421659756,1.0000506838681456,0.0001793079413778431
1439.1113662827818,1439.1113662827818,1.0001782888030526,0.00017931211905603426
1439.118310905737,1439.118310905737,1.000009798553908,0.00017927297322230842
1439.1252555286926,1439.1252555286926,1.000087127979302,0.00017928383613289222
1439.1322001516248,1439.1322001516248,0.9997648516638261,0.00017926922931319272
1439.1391447745339,1439.1391447745339,0.9999143883944687,0.0001792807033806908
1439.1460893973965,1439.1460893973965,0.9999937171949222,0.00017930445601449594
1439.1530340202353,1439.1530340202353,1.0004867903495478,0.00017932190742189872
1439.1599786430277,1439.1599786430277,0.999991452049648,0.00017929879661810914
1439.16692326582,1439.16692326582,0.9996135923411321,0.00017928114966562087
1439.1738678885663,1439.1738678885663,1.000081734783985,0.00017929076816274028
1439.1808125112889,1439.1808125112889,0.9999696129177609,0.0001793380998833275
1439.187757133965,1439.187757133965,1.0002199884341905,0.00017928060859475573
1439.1947017566877,1439.1947017566877,0.99961518682214,0.0001793003887525778
1439.2016463792943,1439.2016463792943,1.000007424670118,0.00017932377657461842
1439.2085910019002,1439.2085910019002,0.9999778502323566,0.00017931612261141663
1439.2155356244364,1439.2155356244364,1.0000744057936808,0.00017936286131549632
1439.2224802469966,1439.2224802469966,1.0003768682127203,0.0001793683593900904
1439.2294248694864,1439.2294248694864,0.9999643302355239,0.00017932745733861103
1439.2363694919527,1439.2363694919527,1.000046890444469,0.00017933212485468885
1439.2433141143963,1439.2433141143963,0.9998498368298823,0.00017933376814166266
1439.2502587367928,1439.2502587367928,1.0001116540120312,0.0001793349702266965
1439.2572033591664,1439.2572033591664,0.9997296183323285,0.00017931424963375727
1439.2641479814934,1439.2641479814934,0.9998076078010676,0.00017932797058280587
1439.2710926038199,1439.2710926038199,1.0000457423501465,0.00017929721370451359
1439.2780372260772,1439.2780372260772,1.000139980856219,0.00017933006993706564
1439.2849818483105,1439.2849818483105,0.9999480580398277,0.00017930225751320209
1439.2919264705213,1439.2919264705213,1.000020273922667,0.00017931664141136307
1439.2988710926616,1439.2988710926616,0.9999697330582233,0.00017927255961547659
1439.305815714779,1439.305815714779,1.0001255420092863,0.00017923129318606887
1439.3127603369198,1439.3127603369198,1.0002668498950196,0.0001793313966374621
1439.3197049589442,1439.3197049589442,1.000228647211825,0.00017927960080665108
1439.326649580968,1439.326649580968,0.9999047155839786,0.00017920051537367808
1439.3335942029926,1439.3335942029926,0.9999711025523661,0.00017932365667178775
1439.3405388249,1439.3405388249,0.9999886403013136,0.00017930248920489995
1439.3474834468311,1439.3474834468311,0.9998797868174443,0.00017927119395521162
1439.3544280686924,1439.3544280686924,1.000019094048281,0.0001793135758914648
1439.3613726905537,1439.3613726905537,0.9997726447876099,0.00017922110846557362
1439.3683173123452,1439.3683173123452,1.000177814248149,0.00017928419237325674
1439.3752619341133,1439.3752619341133,1.0000083927725814,0.0001793175648441148
1439.3822065558577,1439.3822065558577,1.0001132449032417,0.00017931953369393867
1439.3891511775328,1439.3891511775328,0.9999351734778521,0.00017931385063938283
1439.3960957991844,1439.3960957991844,0.9999754653335866,0.00017930951036626997
1439.4030404208129,1439.4030404208129,1.0001893429226483,0.00017925810393442916
1439.4099850423713,1439.4099850423713,1.000005971156517,0.0001793169359428558
1439.4169296639068,1439.4169296639068,0.9996750319381047,0.00017931959858213017
1439.4238742854423,1439.4238742854423,1.0001828440175373,0.0001792879074527087
1439.4308189069075,1439.4308189069075,0.9998835228647988,0.00017927172693207297
1439.4377635283029,1439.4377635283029,0.9998337004297193,0.0001792884333426027
1439.444708149675,1439.444708149675,1.0001809039063214,0.0001793297544626787
1439.4516527710243,1439.4516527710243,0.9999987129588668,0.00017931770885175476
1439.4585973923267,1439.4585973923267,1.0001919446109193,0.00017933689662944473
1439.4655420135825,1439.4655420135825,1.0002284148396883,0.00017935767083961947
1439.4724866348151,1439.4724866348151,1.0000375785938302,0.00017935415888876716
1439.479431255978,1439.479431255978,1.0000938868655382,0.00017931319618120055
1439.4863758771407,1439.4863758771407,1.0002532599870122,0.000179294518389594
1439.4933204982333,1439.4933204982333,0.9998266678598885,0.0001793156560096123
1439.500265119303,1439.500265119303,1.0000453070867459,0.00017933698856924325
1439.5072097403029,1439.5072097403029,0.9999406675077029,0.0001793511772705241
1439.5141543613022,1439.5141543613022,1.0000674051258531,0.00017932773015101052
1439.5210989822324,1439.5210989822324,0.999883196711011,0.00017934915234603944
1439.528043603139,1439.528043603139,1.0000471323250946,0.0001793312577720489
1439.534988223999,1439.534988223999,0.9999283528819889,0.00017931071608603703
1439.5419328447895,1439.5419328447895,0.9999509361716422,0.00017930220966807167
1439.5488774655562,1439.5488774655562,1.0000981514384066,0.0001793543485449826
1439.5558220863,1439.5558220863,0.9998162904017484,0.0001793442836138094
1439.5627667069737,1439.5627667069737,1.0001393819630349,0.00017932704167244253
1439.5697113276242,1439.5697113276242,1.0000657198299487,0.0001793059033273539
1439.576655948205,1439.576655948205,1.000045591984906,0.00017930231955746808
1439.583600568762,1439.583600568762,1.0002476326348624,0.00017934955448635373
1439.5905451892963,1439.5905451892963,0.9998743363243605,0.0001793071011701491
1439.5974898097606,1439.5974898097606,0.9998857239806117,0.00017931547827093809
1439.6044344302013,1439.6044344302013,0.9998068081544418,0.000179329591061929
1439.6113790505958,1439.6113790505958,0.9999815332263463,0.00017933932735392162
1439.6183236709437,1439.6183236709437,1.0000994887828347,0.00017933087530827753
1439.6252682912218,1439.6252682912218,1.0000886259237567,0.00017934256873288455
1439.6322129114997,1439.6322129114997,0.9999763033181361,0.00017930941936842974
1439.6391575317077,1439.6391575317077,1.000156002679522,0.00017934029024436625
1439.6461021518926,1439.6461021518926,0.999847683979054,0.0001793300529963592
1439.653046772031,1439.653046772031,0.9998415774878137,0.0001792859845883989
1439.6599913920993,1439.6599913920993,0.9999488626814266,0.00017928644751377218
1439.6669360121448,1439.6669360121448,0.9999447624508353,0.00017926129854386438
1439.6738806321432,1439.6738806321432,1.0003135912914263,0.00017930672799835735
1439.6808252520718,1439.6808252520718,1.0000794249589822,0.00017926195686428586
1439.6877698719773,1439.6877698719773,0.9999186676084497,0.00017931149185054947
1439.6947144918593,1439.6947144918593,1.0000250097305048,0.00017932923474032108
1439.7016591116717,1439.7016591116717,1.0000877860450876,0.00017933907165654483
1439.7086037314143,1439.7086037314143,1.0000822343412614,0.0001793048527294016
1439.7155483512033,1439.7155483512033,1.0000044243149222,0.00017930132107878035
1439.7224929708295,1439.7224929708295,0.9996799321201741,0.00017929256023745704
1439.729437590502,1439.729437590502,1.000078284183854,0.00017933027050263158
1439.7363822100815,1439.7363822100815,0.9999944539856118,0.00017929845574219283
1439.7433268296377,1439.7433268296377,0.9998640934941022,0.00017934100512723066
