time,time,flux,flux_err
1325.2988310215333,1325.2988310215333,1.000000153822523,0.00017968911032608756
1325.307164305003,1325.307164305003,0.9998990421491145,0.00017984459962524683
1325.3148031484584,1325.3148031484584,1.000064301623067,0.00016422853542583964
1325.3217475518168,1325.3217475518168,1.0000445388749228,0.00016425533003376643
1325.3286919553846,1325.3286919553846,1.0002848185066782,0.0001642955051067358
1325.335636359145,1325.335636359145,0.9998304908168603,0.00016428727756228673
1325.342580763126,1325.342580763126,0.9998113749636494,0.00016430544578630433
1325.349525167288,1325.349525167288,1.000079608765198,0.0001643604240519361
1325.356469571665,1325.356469571665,1.0000084243526164,0.00016435758561204688
1325.363413976234,1325.363413976234,0.9999918216636081,0.00016437994765765247
1325.3703583809897,1325.3703583809897,0.9997731757186594,0.00016436973926388197
1325.3773027859545,1325.3773027859545,1.0004091790032317,0.00016443129504514116
1325.3842471911062,1325.3842471911062,1.0000303306630656,0.00016438389027437518
1325.3911915964377,1325.3911915964377,0.9999185929967511,0.00016442364960772706
1325.398136001967,1325.398136001967,0.9996163002772608,0.00016437989314077505
1325.4050804076776,1325.4050804076776,1.000280949955057,0.00016438811982709612
1325.4120248135735,1325.4120248135735,0.9997954681956429,0.00016436261503326757
1325.4189692196621,1325.4189692196621,0.9998776831854279,0.00016435179251415182
1325.425913625925,1325.425913625925,1.000053410280403,0.0001643680529333534
1325.4328580323627,1325.4328580323627,0.9998460246984358,0.0001643231336367736
1325.4398024389811,1325.4398024389811,1.000192616053731,0.0001643340028428827
1325.446746845762,1325.446746845762,1.000011792622344,0.00016430424504028574
1325.453691252735,1325.453691252735,0.9999927676538405,0.0001642902355451104
1325.4606356598654,1325.4606356598654,1.0001332495516415,0.00016427670700081896
1325.467580067176,1325.467580067176,1.0000341272810078,0.00016424823674457558
1325.4745244746616,1325.4745244746616,1.0000339430584826,0.00016423045862370785
1325.4814688823042,1325.4814688823042,0.9996169333176994,0.00016420878648873953
1325.48841329011,1325.48841329011,1.000045509177799,0.00016422994572927617
1325.49535769809,1325.49535769809,0.9998716203020017,0.00016422191136430738
1325.5023021062154,1325.5023021062154,1.0002073399713645,0.00016423720692506917
1325.5092465145103,1325.5092465145103,1.0003408878150173,0.00016427604827010003
1325.516190922956,1325.516190922956,1.0004128708191389,0.00016429938556815116
1325.5231353315762,1325.5231353315762,1.0002465391804312,0.00016430926999735782
1325.5300797403363,1325.5300797403363,0.9998599305744433,0.00016428838414383475
1325.5370241492478,1325.5370241492478,0.999599013615472,0.0001642968645996642
1325.5439685583167,1325.5439685583167,1.0001860206575475,0.00016435869828821873
1325.550912967554,1325.550912967554,0.9994067945413356,0.00016434441336346084
1325.557857376914,1325.557857376914,0.9999422931345079,0.00016440310117384603
1325.564801786425,1325.564801786425,0.9999323403923037,0.0001644358047348791
1325.5717461960987,1325.5717461960987,1.0003916067799792,0.0001645153542054653
1325.578690605901,1325.578690605901,1.000211441389192,0.00016453886502416486
1325.5856350158426,1325.5856350158426,1.0000382998735586,0.00016454693012083165
1325.5925794259415,1325.5925794259415,1.000082160310896,0.00016455151572000856
1325.5995238361743,1325.5995238361743,0.9994158587913085,0.00016453721023231216
1325.6064682465408,1325.6064682465408,1.0002463971950084,0.00016461759715709012
1325.6134126570473,1325.6134126570473,0.9998691436862808,0.00016457851776308427
1325.6203570676876,1325.6203570676876,0.9997256153747156,0.00016460659617905068
1325.627301478462,1325.627301478462,1.0001132548912524,0.000164660874593643
1325.634245889364,1325.634245889364,1.000208155452897,0.00016467566578708045
1325.6411903004062,1325.6411903004062,0.999958904540172,0.00016468818637773661
1325.64813471157,1325.64813471157,1.0002753244048064,0.00016472548536961362
1325.655079122874,1325.655079122874,0.9999848851954896,0.00016471284701424766
1325.6620235342996,1325.6620235342996,0.9998285386619757,0.00016473051890719738
1325.6689679458484,1325.6689679458484,0.999997482863129,0.00016474340080189318
1325.6759123575189,1325.6759123575189,0.9999831766729301,0.00016476105394615397
1325.6828567693117,1325.6828567693117,1.0000865586875898,0.00016476692774169526
1325.6898011812323,1325.6898011812323,0.9999696899266601,0.00016478962267311542
1325.6967455932638,1325.6967455932638,1.0001834698516978,0.00016483418005346716
1325.7036900054231,1325.7036900054231,0.9999011449249595,0.00016483240629970984
1325.7106344176932,1325.7106344176932,0.9999235407862784,0.0001648476630750167
1325.7175788300858,1325.7175788300858,0.9996787656450247,0.000164859742953684
1325.7245232425826,1325.7245232425826,1.0001311063476452,0.0001648994162771193
1325.731467655202,1325.731467655202,1.0003827380205648,0.00016492434701872804
1325.7384120679378,1325.7384120679378,0.9999624131957331,0.0001649178428087439
1325.7453564807781,1325.7453564807781,0.9999839910061198,0.00016495392479328673
1325.7523008937292,1325.7523008937292,0.9999024377642879,0.0001649477484311249
1325.7592453067912,1325.7592453067912,0.9999542678594879,0.00016496500671490786
1325.766189719963,1325.766189719963,0.9999515227956237,0.0001649826525601767
1325.7731341332346,1325.7731341332346,1.0001784617975198,0.00016500852187191397
1325.780078546622,1325.780078546622,1.0001266926657477,0.00016499853205505935
1325.787022960109,1325.787022960109,0.999921257631355,0.00016498655830248491
1325.7939673737003,1325.7939673737003,0.999561713766534,0.00016496266107833394
1325.8009117873905,1325.8009117873905,1.0000340225478868,0.0001649952551047465
1325.8078562011801,1325.8078562011801,1.000089728293314,0.00016496394408639233
1325.8148006150736,1325.8148006150736,0.999768486227602,0.00016492368550609715
1325.8217450290672,1325.8217450290672,0.9998837227031728,0.00016492097068549616
1325.828689443159,1325.828689443159,1.0000952201336957,0.00016490569103377653
1325.8356338573383,1325.8356338573383,1.0000435092218507,0.0001648828437851937
1325.8425782716226,1325.8425782716226,1.0002445046673458,0.00016487463916039122
1325.8495226859936,1325.8495226859936,0.9999504583719219,0.0001648203167365134
1325.85646710047,1325.85646710047,1.0005392167568201,0.00016483548692642133
1325.8634115150276,1325.8634115150276,1.000010283277472,0.00016478356851194385
1325.8703559296782,1325.8703559296782,1.0002783414278937,0.00016476106937430703
1325.877300344434,1325.877300344434,1.0001002361989575,0.00016471798913111075
1325.8842447592592,1325.8842447592592,0.9999943493843997,0.00016466858551307618
1325.891189174184,1325.891189174184,0.9998303403655602,0.00016459794289085678
1325.8981335892008,1325.8981335892008,0.9994974461841851,0.0001645616247146324
1325.9050780042942,1325.9050780042942,0.9995345108361899,0.00016450911216299902
1325.9120224194805,1325.9120224194805,0.9997988932619737,0.00016451065180433287
1325.918966834748,1325.918966834748,0.9993931258422709,0.00016441457566205943
1325.9259112501036,1325.9259112501036,0.9994540793135629,0.0001644224267112599
1325.9328556655455,1325.9328556655455,1.0000825752094114,0.0001644353494051101
1325.939800081052,1325.939800081052,1.001741151175034,0.00016453486788343047
1325.9467444966574,1325.9467444966574,1.0003564622144987,0.00016440394958681278
1325.9536889123326,1325.9536889123326,1.0012170554420614,0.00016444837424923084
1325.961188881366,1325.961188881366,1.002113585950924,0.0001645243595022031
1325.968966627121,1325.968966627121,1.0009100904891415,0.00016443241800148006
1325.9759110430407,1325.9759110430407,1.0008389496005399,0.00016450229851047547
1325.9828554590533,1325.9828554590533,0.9997021886121683,0.0001644180117107193
1325.989799875142,1325.989799875142,0.9994075981616215,0.0001644248460371783
1325.9967442913062,1325.9967442913062,0.9995562519089344,0.0001644980185327061
1326.00368870754,1326.00368870754,0.9994896486375848,0.0001645285816469667
1326.0106331238499,1326.0106331238499,0.9998233334266882,0.00016459505818094034
1326.0175775402295,1326.0175775402295,0.9997794312091177,0.00016460220585316407
1326.0245219566846,1326.0245219566846,0.9999900512125007,0.00016467040309755719
1326.0314663732097,1326.0314663732097,0.999897478930795,0.00016470523766767757
1326.0384107898103,1326.0384107898103,1.0001643974579943,0.00016472715284635548
1326.0453552064696,1326.0453552064696,1.000494439624643,0.00016475423093258417
1326.0522996232035,1326.0522996232035,1.0001311788676281,0.0001647536323087971
1326.0592440400083,1326.0592440400083,0.9999657024497711,0.0001647794367006963
1326.0661884568767,1326.0661884568767,1.0000721528922298,0.00016481896147344324
1326.0731328738207,1326.0731328738207,1.0001300331807648,0.00016483283292636775
1326.0800772908178,1326.0800772908178,1.0000286595131893,0.00016484218157695514
1326.0870217078955,1326.0870217078955,0.9997484119163541,0.00016484683791853817
1326.0939661250263,1326.0939661250263,0.9999958365315293,0.00016489021067379867
1326.1009105422263,1326.1009105422263,1.0000357631835382,0.00016492505326429083
1326.1078549594906,1326.1078549594906,0.9999943223958677,0.00016493841519200014
1326.1147993768188,1326.1147993768188,0.9999958624872299,0.00016496459570376738
1326.1217437942053,1326.1217437942053,1.0000746500183715,0.00016495917202420757
1326.1286882116617,1326.1286882116617,1.000174185538981,0.00016499130493726112
1326.1356326291648,1326.1356326291648,1.0000639447147293,0.00016500416005424485
1326.1425770467376,1326.1425770467376,0.9999345151707997,0.00016501097752262013
1326.1495214643687,1326.1495214643687,0.9997573351439162,0.00016498731456182804
1326.1564658820575,1326.1564658820575,0.9998548488166925,0.00016501044227186683
1326.1634102998055,1326.1634102998055,0.9997271875398512,0.00016500499949360776
1326.1703547176107,1326.1703547176107,1.0001924381618932,0.00016504917689646515
1326.1772991354746,1326.1772991354746,1.0001522516936845,0.00016502417925234186
1326.1842435533968,1326.1842435533968,1.0000833450624844,0.00016502171402162544
1326.1911879713648,1326.1911879713648,1.0000661482353845,0.00016497807162341199
1326.198132389398,1326.198132389398,1.0000244354421175,0.00016498193010685156
1326.2050768074828,1326.2050768074828,0.9999717289906019,0.00016498773850950714
1326.2120212256207,1326.2120212256207,0.9999891667064444,0.0001649745619097208
1326.218965643816,1326.218965643816,0.9998570297904671,0.00016490527513999718
1326.2259100620638,1326.2259100620638,0.9999234020294372,0.0001648946629525991
1326.2328544803586,1326.2328544803586,0.9999969173282495,0.00016488412767332928
1326.2397988987111,1326.2397988987111,0.9998355886875483,0.0001648287526243776
1326.2467433171164,1326.2467433171164,0.9999154239557984,0.00016480353842732637
1326.253687735574,1326.253687735574,1.0001332974425623,0.000164824332958503
1326.2606321540784,1326.2606321540784,1.0000015393288995,0.00016476475872324257
1326.2675765726287,1326.2675765726287,0.9999956147378077,0.00016474141038138611
1326.274520991226,1326.274520991226,1.0000846325064163,0.0001647301670727564
1326.2814654098818,1326.2814654098818,1.0001516017956902,0.00016469145483444234
1326.2884098285892,1326.2884098285892,0.9998609842325376,0.00016465389421685671
1326.295354247332,1326.295354247332,0.9997874213374012,0.00016462152104981248
1326.302298666127,1326.302298666127,0.9998624218138566,0.00016463300883121223
1326.3092430849692,1326.3092430849692,1.0002622226239117,0.00016464400819422699
1326.316187503869,1326.316187503869,1.0001069240896165,0.00016463605389836037
1326.3231319228037,1326.3231319228037,1.0001013924960125,0.00016463473919338975
1326.3300763417742,1326.3300763417742,0.9999019872045164,0.00016458437458540196
1326.3370207608016,1326.3370207608016,0.9996643723495598,0.00016460690975466757
1326.3439651798703,1326.3439651798703,1.000304164441039,0.0001646287519818781
1326.3536873666471,1326.3536873666471,0.9999202301698558,0.00016461574534050184
1326.3606317858203,1326.3606317858203,0.9998716434054327,0.0001646250003582909
1326.3675762050348,1326.3675762050348,1.0002328698551461,0.00016468897645606725
1326.3745206243009,1326.3745206243009,1.0002000508898174,0.00016468943620666766
1326.381465043603,1326.381465043603,0.9999841019673099,0.0001646779430642742
1326.3884094629452,1326.3884094629452,0.9998469215704591,0.00016467483418281445
1326.395353882334,1326.395353882334,0.9999208086195368,0.0001647089849747215
1326.402298301764,1326.402298301764,0.9998658250603748,0.00016470248321773278
1326.4092427212286,1326.4092427212286,0.9995156422837723,0.00016467424679148402
1326.4161871407337,1326.4161871407337,1.0002097985567695,0.00016475946679003834
1326.4231315602797,1326.4231315602797,0.9999088293086515,0.00016476124159713672
1326.4300759798664,1326.4300759798664,1.0002992030457971,0.00016478431457194224
1326.4370203994938,1326.4370203994938,1.0002299952855362,0.00016481545863467062
1326.4439648191567,1326.4439648191567,1.0003176853479814,0.00016483205013562464
1326.4509092388596,1326.4509092388596,1.0000691615046517,0.0001648265220376705
1326.4578536585975,1326.4578536585975,0.9997430116089558,0.00016482084704179167
1326.4647980783707,1326.4647980783707,0.9998010456227149,0.00016480947216365147
1326.4717424981845,1326.4717424981845,0.9997259531473327,0.00016486438244249496
1326.4786869180332,1326.4786869180332,1.0001012881630753,0.0001649093998342617
1326.4856313379228,1326.4856313379228,0.9999702557836828,0.00016491951502358473
1326.4925757578528,1326.4925757578528,1.0000813512723608,0.00016495837907516345
1326.4995201778067,1326.4995201778067,1.0001394541353144,0.00016499136364253518
1326.5064645977886,1326.5064645977886,1.0000661990374002,0.00016501045793816847
1326.5134090178183,1326.5134090178183,1.0000666868955617,0.0001650004107382183
1326.5203534378766,1326.5203534378766,0.9998692670499276,0.00016502173922952344
1326.52729785797,1326.52729785797,1.0002265889212771,0.0001650941009539219
1326.5342422781036,1326.5342422781036,0.9999841438697687,0.0001650777367335496
1326.5411866982608,1326.5411866982608,0.9999642778573385,0.00016510797329693733
1326.5481311184587,1326.5481311184587,0.9999005189589829,0.00016513771783587347
1326.555075538686,1326.555075538686,0.999881078613349,0.00016515054327488914
1326.562019958948,1326.562019958948,0.9998657626097316,0.00016515590307769954
1326.5689643792389,1326.5689643792389,1.0001737323474211,0.00016516982847000796
1326.5759087995652,1326.5759087995652,0.9997828854605372,0.00016516106440146304
1326.5828532199198,1326.5828532199198,0.9999839811063111,0.00016517150685804738
1326.5897976402985,1326.5897976402985,0.9999894378280153,0.00016518337561704767
1326.5967420607178,1326.5967420607178,1.00018751203948,0.00016519983398569912
1326.6036864811604,1326.6036864811604,1.0002032402903573,0.00016517822496289752
1326.6106309016436,1326.6106309016436,1.000057002867041,0.0001651606760932574
1326.617575322144,1326.617575322144,1.0000139940739272,0.0001651627454047061
1326.6245197426795,1326.6245197426795,0.9996682527726186,0.0001651150154357933
1326.63146416325,1326.63146416325,0.9997651507154943,0.00016510340801614634
1326.6384085838379,1326.6384085838379,0.9999469526235721,0.00016508674250677687
1326.6453530044669,1326.6453530044669,1.0002109463718476,0.00016511673709611015
1326.6522974251131,1326.6522974251131,1.0000124365473877,0.0001650522741371508
1326.6592418457885,1326.6592418457885,0.999963046449355,0.00016504301624721974
1326.666186266504,1326.666186266504,0.9998766569303896,0.000165006841013753
1326.673130687232,1326.673130687232,1.0001835673574473,0.00016497844261726
1326.6800751079945,1326.6800751079945,0.9998365711797526,0.00016489363973442483
1326.6878528592856,1326.6878528592856,1.0000564461235872,0.00016487814760445988
1326.6953528337665,1326.6953528337665,0.9999680732553367,0.00016484888383570386
1326.7022972546104,1326.7022972546104,0.9999580497842165,0.00016480388294543518
1326.7095194523285,1326.7095194523285,0.9997585833759928,0.00016478970620990141
1326.7175749805688,1326.7175749805688,1.000356868668132,0.00016477079477149613
1326.7245194014945,1326.7245194014945,1.0000437084834535,0.00016474448924315394
1326.7314638224432,1326.7314638224432,1.0000713020807905,0.00016473693749263692
1326.7384082434269,1326.7384082434269,1.000059914153955,0.00016470861988163898
1326.7453526644344,1326.7453526644344,1.0002923712856893,0.00016471098190617487
1326.752297085458,1326.752297085458,0.9999763574037747,0.00016470534045140986
1326.759241506518,1326.759241506518,0.9998454674654716,0.0001646939978158228
1326.7661859275888,1326.7661859275888,1.000136924558174,0.00016471674838177625
1326.7731303486835,1326.7731303486835,1.0002225368329918,0.0001647410561818117
1326.780074769807,1326.780074769807,0.9997184788337403,0.00016469674307439705
1326.7870191909594,1326.7870191909594,1.0000452937258872,0.00016475269689318972
1326.7939636121296,1326.7939636121296,1.0001460306016852,0.000164771290907371
1326.8009080333227,1326.8009080333227,0.9997253232505896,0.00016474822986658867
1326.8078524545394,1326.8078524545394,0.999530780292624,0.00016474659238116795
1326.8147968757673,1326.8147968757673,1.0001714106768176,0.0001648060291632876
1326.821741297031,1326.821741297031,0.9998813380929304,0.00016479662973914919
1326.8286857183114,1326.8286857183114,0.9999357806270476,0.00016477910441188912
1326.8356301396154,1326.8356301396154,1.0004589713267593,0.00016484228624880532
1326.8425745609427,1326.8425745609427,0.9998962867253542,0.0001648008061584692
1326.8495189822875,1326.8495189822875,1.0001458598894437,0.0001648285885494576
1326.8564634036493,1326.8564634036493,1.0003367613654204,0.00016487427997296053
1326.8634078250466,1326.8634078250466,1.0002023779063056,0.0001648459849314429
1326.8703522464552,1326.8703522464552,0.9998917859936508,0.00016484433598407691
1326.8772966678755,1326.8772966678755,1.000059296967745,0.0001648848289511041
1326.884241089319,1326.884241089319,0.99963176836424,0.00016482090124694666
1326.8911855107917,1326.8911855107917,0.999997134230077,0.0001648560938405267
1326.8981299322763,1326.8981299322763,0.9999836291463808,0.00016489289799882524
1326.9050743537837,1326.9050743537837,1.0002620932121509,0.00016492795296508116
1326.9120187753147,1326.9120187753147,1.000001303291719,0.0001648765176876813
1326.9189631968688,1326.9189631968688,0.9997826990651589,0.00016489892158698334
1326.925907618423,1326.925907618423,0.9999751481370946,0.00016489011567002228
1326.9328520400009,1326.9328520400009,1.0001635520471932,0.00016490281157525267
1326.9397964616014,1326.9397964616014,0.999822393284074,0.00016487621080980242
1326.9467408832256,1326.9467408832256,1.000082953988995,0.0001648994532564406
1326.9536853048612,1326.9536853048612,0.9997044286825302,0.0001648910126071855
1326.9606297265202,1326.9606297265202,1.0004163157259958,0.0001649338087978798
1326.9675741481908,1326.9675741481908,0.999957518971683,0.0001649164428356072
1326.9745185698844,1326.9745185698844,0.9999854673982149,0.00016488505097979832
1326.9814629915904,1326.9814629915904,1.0001281378098725,0.00016492440716570393
1326.988407413319,1326.988407413319,1.0000684630897203,0.00016488214305972198
1326.9953518350599,1326.9953518350599,0.9997308066323323,0.0001648282690207789
1327.0022962568232,1327.0022962568232,0.999804420243424,0.0001648839440443474
1327.0092406785986,1327.0092406785986,0.9999361733640318,0.0001648620994256825
1327.0161851003916,1327.0161851003916,0.9999242331393635,0.00016487194445068004
1327.023129522202,1327.023129522202,1.0005703713586027,0.00016488901667922326
1327.0300739440358,1327.0300739440358,0.9999924620905245,0.00016484576058778397
1327.0370183658808,1327.0370183658808,0.9999154557618046,0.00016481515757946612
1327.0439627877263,1327.0439627877263,0.9997471099331736,0.00016477072079124533
1327.050907209606,1327.050907209606,0.9999616981670687,0.00016472880426248444
