time,time,flux,flux_err
1325.2994748478714,1325.2994748478714,1.0001434902392874,0.0004564384370328824
1325.307808085958,1325.307808085958,0.9996611143041099,0.00045655500452548197
1325.316141324322,1325.316141324322,1.0006930334628172,0.00045677438547778285
1325.3244745629665,1325.3244745629665,0.9995779933431103,0.00045670757861067987
1325.3321133652912,1325.3321133652912,1.0000514389757134,0.00041710674416843834
1325.3390577312339,1325.3390577312339,0.9997379749543004,0.00041724525452271845
1325.3460020973748,1325.3460020973748,0.9999469341690492,0.00041738913384979485
1325.3529464636838,1325.3529464636838,0.9994459066832302,0.0004175119561657956
1325.3598908301851,1325.3598908301851,1.0006462510859078,0.0004179369054965498
1325.3668351968674,1325.3668351968674,0.9999958463994888,0.00041807419245429967
1325.3737795637412,1325.3737795637412,0.9996124851454804,0.00041813857942788667
1325.3807239307782,1325.3807239307782,1.0002396703454628,0.00041851161688004015
1325.3876682980012,1325.3876682980012,1.0008197903767009,0.00041890899824386356
1325.3946126653987,1325.3946126653987,1.0000259251084729,0.0004189819983369471
1325.4015570329655,1325.4015570329655,0.9996977979829305,0.0004191113785095834
1325.4085014007064,1325.4085014007064,0.9995911724075841,0.0004193063466902923
1325.4154457686225,1325.4154457686225,0.9999088561419874,0.00041958561219503375
1325.4223901367072,1325.4223901367072,0.999977675983677,0.00041981837146189485
1325.4293345049723,1325.4293345049723,0.9997465515265628,0.0004199774686444114
1325.4362788733886,1325.4362788733886,1.000240711890362,0.00042028498801491965
1325.4432232419738,1325.4432232419738,1.0000262190716203,0.00042042937069814806
1325.450167610728,1325.450167610728,1.0004740305369606,0.00042070987901833757
1325.4571119796333,1325.4571119796333,1.000327787117329,0.00042085348686568796
1325.4640563487073,1325.4640563487073,0.9999652852554639,0.00042101321827786933
1325.4710007179444,1325.4710007179444,0.9994421204991923,0.0004211316339973644
1325.477945087333,1325.477945087333,0.999825489207861,0.0004213930337696927
1325.4848894568843,1325.4848894568843,0.999868602890953,0.0004216870038358496
1325.4918338265816,1325.4918338265816,0.9998478695273508,0.00042190890304375097
1325.4987781964473,1325.4987781964473,0.999877373590877,0.0004221825888987635
1325.5057225664586,1325.5057225664586,1.0002547269822557,0.00042245769868268993
1325.5126669366211,1325.5126669366211,1.0003962664438313,0.000422706327289392
1325.5196113069353,1325.5196113069353,1.0000038991113078,0.0004229222527937714
1325.5265556773948,1325.5265556773948,0.9996036477822805,0.0004230282532669687
1325.5335000479997,1325.5335000479997,1.000162559977485,0.0004234026909612468
1325.540444418756,1325.540444418756,0.9998601073371886,0.0004236306259802222
1325.5473887896524,1325.5473887896524,0.9998175393124324,0.00042375243395907766
1325.5543331606937,1325.5543331606937,1.0004895644983498,0.00042411116031006114
1325.5612775318752,1325.5612775318752,0.9996362947724184,0.00042421816937962775
1325.5682219031962,1325.5682219031962,1.0006289531452075,0.00042468158662226725
1325.5751662746566,1325.5751662746566,0.9993675540855762,0.0004246584268941528
1325.5821106462577,1325.5821106462577,1.0009332361225425,0.000425160721844893
1325.5890550179909,1325.5890550179909,0.9997048447012414,0.00042510235534596577
1325.5959993898596,1325.5959993898596,1.0001403899008017,0.0004254012053031158
1325.6029437618556,1325.6029437618556,0.9996658740791684,0.0004254649369734493
1325.6098881339974,1325.6098881339974,0.9994763025634189,0.00042562938942105325
1325.6168325062556,1325.6168325062556,1.0000698692921663,0.00042584612955264115
1325.6237768786534,1325.6237768786534,0.9997528123242203,0.0004258753110303299
1325.6307212511733,1325.6307212511733,1.0003873501002734,0.00042605120007349194
1325.6376656238276,1325.6376656238276,1.0002364525028729,0.0004261300382586127
1325.6446099965974,1325.6446099965974,1.000350174347781,0.00042621335165974033
1325.6515543695018,1325.6515543695018,1.0001168817727035,0.00042625614356483707
1325.6584987425226,1325.6584987425226,0.9997652183083987,0.0004262497790842619
1325.6654431156771,1325.6654431156771,0.9998963238663713,0.00042628928382496727
1325.672387488942,1325.672387488942,1.0000351642987173,0.0004263339989524365
1325.6793318623238,1325.6793318623238,0.9996834264402356,0.00042644156308227417
1325.6862762358219,1325.6862762358219,0.9998826336821418,0.0004264606431439198
1325.693220609459,1325.693220609459,0.9997107212199108,0.00042650278127210115
1325.7001649831964,1325.7001649831964,1.0000425258463157,0.0004267123052748272
1325.7071093570432,1325.7071093570432,1.0000535390282765,0.00042682854163804943
1325.7140537310127,1325.7140537310127,1.0000766501995317,0.00042695896172463235
1325.7209981050867,1325.7209981050867,1.0003820675704633,0.00042715896363739364
1325.7279424792773,1325.7279424792773,1.0001359581168154,0.00042719094170980273
1325.7348868535787,1325.7348868535787,0.9999571346105448,0.0004273768278388604
1325.7418312279963,1325.7418312279963,1.0002582109863198,0.0004276267787152722
1325.7487756025068,1325.7487756025068,1.0002639763239811,0.00042773137574534504
1325.7557199771343,1325.7557199771343,0.9993647867233666,0.00042781757891015564
1325.762664351872,1325.762664351872,0.9998597293583666,0.00042805441823459976
1325.7696087267086,1325.7696087267086,0.99995041737884,0.00042832045202268723
1325.7765531016444,1325.7765531016444,0.9996462903220322,0.0004284278670020823
1325.7834974766906,1325.7834974766906,1.0004433328004327,0.0004287483855815695
1325.790441851836,1325.790441851836,0.999827501936046,0.00042883329598451743
1325.7973862270915,1325.7973862270915,0.9995836403917405,0.00042894422174222723
1325.804330602435,1325.804330602435,1.0004975661961804,0.0004291944191438392
1325.8112749778768,1325.8112749778768,1.000340435134677,0.0004292859484838473
1325.818219353424,1325.818219353424,1.000612287168764,0.00042948312891662166
1325.825163729058,1325.825163729058,0.9995625848707388,0.00042941960215882633
1325.8321081047911,1325.8321081047911,1.0000513143072278,0.0004296746451809604
1325.839052480629,1325.839052480629,1.0000705382452626,0.00042973817831698746
1325.8459968565542,1325.8459968565542,0.9992614983505508,0.0004296508907110829
1325.8529412325665,1325.8529412325665,0.9997723259561896,0.00042973902532746295
1325.8598856086783,1325.8598856086783,1.0000365579592576,0.0004296141357339481
1325.8668299848712,1325.8668299848712,0.9998823618470288,0.0004296942322846487
1325.8737743611632,1325.8737743611632,1.0001483379026082,0.0004295522278609267
1325.8807187375423,1325.8807187375423,1.0006737827555403,0.00042953884004511174
1325.8876631140088,1325.8876631140088,0.9997328416457668,0.00042925431475100375
1325.8946074905684,1325.8946074905684,1.000280630727716,0.0004293224906817798
1325.9015518672038,1325.9015518672038,1.0002554685761358,0.0004291359176581481
1325.9084962439324,1325.9084962439324,0.9999010820778016,0.0004290645597818511
1325.915440620748,1325.915440620748,0.9998964120321896,0.0004289262860153557
1325.9223849976393,1325.9223849976393,1.000087923625903,0.00042899538366186616
1325.9293293746243,1325.9293293746243,0.9995684605281576,0.0004288799281301109
1325.9362737516726,1325.9362737516726,1.0000275595332322,0.00042895152536845887
1325.9432181288203,1325.9432181288203,0.9996760180656212,0.00042882241843319676
1325.9501625060439,1325.9501625060439,1.0000974016281816,0.00042884683483213304
1325.9571068833427,1325.9571068833427,0.9999570789242533,0.00042885566473007563
1325.9651623611112,1325.9651623611112,1.0000002371481298,0.0004288242384875938
1325.9723845136773,1325.9723845136773,0.9998781682274819,0.00042878148200845706
1325.979328891238,1325.979328891238,1.0000065260029425,0.0004289065050840276
1325.986273268863,1325.986273268863,1.0001835638048355,0.00042897301785362296
1325.993217646575,1325.993217646575,1.0002838425837415,0.0004290413928690828
1326.0001620243397,1326.0001620243397,0.9999074152213273,0.00042909598991754187
1326.0071064021972,1326.0071064021972,1.000605951249922,0.00042933329998167785
1326.0140507801193,1326.0140507801193,0.9993971188420628,0.00042935277426269723
1326.020995158111,1326.020995158111,1.0000828809572315,0.0004296053234396125
1326.0279395361872,1326.0279395361872,1.0004192007243693,0.0004298608849086073
1326.0348839143298,1326.0348839143298,0.9997007230035544,0.0004298082731568562
1326.0418282925364,1326.0418282925364,0.9995887067119515,0.0004298186503718415
1326.0487726708166,1326.0487726708166,0.9995893254088335,0.00042988829266622265
1326.0557170491657,1326.0557170491657,1.0007730870574238,0.0004301495113983061
1326.0626614275855,1326.0626614275855,1.000265398972334,0.00043015888827818824
1326.0696058060716,1326.0696058060716,0.999716106330839,0.0004301441403902718
1326.0765501846217,1326.0765501846217,0.9998711539312621,0.0004301974444485719
1326.0834945632394,1326.0834945632394,0.9997359442428394,0.0004302660354885054
1326.0904389419209,1326.0904389419209,0.9999444114867598,0.0004303273224209715
1326.097383320672,1326.097383320672,0.9996742271765381,0.0004304046394945409
1326.1043276994847,1326.1043276994847,1.0005422787742835,0.00043058576460179717
1326.1112720783603,1326.1112720783603,1.0002417015530347,0.00043053715739566485
1326.1182164572951,1326.1182164572951,0.9998940090315402,0.0004305751097001684
1326.1251608362993,1326.1251608362993,0.9997258911680553,0.0004305156911325591
1326.1321052153623,1326.1321052153623,1.0004697137501424,0.00043067516032726215
1326.139049594483,1326.139049594483,1.0001929559692297,0.000430605903777933
1326.145993973671,1326.145993973671,0.999836057323645,0.0004306142737000639
1326.152938352911,1326.152938352911,0.9998934930871546,0.000430628239816521
1326.159882732209,1326.159882732209,0.9993644230581029,0.0004305214704241569
1326.1668271115745,1326.1668271115745,1.0000701094243183,0.0004307083357684827
1326.173771490989,1326.173771490989,0.9998747275827187,0.00043061633359732434
1326.1807158704682,1326.1807158704682,1.0005401235393703,0.00043075596728361064
1326.1876602499992,1326.1876602499992,1.0001619771538988,0.0004306682558908432
1326.1946046295886,1326.1946046295886,1.000183816225189,0.0004306958418707981
1326.2015490092333,1326.2015490092333,1.00013608444268,0.00043075873867402353
1326.2084933889332,1326.2084933889332,1.0000578397709396,0.0004307064790557478
1326.2154377686916,1326.2154377686916,0.9995625418470006,0.0004306274363547781
1326.2223821484934,1326.2223821484934,0.9997231681572305,0.0004306133153438858
1326.2293265283563,1326.2293265283563,0.9996782727335726,0.00043065469303662845
1326.2362709082686,1326.2362709082686,1.0002273633167644,0.00043071527013760675
1326.2432152882361,1326.2432152882361,0.9997889141879532,0.0004306229817109154
1326.2501596682566,1326.2501596682566,1.0005626368716487,0.00043077923458353484
1326.257104048323,1326.257104048323,1.000137014612891,0.00043068879490410676
1326.2640484284452,1326.2640484284452,1.0000719717996713,0.00043069180565456517
1326.270992808614,1326.270992808614,0.999845960077546,0.00043057956346682707
1326.2779371888316,1326.2779371888316,0.9999168668569764,0.0004306009006439635
1326.2848815691023,1326.2848815691023,0.9998153513552188,0.00043056333764119784
1326.2918259494222,1326.2918259494222,0.9997462761276047,0.0004305080303960743
1326.298770329786,1326.298770329786,1.000522581130666,0.0004306052139677334
1326.3057147102013,1326.3057147102013,0.9997813099689477,0.0004305167526910815
1326.3126590906616,1326.3126590906616,1.0001841161138223,0.00043066398504432065
1326.3196034711673,1326.3196034711673,0.9997033260291823,0.00043060286359081635
1326.3265478517258,1326.3265478517258,0.9997455863272181,0.0004307355451082166
1326.3334922323252,1326.3334922323252,1.0003077774751523,0.0004308053932963859
1326.3404366129653,1326.3404366129653,1.0004815200102102,0.00043087603703227065
1326.3484920945787,1326.3484920945787,0.999894482815866,0.00043091516157347674
1326.3571031266968,1326.3571031266968,1.0000619067640293,0.0004310802318237943
1326.3640475074942,1326.3640475074942,1.0001844678533027,0.0004311346634081504
1326.3709918883349,1326.3709918883349,0.9998303902701906,0.00043115249197589304
1326.3779362692167,1326.3779362692167,0.9995936752259826,0.0004311553846804529
1326.384880650139,1326.384880650139,0.999895781298917,0.0004312711656584508
1326.3918250311049,1326.3918250311049,0.9996447699414158,0.00043130848918594407
1326.3987694121206,1326.3987694121206,0.9998855887855411,0.0004314035140212083
1326.4057137931648,1326.4057137931648,1.0004002519342279,0.00043152403136027817
1326.4126581742535,1326.4126581742535,0.9997989181130931,0.0004314757509873029
1326.4196025553822,1326.4196025553822,1.0004618204395501,0.0004316311846073402
1326.426546936555,1326.426546936555,1.000229891429724,0.00043164161111918404
1326.4334913177681,1326.4334913177681,0.9997446188173292,0.00043164629999088234
1326.4404356990167,1326.4404356990167,0.9999579891774071,0.00043174701770750426
1326.447380080303,1326.447380080303,1.0004335270773812,0.0004318770658593817
1326.4543244616295,1326.4543244616295,1.0000645807214403,0.00043184534609029703
1326.4612688429945,1326.4612688429945,1.000230758068465,0.0004319670676708316
1326.468213224397,1326.468213224397,0.9992026854832495,0.00043190904026324886
1326.4751576058343,1326.4751576058343,0.9999961872535147,0.00043212870979531534
1326.48210198731,1326.48210198731,0.999944686745555,0.00043214469863411966
1326.4890463688198,1326.4890463688198,0.9996298267622491,0.0004321355202070223
1326.495990750368,1326.495990750368,1.000452968133194,0.00043232580799049374
1326.5029351319508,1326.5029351319508,1.0003987539044075,0.0004324500765129931
1326.509879513572,1326.509879513572,0.9997000240575075,0.00043243133384593836
1326.5168238952276,1326.5168238952276,0.9999540408381495,0.00043253262524116636
1326.5237682769152,1326.5237682769152,0.9999607722743388,0.00043258427786037985
1326.530712658638,1326.530712658638,1.0000998493243778,0.0004326833174091493
1326.5376570403955,1326.5376570403955,1.0007151628100686,0.0004329224034404222
1326.5446014221886,1326.5446014221886,0.9992187556863688,0.00043287767146147824
1326.55154580401,1326.55154580401,0.9995503866324382,0.0004330744290769164
1326.5584901858667,1326.5584901858667,1.0000534068352918,0.0004331975217036118
1326.565434567758,1326.565434567758,1.00051624413063,0.0004333008693710407
1326.5723789496756,1326.5723789496756,1.0001091978186727,0.00043331764253112733
1326.5793233316313,1326.5793233316313,0.9998557965665666,0.00043327684171679226
1326.5862677136158,1326.5862677136158,1.0002279004598853,0.00043342699685017786
1326.59321209563,1326.59321209563,0.9998126548952623,0.0004333731928262756
1326.6001564776784,1326.6001564776784,0.999647432293577,0.00043337310162045904
1326.607100859756,1326.607100859756,1.0003873406846833,0.00043360302789612894
1326.6140452418604,1326.6140452418604,0.9994145685276228,0.00043353368552983933
1326.6209896240016,1326.6209896240016,1.0001633063122177,0.00043367844494036727
1326.62793400617,1326.62793400617,1.0000106460821443,0.00043370966691686435
1326.634878388367,1326.634878388367,1.0007408889373832,0.00043387536836537245
1326.6418227705904,1326.6418227705904,1.0000168801227396,0.0004336771137266789
1326.6487671528455,1326.6487671528455,1.0005614027424128,0.00043373666535067077
1326.655711535127,1326.655711535127,0.9992645793190725,0.0004335799188601038
1326.6626559174379,1326.6626559174379,1.0003356710325022,0.00043365492046134853
1326.6696002997774,1326.6696002997774,0.9987498287521539,0.00043323818200047764
1326.6765446821464,1326.6765446821464,0.9997435086866296,0.00043336487797666104
1326.6834890645441,1326.6834890645441,1.000043521996133,0.00043332050992244303
1326.6918223234472,1326.6918223234472,1.0013018553875415,0.00043339371412364576
1326.6987667059004,1326.6987667059004,0.9997982416731708,0.00043302144590869773
1326.7057110883766,1326.7057110883766,1.0002796725937042,0.00043299234917026127
1326.713488796789,1326.713488796789,1.000535478483801,0.0004329085278133482
1326.7209887299227,1326.7209887299227,0.9998780785783538,0.0004327389412562864
1326.7279331124864,1326.7279331124864,1.0003751477623406,0.0004327004381786917
1326.7348774950733,1326.7348774950733,0.9994111564659066,0.0004324622151080851
1326.7418218776868,1326.7418218776868,0.9993987132160541,0.0004323359533020924
1326.7487662603203,1326.7487662603203,1.0003492122916118,0.0004325065888120164
1326.7557106429829,1326.7557106429829,1.000526611298525,0.00043241880418612053
1326.7626550256718,1326.7626550256718,0.9997611569459528,0.00043223139627339945
1326.7695994083783,1326.7695994083783,1.000090317672223,0.00043226151205535604
1326.776543791108,1326.776543791108,0.9996385655314745,0.00043209595026466526
1326.783488173864,1326.783488173864,1.0005396315713444,0.00043235243368659965
1326.7904325566435,1326.7904325566435,0.9996451635898426,0.0004321568847357531
1326.7973769394484,1326.7973769394484,1.0001170243760633,0.00043217105627045923
1326.8043213222718,1326.8043213222718,0.9998578924296316,0.0004322011688077977
1326.8112657051201,1326.8112657051201,1.0001484069948838,0.00043221794569941904
1326.8182100879897,1326.8182100879897,0.9997768423012324,0.00043219737010039423
1326.8251544708824,1326.8251544708824,1.000680034277198,0.00043226253487734683
1326.8320988537985,1326.8320988537985,0.9991906266548318,0.00043204865631320846
1326.8390432367291,1326.8390432367291,1.0003914314050224,0.00043220132340283257
1326.8459876196855,1326.8459876196855,0.999853261137094,0.0004321214887149279
1326.8529320026598,1326.8529320026598,0.9999874580933316,0.00043209566224487766
1326.8598763856603,1326.8598763856603,1.0001918006975354,0.0004319692998049778
1326.866820768681,1326.866820768681,0.9996934515784537,0.00043186596527016894
1326.8737651517192,1326.8737651517192,0.9998306975947798,0.00043165043720183734
1326.8807095347806,1326.8807095347806,0.9996291104548203,0.0004315577683024124
1326.8876539178568,1326.8876539178568,1.0003320608072626,0.00043144066116502686
1326.8945983009528,1326.8945983009528,0.9996555540218187,0.00043120134636588593
1326.9015426840729,1326.9015426840729,0.9998599264383866,0.00043096802772500523
1326.90848706721,1326.90848706721,0.9997977166262026,0.0004307066756567171
1326.9154314503674,1326.9154314503674,1.0002905093658738,0.00043060802053302116
1326.9223758335424,1326.9223758335424,1.0003011197947176,0.0004303692084300344
1326.929320216735,1326.929320216735,0.9991411077387742,0.0004299414936460217
1326.9362645999477,1326.9362645999477,1.000603634122776,0.00043000139337262907
1326.9432089831776,1326.9432089831776,1.000174339906182,0.0004297314371523882
1326.9501533664259,1326.9501533664259,0.9998695539752755,0.0004294721948231759
1326.9570977496937,1326.9570977496937,0.9994971503221695,0.00042921980318033653
1326.9640421329768,1326.9640421329768,1.0004612446597307,0.0004291335040215693
1326.9709865162797,1326.9709865162797,0.9999191083434477,0.0004288939268533592
1326.9779308995971,1326.9779308995971,1.0001692504150763,0.00042875382052894577
1326.9848752829325,1326.9848752829325,0.9999984769335732,0.0004286007004012742
1326.991819666288,1326.991819666288,0.9996671929558065,0.0004284461955099977
1326.9987640496518,1326.9987640496518,0.9997358996170898,0.0004284032392265014
1327.0057084330394,1327.0057084330394,1.0000518780636283,0.00042835826683071713
1327.0126528164442,1327.0126528164442,1.0009755242696803,0.00042851196752804484
1327.019597199855,1327.019597199855,1.000040119651533,0.0004282864341738495
1327.0265415832919,1327.0265415832919,0.9993884442133361,0.00042818226387588646
1327.0334859667435,1327.0334859667435,1.0001542660878695,0.0004282580825110736
1327.0404303502094,1327.0404303502094,0.9995746417825245,0.00042818135861763946
1327.047374733687,1327.047374733687,1.0001407377876865,0.0004282541547623923
1327.054319117185,1327.054319117185,0.9997773555854812,0.00042821932336060254
1327.062374602058,1327.062374602058,1.0001371540127852,0.00042828867835403807
