time,time,flux,flux_err
1517.3504576819591,1517.3504576819591,,
1517.351846588892,1517.351846588892,,
1517.3532354958252,1517.3532354958252,,
1517.354624402757,1517.354624402757,,
1517.3574022168536,1517.3574022168536,,
1517.358791123787,1517.358791123787,,
1517.3601800307192,1517.3601800307192,,
1517.3615689378844,1517.3615689378844,1.0003598,0.0012430846
1517.362957844817,1517.362957844817,1.0105507,0.0012265166
1517.3657356589138,1517.3657356589138,1.0016246,0.0012008451
1517.3671245660798,1517.3671245660798,1.0014516,0.0011899782
1517.368513473245,1517.368513473245,0.99861926,0.0011803772
1517.3699023804097,1517.3699023804097,0.99849087,0.001171371
1517.3726801945086,1517.3726801945086,0.998629,0.0011557493
1517.3740691016733,1517.3740691016733,1.000384,0.0011488798
1517.3754580088385,1517.3754580088385,1.0016394,0.001142341
1517.3768469162364,1517.3768469162364,1.0023717,0.0011359164
1517.3782358234016,1517.3782358234016,1.0019491,0.0011294759
1517.3796247305668,1517.3796247305668,0.99998796,0.0011224496
1517.381013637732,1517.381013637732,1.0019258,0.0011165569
1517.3824025451302,1517.3824025451302,1.0029675,0.0011106833
1517.3837914522946,1517.3837914522946,1.0006713,0.0011046708
1517.3851803594607,1517.3851803594607,0.9999986,0.0010986571
1517.3865692668594,1517.3865692668594,1.0031748,0.0010939561
1517.3879581742567,1517.3879581742567,0.999501,0.0010878274
1517.3893470814214,1517.3893470814214,1.0002214,0.0010830958
1517.39073598882,1517.39073598882,1.0017437,0.001077519
1517.3921248962188,1517.3921248962188,0.99989814,0.0010723482
1517.3935138033835,1517.3935138033835,1.0008366,0.0010674421
1517.3949027107815,1517.3949027107815,1.0078827,0.0010622462
1517.3962916181795,1517.3962916181795,1.0017233,0.0010577493
1517.3976805255775,1517.3976805255775,1.001536,0.0010531715
1517.4004583403737,1517.4004583403737,0.99979174,0.001044874
1517.4018472480047,1517.4018472480047,1.0019426,0.0010406147
1517.4032361554018,1517.4032361554018,1.0005713,0.0010358422
1517.4046250628007,1517.4046250628007,1.0002289,0.001031731
1517.4060139701996,1517.4060139701996,1.0018754,0.00102755
1517.4074028778296,1517.4074028778296,1.0041157,0.0010232776
1517.4087917852275,1517.4087917852275,1.0008328,0.0010190174
1517.4101806928593,1517.4101806928593,1.0007172,0.0010146615
1517.4115696002573,1517.4115696002573,1.0002563,0.0010105919
1517.4129585078877,1517.4129585078877,0.9990428,0.0010062663
1517.4143474152856,1517.4143474152856,1.0012813,0.0010028144
1517.4157363229165,1517.4157363229165,0.9997371,0.0009983866
1517.4171252305473,1517.4171252305473,1.0005037,0.0009946022
1517.418514138179,1517.418514138179,1.0000815,0.0009913116
1517.419903045577,1517.419903045577,1.0014765,0.0009873286
1517.4212919532074,1517.4212919532074,1.0020356,0.0009839821
1517.4226808608373,1517.4226808608373,1.0004592,0.0009801135
1517.424069768469,1517.424069768469,1.0002126,0.00097656075
1517.4254586761008,1517.4254586761008,1.0025446,0.0009733473
1517.4268475837307,1517.4268475837307,1.0006813,0.000969876
1517.4282364915946,1517.4282364915946,1.0011395,0.0009663307
1517.429625399226,1517.429625399226,1.000627,0.00096318504
1517.431014306857,1517.431014306857,1.0011901,0.00096035696
1517.4324032144873,1517.4324032144873,0.9998414,0.00095679425
1517.433792122351,1517.433792122351,1.0003791,0.0009540647
1517.4351810299818,1517.4351810299818,1.0000286,0.00095051905
1517.4365699378454,1517.4365699378454,1.000383,0.0009475392
1517.4379588454772,1517.4379588454772,1.0016114,0.0009447742
1517.4393477533408,1517.4393477533408,0.99832183,0.0009418421
1517.4407366609712,1517.4407366609712,0.99965644,0.0009388892
1517.4421255688349,1517.4421255688349,1.000235,0.0009362421
1517.4435144766994,1517.4435144766994,0.9994018,0.00093357224
1517.4449033843302,1517.4449033843302,0.9998599,0.0009309917
1517.446292292193,1517.446292292193,1.0014224,0.0009285166
1517.4476812000569,1517.4476812000569,1.000384,0.0009259147
1517.4490701079212,1517.4490701079212,1.001561,0.000923409
1517.4504590157849,1517.4504590157849,1.0013168,0.0009208266
1517.4518479236488,1517.4518479236488,1.0000756,0.0009182438
1517.4532368315126,1517.4532368315126,1.0015365,0.00091678964
1517.4546257393754,1517.4546257393754,1.0004206,0.0009141137
1517.456014647239,1517.456014647239,1.0011535,0.00091194117
1517.4574035551036,1517.4574035551036,1.0003043,0.00090963236
1517.4587924629673,1517.4587924629673,1.0013845,0.0009075377
1517.4601813710633,1517.4601813710633,1.0013138,0.0009052464
1517.461570278927,1517.461570278927,1.0019436,0.0009034528
1517.4629591867915,1517.4629591867915,0.999146,0.00090091
1517.464348094888,1517.464348094888,0.999551,0.00089944305
1517.465737002751,1517.465737002751,0.99803686,0.00089712394
1517.4671259106149,1517.4671259106149,1.0008308,0.00089541986
1517.4685148187118,1517.4685148187118,0.99951965,0.00089304213
1517.4699037268083,1517.4699037268083,1.0006782,0.00089148164
1517.4712926346722,1517.4712926346722,0.99960554,0.0008895161
1517.472681542769,1517.472681542769,1.0000693,0.0008876143
1517.4740704506316,1517.4740704506316,0.999623,0.0008856888
1517.475459358729,1517.475459358729,0.9993778,0.00088433287
1517.4768482668264,1517.4768482668264,0.9993196,0.000882303
1517.478237174922,1517.478237174922,1.0002506,0.000880577
1517.479626083018,1517.479626083018,0.9989816,0.0008788218
1517.4810149911145,1517.4810149911145,0.99994206,0.0008772666
1517.482403898979,1517.482403898979,1.0008153,0.00087595824
1517.4837928070756,1517.4837928070756,0.9996538,0.000873841
1517.485181715172,1517.485181715172,0.99865323,0.0008723666
1517.4865706235014,1517.4865706235014,0.9991697,0.0008706204
1517.4879595315979,1517.4879595315979,1.0000294,0.00086931617
1517.4893484396946,1517.4893484396946,1.00066,0.0008676227
1517.4907373477913,1517.4907373477913,0.9993256,0.0008657158
1517.4921262558878,1517.4921262558878,1.0006058,0.00086426985
1517.4935151639834,1517.4935151639834,0.9996216,0.00086279464
1517.4949040723136,1517.4949040723136,0.9993443,0.00086114346
1517.496292980411,1517.496292980411,0.9987229,0.0008602129
1517.4976818887394,1517.4976818887394,0.9983588,0.0008579271
1517.4990707968354,1517.4990707968354,0.99995536,0.00085706526
1517.500459704932,1517.500459704932,0.9992905,0.0008552338
1517.5018486132622,1517.5018486132622,0.9992811,0.0008537249
1517.5032375213586,1517.5032375213586,0.99882483,0.00085255515
1517.504626429688,1517.504626429688,0.9987815,0.00085105683
1517.5060153380173,1517.5060153380173,0.9997253,0.00085019274
1517.5074042461138,1517.5074042461138,1.0001614,0.0008485823
1517.508793154444,1517.508793154444,0.9987424,0.000846814
1517.5101820627733,1517.5101820627733,1.0003101,0.0008453962
1517.5115709711022,1517.5115709711022,0.99849945,0.0008441479
1517.512959879198,1517.512959879198,0.99965805,0.0008434257
1517.514348787528,1517.514348787528,1.0004013,0.0008418338
1517.5157376958582,1517.5157376958582,0.9993601,0.0008403262
1517.5171266041868,1517.5171266041868,1.0004535,0.0008390096
1517.5185155125164,1517.5185155125164,0.9998067,0.0008376681
1517.5199044208457,1517.5199044208457,1.0005234,0.00083647174
1517.521293329175,1517.521293329175,0.99918216,0.0008353829
1517.5226822375043,1517.5226822375043,1.0002697,0.0008339736
1517.5240711458337,1517.5240711458337,0.9995642,0.0008325224
1517.525460054163,1517.525460054163,0.99996275,0.0008314833
1517.5268489624925,1517.5268489624925,0.99926984,0.00083010335
1517.5282378710554,1517.5282378710554,0.9988274,0.00082882
1517.5296267793847,1517.5296267793847,0.9987063,0.00082791643
1517.5310156877135,1517.5310156877135,0.9985548,0.0008265255
1517.5324045960422,1517.5324045960422,1.0002124,0.0008258078
1517.533793504605,1517.533793504605,0.99864036,0.00082436757
1517.5351824129352,1517.5351824129352,0.99866027,0.00082323013
1517.5365713212639,1517.5365713212639,1.0000031,0.0008225586
1517.5379602298262,1517.5379602298262,1.0005974,0.00082169106
1517.5393491381556,1517.5393491381556,1.0000988,0.0008202718
1517.5407380467177,1517.5407380467177,1.0002098,0.00081917434
1517.542126955047,1517.542126955047,0.99911344,0.00081801595
1517.5435158636092,1517.5435158636092,1.0003788,0.00081678387
1517.5449047721713,1517.5449047721713,1.0014522,0.0008163903
1517.5462936805009,1517.5462936805009,1.0005049,0.00081529986
1517.5476825890637,1517.5476825890637,0.9995079,0.00081415806
1517.5490714976258,1517.5490714976258,1.000062,0.0008129257
1517.5504604059547,1517.5504604059547,0.99980384,0.00081187417
1517.5518493145169,1517.5518493145169,0.99785143,0.00081080804
1517.55323822308,1517.55323822308,0.999351,0.0008100889
1517.554627131642,1517.554627131642,0.9993015,0.00080918835
1517.5560160402038,1517.5560160402038,1.0009384,0.000808303
1517.557404948766,1517.557404948766,0.9992121,0.00080734503
1517.5587938570952,1517.5587938570952,1.0006696,0.0008067156
1517.5601827656574,1517.5601827656574,1.0010734,0.00080596516
1517.5615716742204,1517.5615716742204,0.99881655,0.0008048761
1517.5629605827826,1517.5629605827826,1.000656,0.00080385746
1517.564349491344,1517.564349491344,1.0002327,0.00080311776
1517.5657384001393,1517.5657384001393,0.99990857,0.00080204726
1517.5671273087019,1517.5671273087019,0.9997976,0.00080105517
1517.5685162172642,1517.5685162172642,0.99931073,0.0008004031
1517.5699051258257,1517.5699051258257,1.0009106,0.00079967943
1517.5712940343878,1517.5712940343878,1.0000209,0.0007991092
1517.572682942951,1517.572682942951,0.9999275,0.000797611
1517.5740718517459,1517.5740718517459,1.0020102,0.0007975309
1517.5754607603076,1517.5754607603076,0.9997708,0.0007962875
1517.5768496688697,1517.5768496688697,0.9999005,0.0007956106
1517.5782385776647,1517.5782385776647,1.0001863,0.00079494895
1517.5796274862269,1517.5796274862269,1.0004481,0.00079412386
1517.58101639479,1517.58101639479,1.0022192,0.00079382834
1517.582405303585,1517.582405303585,1.0001142,0.00079258817
1517.5837942121464,1517.5837942121464,0.9999392,0.0007917914
1517.585183120942,1517.585183120942,0.99956137,0.0007908415
1517.586572029505,1517.586572029505,1.0009421,0.00079047034
1517.5879609382994,1517.5879609382994,1.0007261,0.0007896152
1517.5893498468608,1517.5893498468608,0.9989995,0.0007886997
1517.5907387556558,1517.5907387556558,1.0000738,0.0007888586
1517.5921276644517,1517.5921276644517,1.001513,0.00078800047
1517.5935165730139,1517.5935165730139,0.9996711,0.0007867186
1517.5949054818088,1517.5949054818088,0.99947906,0.00078595185
1517.5962943906038,1517.5962943906038,0.9997326,0.00078553223
1517.5976832991655,1517.5976832991655,0.99983776,0.00078477425
1517.5990722079605,1517.5990722079605,1.0003887,0.00078400655
1517.6004611167564,1517.6004611167564,0.9991759,0.0007836866
1517.6018500255514,1517.6018500255514,0.99941355,0.0007827343
1517.6032389343459,1517.6032389343459,1.001186,0.0007823861
1517.6046278429085,1517.6046278429085,0.99928415,0.000781559
1517.6060167517044,1517.6060167517044,1.0006444,0.0007816557
1517.607405660499,1517.607405660499,0.99968815,0.000780721
1517.608794569293,1517.608794569293,0.9999322,0.00077973626
1517.610183478088,1517.610183478088,0.9988516,0.00077889743
1517.6115723868838,1517.6115723868838,1.0005726,0.0007789729
1517.6129612956788,1517.6129612956788,1.0004358,0.0007781962
1517.6143502044738,1517.6143502044738,0.99964696,0.00077768427
1517.615739113269,1517.615739113269,0.99974054,0.00077726
1517.6171280220633,1517.6171280220633,0.99956304,0.0007761677
1517.6185169308592,1517.6185169308592,0.99920684,0.0007758753
1517.6199058398877,1517.6199058398877,0.9996032,0.0007751465
1517.621294748682,1517.621294748682,1.0000883,0.0007746733
1517.6226836574765,1517.6226836574765,0.9998563,0.000774451
1517.624072566272,1517.624072566272,0.9994835,0.00077360315
1517.6254614750678,1517.6254614750678,1.0010518,0.00077341445
1517.6268503840952,1517.6268503840952,0.9989774,0.0007726188
1517.6282392928902,1517.6282392928902,0.9990105,0.0007724622
1517.6296282016851,1517.6296282016851,0.9995733,0.000771616
1517.631017110713,1517.631017110713,1.000261,0.00077159255
1517.632406019508,1517.632406019508,0.99849653,0.00077020004
1517.633794928303,1517.633794928303,1.0001006,0.0007703882
1517.635183837331,1517.635183837331,0.9993604,0.0007694925
1517.6365727461252,1517.6365727461252,1.0008292,0.00076938083
1517.637961655154,1517.637961655154,1.0001993,0.0007686719
1517.6393505639496,1517.6393505639496,1.0008792,0.000768053
1517.640739472744,1517.640739472744,1.0000547,0.0007677939
1517.6421283817713,1517.6421283817713,0.99979055,0.0007673001
1517.6435172907998,1517.6435172907998,1.00044,0.00076696865
1517.6449061995954,1517.6449061995954,1.0002685,0.00076650415
1517.6462951086228,1517.6462951086228,0.9989547,0.00076592475
1517.6476840174178,1517.6476840174178,0.9990472,0.00076544046
1517.6490729264456,1517.6490729264456,0.9990205,0.0007649037
1517.6504618352405,1517.6504618352405,0.99980617,0.0007648156
1517.6518507442693,1517.6518507442693,1.0002464,0.0007638925
1517.653239653297,1517.653239653297,0.9994576,0.000763575
1517.6546285623244,1517.6546285623244,0.9991537,0.0007633402
1517.6560174711185,1517.6560174711185,0.9995824,0.0007631436
1517.6574063801472,1517.6574063801472,0.99931645,0.0007623206
1517.658795289176,1517.658795289176,0.998396,0.0007617542
1517.6601841982028,1517.6601841982028,0.9990041,0.0007615343
1517.6615731069978,1517.6615731069978,1.0003586,0.00076110166
1517.6629620160265,1517.6629620160265,0.9991039,0.0007606656
1517.6643509250544,1517.6643509250544,0.99941367,0.0007600798
1517.6657398340817,1517.6657398340817,1.0016731,0.00076028774
1517.6671287431095,1517.6671287431095,0.9997572,0.0007596264
1517.6685176521373,1517.6685176521373,0.99983793,0.00075895456
1517.6699065611651,1517.6699065611651,1.000137,0.0007589713
1517.6712954701939,1517.6712954701939,1.0002214,0.00075817516
1517.6726843792217,1517.6726843792217,0.9981366,0.00075726426
1517.6740732880162,1517.6740732880162,1.0000978,0.000757046
1517.675462197043,1517.675462197043,0.99971265,0.0007567858
1517.6768511063046,1517.6768511063046,0.9988682,0.000756192
1517.6782400153334,1517.6782400153334,1.0012028,0.0007563833
1517.6796289243603,1517.6796289243603,0.9991579,0.0007557943
1517.6810178333883,1517.6810178333883,1.0002979,0.0007554814
1517.6824067424168,1517.6824067424168,1.0003413,0.0007549883
1517.6837956514446,1517.6837956514446,0.99954444,0.0007546984
1517.685184560472,1517.685184560472,0.99985325,0.00075409515
1517.6865734694998,1517.6865734694998,1.000846,0.00075404963
1517.6879623785276,1517.6879623785276,1.0002674,0.0007533857
1517.6893512877882,1517.6893512877882,1.0002396,0.00075294543
1517.690740196817,1517.690740196817,0.9990197,0.0007523824
1517.6921291058447,1517.6921291058447,1.0014827,0.0007525746
1517.693518014872,1517.693518014872,0.9990377,0.00075139874
1517.6949069239,1517.6949069239,1.0002356,0.00075166515
1517.6962958331615,1517.6962958331615,0.99994195,0.00075138477
1517.6976847421893,1517.6976847421893,0.9994652,0.0007502722
1517.6990736512162,1517.6990736512162,0.99878275,0.0007498714
1517.700462560477,1517.700462560477,0.99896026,0.0007494163
1517.7018514695055,1517.7018514695055,0.9999723,0.00074971037
1517.7032403785333,1517.7032403785333,0.99952924,0.0007488529
1517.7046292877942,1517.7046292877942,0.99978375,0.0007490045
1517.7060181968222,1517.7060181968222,0.99996644,0.00074835314
1517.707407106082,1517.707407106082,1.0008718,0.0007481864
1517.7087960151098,1517.7087960151098,0.9994209,0.00074724376
1517.7101849241385,1517.7101849241385,0.9989889,0.0007469484
1517.7115738333991,1517.7115738333991,0.9993196,0.0007468433
1517.7129627424265,1517.7129627424265,0.9992786,0.00074619043
1517.7143516516871,1517.7143516516871,1.0002509,0.0007462948
1517.7157405607159,1517.7157405607159,0.99952006,0.0007458209
1517.7171294699765,1517.7171294699765,0.9988766,0.0007454277
1517.7185183790036,1517.7185183790036,0.99908537,0.00074530847
1517.7199072882645,1517.7199072882645,0.99929565,0.0007445252
1517.7212961975256,1517.7212961975256,1.0000844,0.00074414175
1517.7226851065534,1517.7226851065534,1.0005299,0.00074464927
1517.7240740158143,1517.7240740158143,0.99958384,0.0007433407
1517.7254629248423,1517.7254629248423,0.9992678,0.0007431884
1517.726851834102,1517.726851834102,0.9997387,0.0007428193
1517.7282407433636,1517.7282407433636,0.9995355,0.0007424369
1517.7296296523923,1517.7296296523923,0.9989426,0.0007423044
1517.731018561652,1517.731018561652,0.99951637,0.00074149563
1517.7324074709122,1517.7324074709122,0.9998276,0.0007417607
1517.73379637994,1517.73379637994,1.0000468,0.00074121176
1517.7351852892016,1517.7351852892016,0.9994723,0.0007404638
1517.7365741984622,1517.7365741984622,0.9990519,0.00074006984
1517.7379631077229,1517.7379631077229,0.9996822,0.0007400012
1517.7393520167507,1517.7393520167507,0.9987222,0.0007395716
1517.7407409260113,1517.7407409260113,1.0005935,0.00073952007
1517.7421298352722,1517.7421298352722,0.99989694,0.0007391653
1517.743518744533,1517.743518744533,1.0004051,0.0007385348
1517.7449076537937,1517.7449076537937,0.9998655,0.00073828246
1517.7462965628206,1517.7462965628206,0.99901104,0.0007375578
1517.7476854720821,1517.7476854720821,0.9999636,0.0007378218
1517.7490743813437,1517.7490743813437,0.9999026,0.00073724927
1517.7504632906034,1517.7504632906034,0.9993211,0.0007368654
1517.7518521998636,1517.7518521998636,0.9995493,0.00073662424
1517.7532411091242,1517.7532411091242,0.9997869,0.0007363135
1517.7546300183858,1517.7546300183858,0.9993849,0.0007357545
1517.7560189276464,1517.7560189276464,0.99885064,0.0007354693
1517.757407836907,1517.757407836907,1.0000451,0.0007354141
1517.758796745935,1517.758796745935,1.0006253,0.0007353136
1517.7601856551955,1517.7601856551955,0.99944085,0.00073472457
1517.7615745644564,1517.7615745644564,0.9997641,0.0007345029
1517.7629634737173,1517.7629634737173,0.99909365,0.0007336136
1517.764352382978,1517.764352382978,0.9998409,0.000733566
1517.7657412922379,1517.7657412922379,0.99951607,0.0007335862
1517.7671302014992,1517.7671302014992,0.99879897,0.0007333129
1517.7685191107607,1517.7685191107607,0.9987808,0.0007324495
1517.7699080202535,1517.7699080202535,0.9998793,0.00073300424
1517.7712969295144,1517.7712969295144,0.9992149,0.00073213433
1517.772685838775,1517.772685838775,0.9987973,0.00073142856
1517.7740747480357,1517.7740747480357,1.0000743,0.0007316589
1517.7754636572963,1517.7754636572963,0.99944925,0.0007310947
1517.776852566557,1517.776852566557,0.9998961,0.00073116913
1517.7782414758176,1517.7782414758176,0.99917525,0.00073055853
1517.7796303850785,1517.7796303850785,1.000021,0.00073018705
1517.7810192943398,1517.7810192943398,0.99987435,0.00073030737
1517.7824082038333,1517.7824082038333,0.9991628,0.00072958646
1517.7837971130934,1517.7837971130934,0.9982226,0.0007287632
1517.7851860223534,1517.7851860223534,0.99958324,0.0007291101
1517.7865749316147,1517.7865749316147,1.0000324,0.00072896737
1517.7879638408763,1517.7879638408763,1.0000638,0.00072843605
1517.7893527501362,1517.7893527501362,0.9998498,0.00072808575
1517.79074165963,1517.79074165963,1.0009668,0.0007277953
1517.7921305688906,1517.7921305688906,0.9996154,0.00072752615
1517.7935194781512,1517.7935194781512,1.0007504,0.0007273178
1517.7949083874119,1517.7949083874119,0.9998822,0.00072758255
1517.7962972969053,1517.7962972969053,0.9986843,0.0007262389
1517.797686206166,1517.797686206166,0.99966294,0.00072614243
1517.7990751154268,1517.7990751154268,0.9998839,0.00072622544
1517.800464024921,1517.800464024921,0.99992716,0.0007257664
1517.8018529341816,1517.8018529341816,0.9990963,0.00072535896
1517.8032418434418,1517.8032418434418,0.9998366,0.0007252258
1517.804630752702,1517.804630752702,0.99990666,0.0007252738
1517.806019662196,1517.806019662196,0.999691,0.0007245852
1517.8074085714575,1517.8074085714575,1.0003772,0.00072450197
1517.8087974809505,1517.8087974809505,0.99890965,0.0007242366
1517.8101863902111,1517.8101863902111,1.0002892,0.0007240886
1517.8115752994718,1517.8115752994718,1.0011339,0.00072367955
1517.8129642089652,1517.8129642089652,0.9999156,0.0007234029
