time,time,flux,flux_err
1410.9115041668908,1410.9115041668908,1.0000879273328958,0.0003483951075424476
1410.9198376181685,1410.9198376181685,1.0000462874744327,0.00034834998912139587
1410.9281710690584,1410.9281710690584,0.9999061936315189,0.0003483749912906271
1410.9365045195593,1410.9365045195593,0.9998108082653046,0.00034833151668739454
1410.9441435156357,1410.9441435156357,0.9949309187678217,0.000317307264348586
1410.9510880572852,1410.9510880572852,0.9869622366520879,0.00031616779896385044
1410.9580325987492,1410.9580325987492,0.9853556086016096,0.0003159668755606806
1410.9658104847977,1410.9658104847977,0.9840021014993623,0.00031577246840448547
1410.9785884401222,1410.9785884401222,0.9840681498562208,0.0003155422527947935
1410.9899774865025,1410.9899774865025,0.9834587455566073,0.00031573041712912813
1410.9974775899984,1410.9974775899984,0.9841014805566356,0.0003156212817958947
1411.0094221985964,1411.0094221985964,0.9862196195494579,0.0003160095525178088
1411.0163667381978,1411.0163667381978,0.9872166523881504,0.0003162272142527248
1411.0233112776123,1411.0233112776123,0.9936428725097727,0.00031716111919399804
1411.0302558167484,1411.0302558167484,1.0000164702421788,0.00031805166227629204
1411.0372003556972,1411.0372003556972,1.0003992763874383,0.00031800184651957443
1411.0441448945535,1411.0441448945535,1.0002991186734165,0.0003180403610558202
1411.0516449961865,1411.0516449961865,1.0006918523147816,0.0003181277646031276
1411.059422879068,1411.059422879068,1.0000620555536426,0.000317879250321659
1411.0663674170864,1411.0663674170864,1.0002381172955153,0.0003180292207288181
1411.0733119549172,1411.0733119549172,0.9996600927925655,0.0003179558674948861
1411.080256492563,1411.080256492563,0.9999145056145474,0.00031793507591249904
1411.087201029929,1411.087201029929,1.0005072234204413,0.000318018682571241
1411.0941455672014,1411.0941455672014,0.9996118319217189,0.0003179071194941822
1411.1010901041025,1411.1010901041025,1.0001994682941595,0.0003180742125430129
1411.1080346409094,1411.1080346409094,1.0002208940458597,0.0003179911722846835
1411.1149791774374,1411.1149791774374,0.999868044062219,0.0003179052039987835
1411.1219237136859,1411.1219237136859,1.0002672483063462,0.00031808546870728665
1411.1288682499337,1411.1288682499337,1.000087506626207,0.0003179391037275417
1411.13581278581,1411.13581278581,1.0000433806303484,0.00031795012595649426
1411.1427573214992,1411.1427573214992,0.9993051884920569,0.0003178738913397222
1411.1497018569096,1411.1497018569096,1.0000377184469076,0.0003180027234098152
1411.1566463922268,1411.1566463922268,1.0001914747451148,0.00031804683929052347
1411.163590927264,1411.163590927264,0.9999904047040744,0.000318006455045221
1411.170535462023,1411.170535462023,1.0002051192042443,0.00031788574301808175
1411.1774799966875,1411.1774799966875,1.00028156846926,0.00031801001415522736
1411.1844245310738,1411.1844245310738,1.0001249484793457,0.00031796086123770143
1411.1913690652732,1411.1913690652732,0.9998933436548946,0.00031803112759373623
1411.1983135992862,1411.1983135992862,1.0002631706118241,0.0003179997467656159
1411.2052581329272,1411.2052581329272,1.000088112443181,0.0003180050516072701
1411.2122026664742,1411.2122026664742,0.9998210822181074,0.00031797318914697194
1411.2191471999292,1411.2191471999292,0.9999146815336589,0.00031788983305470195
1411.2260917330107,1411.2260917330107,1.000142295037076,0.00031796839542258976
1411.2330362659065,1411.2330362659065,1.0004567176504449,0.000318027235449738
1411.239980798616,1411.239980798616,0.999494282006536,0.0003178799840237813
1411.2469253310453,1411.2469253310453,0.9996777955394519,0.00031795791814894604
1411.253869863383,1411.253869863383,0.9997214025864976,0.0003180023516375498
1411.26081439544,1411.26081439544,0.999806131905977,0.00031793286103894174
1411.2677589273112,1411.2677589273112,1.0005275239835476,0.00031809140194841157
1411.2747034589966,1411.2747034589966,1.0008152072747745,0.0003180696305726521
1411.281647990308,1411.281647990308,0.999583537565113,0.00031791150926664127
1411.288592521528,1411.288592521528,1.0003271870463017,0.000318039444726258
1411.295537052747,1411.295537052747,1.0002102287003438,0.00031791584203758175
1411.3024815835004,1411.3024815835004,0.9998887170669819,0.00031794320631916233
1411.3094261140682,1411.3094261140682,0.9994011239157861,0.000317925593186684
1411.316370644542,1411.316370644542,0.9994770795138779,0.00031802792700525654
1411.3233151747374,1411.3233151747374,1.000070609409144,0.0003180210018079805
1411.3302597047457,1411.3302597047457,1.0004280702424702,0.0003180578012890555
1411.3372042344745,1411.3372042344745,0.9998021458178966,0.00031794574496865705
1411.344148764018,1411.344148764018,1.0000946535106974,0.0003180197090814688
1411.3510932933739,1411.3510932933739,1.00007128747144,0.00031804591915610977
1411.3580378225447,1411.3580378225447,0.9999079453619686,0.0003179604258195776
1411.3649823514356,1411.3649823514356,0.999973600594781,0.00031801600294437354
1411.3719268803266,1411.3719268803266,1.0006630619747838,0.00031805469103929145
1411.3788714088453,1411.3788714088453,1.0001355321896597,0.00031806391441957093
1411.3858159371764,1411.3858159371764,0.9998408112877701,0.0003180927816721022
1411.3927604653234,1411.3927604653234,0.9996748553589534,0.0003180154883172534
1411.3997049931895,1411.3997049931895,1.0000812425884995,0.00031804005143330077
1411.4066495209631,1411.4066495209631,0.9998901629505452,0.00031799921724568164
1411.4135940485503,1411.4135940485503,0.9997897149581872,0.0003180137412935386
1411.4205385758573,1411.4205385758573,1.0000957785954978,0.0003180106842988714
1411.4274831029795,1411.4274831029795,0.999763449535996,0.000318058346919006
1411.434427629914,1411.434427629914,1.0001814778347815,0.0003180876570819082
1411.4413721566632,1411.4413721566632,1.0001070093159588,0.00031807337050735314
1411.4483166832258,1411.4483166832258,1.0003568380044496,0.0003180615604419667
1411.455261209509,1411.455261209509,0.9998261317477274,0.00031802233366097466
1411.4622057356064,1411.4622057356064,0.999388441636834,0.0003179299786929679
1411.4691502615165,1411.4691502615165,0.9997568202395728,0.0003179945760809027
1411.4760947872414,1411.4760947872414,1.000632543190281,0.0003180655186992492
1411.4830393128727,1411.4830393128727,0.9996976125982503,0.00031795682279714876
1411.4899838381311,1411.4899838381311,1.0006154708755624,0.0003180831146150229
1411.4969283632975,1411.4969283632975,0.9997566839136771,0.00031800331915625137
1411.5038728881832,1411.5038728881832,1.000155501930712,0.00031810851217858264
1411.5108174129768,1411.5108174129768,1.0003195127961775,0.00031808906035859694
1411.5177619375831,1411.5177619375831,0.9990309583532209,0.00031790715858941973
1411.5247064619107,1411.5247064619107,1.000214730559624,0.00031805236758176964
1411.5316509861455,1411.5316509861455,1.0001924589573572,0.0003181067910378847
1411.5385955099134,1411.5385955099134,1.0002325638292162,0.00031806832649089456
1411.545540033776,1411.545540033776,0.9999406771502798,0.0003180362110218229
1411.552484557265,1411.552484557265,1.0000540723999398,0.00031803723396824177
1411.5594290806612,1411.5594290806612,0.9997194133238366,0.0003180210767262305
1411.5663736039646,1411.5663736039646,1.0001616964508648,0.00031809517633003175
1411.5733181268013,1411.5733181268013,1.0001424937572296,0.00031809884479052736
1411.580262649546,1411.580262649546,0.9998361189039692,0.0003179604281305557
1411.58720717229,1411.58720717229,0.9999654246129932,0.00031805285480448515
1411.5941516946618,1411.5941516946618,1.000177426490108,0.0003181448391622985
1411.601096216847,1411.601096216847,0.9992652460850481,0.0003179935987233844
1411.608040738753,1411.608040738753,0.9999479182853476,0.0003181114636608195
1411.6149852606598,1411.6149852606598,1.0003539541523803,0.0003181226269514131
1411.6219297824719,1411.6219297824719,1.0002078984069391,0.00031806051596354197
1411.6288743038197,1411.6288743038197,1.0003497591784893,0.00031815837777398096
1411.6358188251666,1411.6358188251666,1.0001685119429278,0.0003181570190545781
1411.6427633462342,1411.6427633462342,0.9996558062771307,0.00031808363482685144
1411.6497078670232,1411.6497078670232,1.0001651760150467,0.0003181002285209763
1411.656652387811,1411.656652387811,0.999060853809208,0.0003180921423793348
1411.6635969083206,1411.6635969083206,1.000134877358858,0.00031812665103608486
1411.670541428643,1411.670541428643,1.0004426589863593,0.0003181646754954845
1411.67748594878,1411.67748594878,0.999759364971504,0.0003181470782587957
1411.68443046873,1411.68443046873,0.9993979328280407,0.00031805912903004683
1411.6913749885866,1411.6913749885866,0.9999263047477358,0.0003180880958962244
1411.6983195081655,1411.6983195081655,1.0001640291063816,0.00031811892711905063
1411.705264027463,1411.705264027463,1.0002141969923088,0.0003181682943261003
1411.7122085466685,1411.7122085466685,0.9997817459587848,0.00031806482796496456
1411.7191530657806,1411.7191530657806,1.000520945358554,0.00031821386001660646
1411.726097584613,1411.726097584613,0.9997996546157175,0.00031808414080961836
1411.7330421032598,1411.7330421032598,0.9999162803619674,0.00031812899805397474
1411.7399866218125,1411.7399866218125,0.9996926851408812,0.00031804470889028986
1411.746931139994,1411.746931139994,1.000225764683226,0.00031806113827136096
1411.7538756580811,1411.7538756580811,0.9999939241104643,0.0003181627624219072
1411.7608201760759,1411.7608201760759,1.0003545883366478,0.00031816911911074767
1411.7677646937912,1411.7677646937912,0.9997433283534656,0.00031815318121546456
1411.7747092114128,1411.7747092114128,1.0001232559378292,0.0003181698099018901
1411.7816537286628,1411.7816537286628,1.0004378321429417,0.0003182648910646501
1411.7885982459115,1411.7885982459115,0.9998715237242219,0.0003182191483387244
1411.7955427629754,1411.7955427629754,0.9996714867764634,0.0003181777869264204
1411.802487279759,1411.802487279759,1.0002922016619067,0.00031828600592231123
1411.8094317964492,1411.8094317964492,1.0000825764567562,0.0003182216146740373
1411.816376312954,1411.816376312954,0.9993886057195234,0.00031816314347029657
1411.8233208292718,1411.8233208292718,0.9995482694057053,0.0003182121984445975
1411.830265345311,1411.830265345311,1.0000989834569425,0.00031828615080648203
1411.8372098613493,1411.8372098613493,1.000675836364167,0.0003183023358213471
1411.844154377109,1411.844154377109,0.9996367504516339,0.00031819504028113033
1411.851098892682,1411.851098892682,1.0001372474213581,0.00031826486120547224
1411.8580434081614,1411.8580434081614,0.9998360275984334,0.0003182501289986081
1411.8649879233628,1411.8649879233628,1.0000955283401851,0.0003182676639580752
1411.8719324384695,1411.8719324384695,1.0002558071475045,0.00031825440969619577
1411.8788769533908,1411.8788769533908,0.9998992594339822,0.0003182150873946229
1411.8858214679392,1411.8858214679392,0.9999240852548296,0.0003182026661134923
1411.8927659825808,1411.8927659825808,1.000311512691279,0.00031827513813317723
1411.8997104969437,1411.8997104969437,0.9996690048845537,0.0003182189417056003
1411.906655011026,1411.906655011026,1.0001260081220074,0.00031829221600683077
1411.91359952511,1411.91359952511,1.0001418307912886,0.00031828575894957644
1411.92054403882,1411.92054403882,0.9998424144827514,0.00031816674190572836
1411.9274885526236,1411.9274885526236,0.9998959969714942,0.000318245064588373
1411.9344330660545,1411.9344330660545,1.0003664856690038,0.0003183335693464409
1411.941377579485,1411.941377579485,0.9999546085807861,0.0003182901572281885
1411.948322092544,1411.948322092544,0.9994534086630299,0.0003181816501418394
1411.9552666054158,1411.9552666054158,1.0004955040286265,0.0003183782423347724
1411.962211118475,1411.962211118475,0.9999822924111372,0.0003183598720741196
1411.969155631067,1411.969155631067,1.0001423689277258,0.00031834206556988155
1411.976100143474,1411.976100143474,0.9996255571897151,0.00031823574286857226
1411.9830446557874,1411.9830446557874,0.9999527883564993,0.00031828724392320525
1411.989989167821,1411.989989167821,0.9998553333276089,0.0003183657267623603
1411.9969336797628,1411.9969336797628,0.9997420088089516,0.00031827639723988393
1412.0038781915168,1412.0038781915168,1.0004885537699202,0.0003184033742307664
1412.010822703272,1412.010822703272,1.0005652068735749,0.00031842703578173454
1412.0177672146535,1412.0177672146535,1.0000521439529777,0.0003183718047703637
1412.0247117259428,1412.0247117259428,0.999930325993312,0.00031835770499838255
1412.0316562369524,1412.0316562369524,1.0001044630181293,0.0003184047977227703
1412.0386007479615,1412.0386007479615,0.9999950239813652,0.00031833926474246824
1412.0455452586925,1412.0455452586925,1.0003450272566694,0.0003183217338057658
1412.052489769329,1412.052489769329,1.0002323626573049,0.00031827401927493463
1412.059434279873,1412.059434279873,0.9996018073947234,0.0003183290164895205
1412.0663787901378,1412.0663787901378,1.000147998877043,0.0003183494233592617
1412.0733233001229,1412.0733233001229,1.0000319979247108,0.00031837262578635815
1412.080267810108,1412.080267810108,0.9998596706363088,0.00031830834054032744
1412.0872123198135,1412.0872123198135,0.999960848071691,0.00031832081433465583
1412.0941568295195,1412.0941568295195,1.0006571500998285,0.0003183945327896055
1412.1011013389452,1412.1011013389452,1.0001990421167752,0.00031836550460407194
1412.1080458480926,1412.1080458480926,0.9996256029320122,0.00031826943437652475
1412.1149903572393,1412.1149903572393,0.999848553205265,0.0003183545493557311
1412.1219348662005,1412.1219348662005,0.9995957261609636,0.00031828041935696435
1412.128879375068,1412.128879375068,1.0000771358608944,0.0003182917519017673
1412.1358238836553,1412.1358238836553,1.0002471506078054,0.0003184043733133687
1412.1427683921515,1412.1427683921515,1.0000820162537796,0.00031831150479729993
1412.1497129002732,1412.1497129002732,0.9999261960359338,0.0003183076251771273
1412.1566574086755,1412.1566574086755,1.0003153762840618,0.0003183732338463773
1412.1636019166115,1412.1636019166115,0.9999317092167459,0.0003183764411098159
1412.1705464243612,1412.1705464243612,0.9999099203908337,0.00031830737935736896
1412.1774909320186,1412.1774909320186,0.9996819160144161,0.0003182557100703642
1412.1844354393954,1412.1844354393954,0.9998140854907674,0.000318302823636949
1412.1913799467734,1412.1913799467734,1.0000479880065534,0.000318339917860262
1412.1983244539642,1412.1983244539642,1.000098256383057,0.0003183095249604621
1412.2052689609695,1412.2052689609695,1.000081278749287,0.00031837630216329925
1412.2122134678812,1412.2122134678812,1.0004620768099606,0.00031836996200600626
1412.2191579745136,1412.2191579745136,1.0001695176427141,0.0003183854388233358
1412.226102481053,1412.226102481053,0.9998428865799985,0.0003183497577450776
1412.2330469874055,1412.2330469874055,0.9993419486407122,0.000318338804451039
1412.2399914935727,1412.2399914935727,1.000028264103085,0.0003183446413258674
1412.2469359996458,1412.2469359996458,1.0004112623973653,0.0003184046954635296
1412.2541582856647,1412.2541582856647,1.0003310299695685,0.00031838479663269124
1412.2627694729904,1412.2627694729904,0.9998127056034505,0.0003181774789897338
1412.2722140003389,1412.2722140003389,0.9996178833617236,0.0003181575700077427
1412.2827696483969,1412.2827696483969,1.000144650610073,0.0003184137115465072
1412.2924919554096,1412.2924919554096,1.0000736274012225,0.00031829029540372865
1412.2997142404965,1412.2997142404965,0.9993140193277895,0.0003183065000145131
1412.3066587451735,1412.3066587451735,0.9919087719263462,0.00031728166977286004
1412.3136032497564,1412.3136032497564,0.9873007262707102,0.0003166350785412659
1412.3205477541546,1412.3205477541546,0.9851368248838785,0.00031640363088616984
1412.3274922582716,1412.3274922582716,0.9844319787254854,0.00031621713321743284
1412.3344367623897,1412.3344367623897,0.984605901657253,0.00031630888605261795
1412.3413812663212,1412.3413812663212,0.983764613744395,0.00031623703094804255
1412.3483257700666,1412.3483257700666,0.9838898407263746,0.000316144735475953
1412.355270273719,1412.355270273719,0.9842639390838643,0.00031612724514797086
1412.3622147769977,1412.3622147769977,0.984983525110712,0.00031618196816547467
1412.3691592802784,1412.3691592802784,0.9855005512666191,0.0003163341159170172
1412.3761037835575,1412.3761037835575,0.986923172601329,0.0003165792155703993
1412.3830482866513,1412.3830482866513,0.9921381073768376,0.00031731366175203983
1412.3899927894647,1412.3899927894647,0.9997366176097466,0.00031841826524987973
1412.3969372921856,1412.3969372921856,0.9997162122171217,0.00031839285269637696
1412.403881794627,1412.403881794627,1.0007674274756795,0.00031852419183983096
1412.4108262970683,1412.4108262970683,1.0001172370079356,0.0003184466510056987
1412.4177707994172,1412.4177707994172,1.000187742067945,0.0003182603301223922
1412.424715301392,1412.424715301392,0.999731517675243,0.0003183445565259472
1412.4316598033688,1412.4316598033688,0.9997905049871276,0.0003184346058578966
1412.4386043051577,1412.4386043051577,0.9998905426717531,0.00031836143001293625
1412.4455488067613,1412.4455488067613,0.9998038857154091,0.00031836696531550585
1412.4524933082714,1412.4524933082714,1.0002199615059006,0.000318462597937349
1412.4594378095019,1412.4594378095019,1.0001187974108317,0.0003183489697452664
1412.466382310826,1412.466382310826,1.0005420564870797,0.00031838256756363533
1412.4733268117768,1412.4733268117768,1.000135311008546,0.00031838298330536045
1412.4802713127285,1412.4802713127285,0.9999029227251764,0.0003182679625062273
1412.4872158133999,1412.4872158133999,0.9996262645205249,0.0003183195353397845
1412.4941603139794,1412.4941603139794,0.9996159653366583,0.00031845351728049086
1412.5011048144647,1412.5011048144647,1.0003149205324449,0.000318380950649896
1412.508049314671,1412.508049314671,0.9996964277636902,0.0003183435712417588
1412.5149938148775,1412.5149938148775,1.0002858377436297,0.0003184198498610463
1412.5219383148044,1412.5219383148044,0.9998559444138042,0.0003184539291234491
1412.528882814638,1412.528882814638,0.9999907831123404,0.0003184292246159763
1412.535827314378,1412.535827314378,0.999865463293023,0.00031842636943442225
1412.542771813933,1412.542771813933,1.0003560156515123,0.00031843339223379895
1412.5497163133005,1412.5497163133005,0.9999332614621036,0.0003183975841202649
1412.5566608125762,1412.5566608125762,1.0001400682587707,0.0003184117262379386
1412.5636053116643,1412.5636053116643,1.0001072717532586,0.0003184378935562534
1412.57054981066,1412.57054981066,0.9997476667188149,0.0003183429792369176
1412.5774943092833,1412.5774943092833,0.9997847187076097,0.0003183884152947952
1412.5844388079058,1412.5844388079058,1.0001632808324206,0.00031839863333294155
1412.5913833065292,1412.5913833065292,1.00044441999444,0.00031843279256168805
1412.5983278050587,1412.5983278050587,0.9995090218402286,0.0003183403691312869
1412.6052723032167,1412.6052723032167,1.0000074584895722,0.00031837032615898204
1412.6122168012803,1412.6122168012803,0.9998156512114861,0.0003183770716821663
1412.6191612993448,1412.6191612993448,1.0005741056930306,0.0003184583666506151
1412.6261057970364,1412.6261057970364,0.9998880755821868,0.0003183724278504402
1412.6330502946353,1412.6330502946353,0.999425055711936,0.00031823744143446615
1412.6399947921407,1412.6399947921407,1.0005558360605007,0.0003185509834186878
1412.6469392895524,1412.6469392895524,0.9996371382575042,0.00031841679642362136
1412.6538837867793,1412.6538837867793,1.000226317045748,0.00031854358718499444
1412.6608282839115,1412.6608282839115,1.0004886975220004,0.0003185346860259378
1412.6677727808587,1412.6677727808587,0.9996890163843826,0.00031850124353961106
1412.6747172776188,1412.6747172776188,0.9996004531075118,0.00031845360681882507
1412.681661774193,1412.681661774193,1.0001245758776292,0.0003184151866600747
1412.6886062707672,1412.6886062707672,0.9999559389616387,0.00031846515991209293
1412.6955507672478,1412.6955507672478,1.000004658388018,0.0003185741448065714
