time,time,flux,flux_err
1354.118323139404,1354.118323139404,0.9998520179605349,0.0006201537202488356
1354.1264252355263,1354.1264252355263,0.9997521126597213,0.000566064275625161
1354.1333698893054,1354.1333698893054,0.99959768871946,0.0005658535937514933
1354.1403145428053,1354.1403145428053,1.0008757346976171,0.0005660887488903545
1354.1472591961187,1354.1472591961187,1.000543908531965,0.0005660168828180662
1354.154203849153,1354.154203849153,0.9997984741256243,0.0005656853197516605
1354.16114850228,1354.16114850228,0.999746037871921,0.000565765771897074
1354.1680931551284,1354.1680931551284,1.0004724083793488,0.0005658359835893872
1354.1750378076968,1354.1750378076968,0.9994876989532528,0.0005655764329801973
1354.1819824603585,1354.1819824603585,1.0002096491763,0.0005657988054726108
1354.1889271126474,1354.1889271126474,0.9999445693676613,0.0005655639469571542
1354.1958717647506,1354.1958717647506,1.0003144870202825,0.00056575738806838
1354.20281641676,1354.20281641676,0.9988606235150476,0.0005653809794645198
1354.2097610684905,1354.2097610684905,1.0000893516632317,0.0005656551510584925
1354.2167057202207,1354.2167057202207,1.000258200912487,0.0005656354640418475
1354.2236503717647,1354.2236503717647,1.0002476192880572,0.0005655398828622475
1354.2305950230293,1354.2305950230293,1.0005757836852276,0.0005655588572166581
1354.2375396743876,1354.2375396743876,0.9993927399835695,0.000565341826396893
1354.2444843252797,1354.2444843252797,0.9999377105015034,0.0005654604785132824
1354.2514289760786,1354.2514289760786,0.9993437163791702,0.0005652929148302506
1354.2583736268775,1354.2583736268775,0.999810766294979,0.000565383349492396
1354.265318277397,1354.265318277397,1.0005179849030685,0.0005655687421357202
1354.2722629277305,1354.2722629277305,1.000966730408909,0.0005655782171088968
1354.2792075779707,1354.2792075779707,1.0006353889112858,0.0005655980821364828
1354.286152227931,1354.286152227931,0.9997370747611539,0.0005654517953198208
1354.2930968778921,1354.2930968778921,0.9998030645744725,0.0005653039981811595
1354.3000415276663,1354.3000415276663,0.9999523080158419,0.0005654229263986479
1354.306986177255,1354.306986177255,0.9990794327605377,0.000565153027467565
1354.3139308266573,1354.3139308266573,0.9995487220794764,0.0005652874419831676
1354.320875475873,1354.320875475873,0.9997019308357332,0.0005652575151894008
1354.3278201249955,1354.3278201249955,1.0001705711074382,0.0005654281975207172
1354.334764774025,1354.334764774025,1.0008531089528296,0.0005653829147997629
1354.3417094227748,1354.3417094227748,1.0004058436179664,0.00056537393320046
1354.348654071432,1354.348654071432,1.0001776017357837,0.0005651883561185802
1354.3555987199024,1354.3555987199024,1.0000662826364994,0.0005650644856339162
1354.3625433682803,1354.3625433682803,1.0007324871760506,0.0005652583439215011
1354.3694880163785,1354.3694880163785,0.9996142029265945,0.000565012355091018
1354.3764326643836,1354.3764326643836,0.9993932093315872,0.0005648976255394414
1354.383377312482,1354.383377312482,1.0006790786256314,0.0005651035486398014
1354.3903219601143,1354.3903219601143,0.9996309465415862,0.0005649889289623221
1354.3972666077466,1354.3972666077466,1.000175698730041,0.0005651781142349411
1354.4042112550064,1354.4042112550064,1.00008892659077,0.0005651843122052469
1354.4111559023597,1354.4111559023597,1.0002514359414936,0.0005651212264606139
1354.4181005495266,1354.4181005495266,0.9992802793321962,0.0005649930889029031
1354.4250451965074,1354.4250451965074,1.0000920972530083,0.0005650849964378667
1354.4319898433012,1354.4319898433012,1.0001706390707465,0.0005651239443317291
1354.4389344900026,1354.4389344900026,0.9995495149903268,0.0005649649064280375
1354.4458791366105,1354.4458791366105,0.9998742661006428,0.0005650177468915908
1354.4528237829395,1354.4528237829395,1.0002192792790943,0.0005652248614370198
1354.4597684291753,1354.4597684291753,1.000883895079427,0.0005652388437291547
1354.4667130754106,1354.4667130754106,0.9998602632755252,0.0005652135625218215
1354.4736577212734,1354.4736577212734,1.0004047119835657,0.0005651825237478198
1354.4806023671367,1354.4806023671367,0.9989822725151323,0.0005647956537017819
1354.4875470128131,1354.4875470128131,1.000343437367743,0.0005650282009957874
1354.4944916583038,1354.4944916583038,0.9997816808189228,0.0005649716199447106
1354.501436303608,1354.501436303608,0.9998395337265219,0.0005650910921153881
1354.508380948912,1354.508380948912,1.0000446016515705,0.0005650452325379079
1354.5153255942164,1354.5153255942164,0.9997991814360765,0.0005650719927070781
1354.522270239055,1354.522270239055,1.0004464382713538,0.00056509002738127
1354.5292148838937,1354.5292148838937,0.9987353244177889,0.000564865994539388
1354.5361595285458,1354.5361595285458,1.0009027689395085,0.0005652970797001171
1354.543104173105,1354.543104173105,1.000288923897715,0.0005651748145363306
1354.5500488175708,1354.5500488175708,0.999909169488619,0.0005650031716753093
1354.5569934619439,1354.5569934619439,0.9997775069068308,0.000564974184611458
1354.5639381061303,1354.5639381061303,0.9987915833778501,0.0005648496334262499
1354.5708827500378,1354.5708827500378,1.0006183769695405,0.0005650829887419401
1354.5778273938515,1354.5778273938515,0.9999784781089188,0.0005650061878659689
1354.5847720376657,1354.5847720376657,1.0000023732046552,0.0005650785032038381
1354.5917166812008,1354.5917166812008,1.0001924187957862,0.0005651092243686952
1354.5986613247353,1354.5986613247353,1.000500931727295,0.0005651022281946144
1354.6056059680839,1354.6056059680839,1.0000566498682901,0.0005649960260087724
1354.6125506112458,1354.6125506112458,0.9999893982300605,0.0005648843945345823
1354.6194952542214,1354.6194952542214,0.9996374513670714,0.0005647017002392066
1354.6264398971975,1354.6264398971975,0.999191498324404,0.0005646066422653497
1354.6333845401734,1354.6333845401734,0.9999731037788102,0.0005648336358578163
1354.6403291826834,1354.6403291826834,1.000065414148947,0.0005648460948797565
1354.6472738252871,1354.6472738252871,1.0002682429862566,0.0005648354866844011
1354.654218467704,1354.654218467704,1.0005572389786483,0.0005648451967454743
1354.6611631100282,1354.6611631100282,1.0006597970655176,0.0005649369634119529
1354.6681077521662,1354.6681077521662,1.0001876579315847,0.0005648161157156035
1354.6750523942105,1354.6750523942105,0.9995985333538204,0.0005646760808621987
1354.6819970359759,1354.6819970359759,0.999229842727031,0.0005646427378371085
1354.6889416778338,1354.6889416778338,0.9996927322832949,0.0005646391986995399
1354.695886319506,1354.695886319506,0.9998502538501484,0.0005646789744796658
1354.7028309610848,1354.7028309610848,0.9996162664250431,0.0005646833694898101
1354.7097756024777,1354.7097756024777,1.0007112536275051,0.0005648682323664514
1354.716720243684,1354.716720243684,1.000710819197368,0.0005648198555153419
1354.7236648848905,1354.7236648848905,0.9991526802611375,0.0005646172123234207
1354.7306095259105,1354.7306095259105,1.0008217279229084,0.0005648432134474643
1354.7375541666515,1354.7375541666515,1.0000529597339187,0.0005647723046505288
1354.7444988075783,1354.7444988075783,0.999589387452785,0.0005646283751472353
1354.751443448226,1354.751443448226,1.0003100837326921,0.000564793479079863
1354.7583880885943,1354.7583880885943,0.99989982498715,0.0005646422635054198
1354.7653327291482,1354.7653327291482,1.0000315373140314,0.0005647007869320578
1354.7722773694236,1354.7722773694236,0.9988508574002273,0.0005645089630467277
1354.7792220095123,1354.7792220095123,0.9995635013412427,0.0005645532940910215
1354.7861666496012,1354.7861666496012,1.0006154425389098,0.0005648248026096006
1354.7931112895035,1354.7931112895035,1.0003928398120112,0.0005646346888922746
1354.800055929313,1354.800055929313,1.0005949174013213,0.0005647071541939914
1354.8070005690295,1354.8070005690295,1.0003302947474424,0.0005646924461527233
1354.8139452085595,1354.8139452085595,1.0003600625452957,0.0005646677919131388
1354.8208898479966,1354.8208898479966,0.9991028080863533,0.0005645176666028207
1354.827834487247,1354.827834487247,0.9999259946939354,0.0005645802499529514
1354.8347791264976,1354.8347791264976,0.9999767289905627,0.0005645699226686002
1354.841723765562,1354.841723765562,0.9999024337684942,0.0005645729696102084
1354.8486684045333,1354.8486684045333,1.0000786928760825,0.0005646222244999052
1354.8556130434113,1354.8556130434113,0.9996933134468297,0.0005645129372351462
1354.8625576821032,1354.8625576821032,1.000726411235579,0.0005647281428703497
1354.8695023207952,1354.8695023207952,0.9994038130721478,0.0005644481309695067
1354.8764469591142,1354.8764469591142,0.9993549518937233,0.0005643868720842775
1354.8833915974337,1354.8833915974337,1.0008945184874858,0.0005646857723636617
1354.8903362357528,1354.8903362357528,1.0008011373904975,0.0005648008157379307
1354.897280874072,1354.897280874072,0.9990412222810926,0.0005644592717556224
1354.9042255121121,1354.9042255121121,1.000217606571668,0.0005646440415569287
1354.9111701500585,1354.9111701500585,1.000784984785197,0.0005648536116407869
1354.9181147878194,1354.9181147878194,0.9991875924192746,0.0005644837334487312
1354.9250594255795,1354.9250594255795,1.0003299899540976,0.0005646203154163822
1354.9320040631542,1354.9320040631542,0.9998990078073083,0.0005645948827176095
1354.9400598426732,1354.9400598426732,0.9996374756320148,0.0005645596600788208
1354.9472822654075,1354.9472822654075,0.9991866980255033,0.0005643715907863321
1354.9542269026094,1354.9542269026094,1.0001198272063407,0.0005646809362651712
1354.9611715397182,1354.9611715397182,1.0004342498049157,0.0005645612279592399
1354.9681161768265,1354.9681161768265,0.9998310035400781,0.000564308920019938
1354.9750608137485,1354.9750608137485,1.0004679782374468,0.0005645856026481339
1354.982005450578,1354.982005450578,1.0005923342402032,0.0005646190466722524
1354.988950087128,1354.988950087128,1.0000939527266783,0.0005644764408092691
1354.9958947237706,1354.9958947237706,1.0000094566540152,0.0005644165151655252
1355.0028393602274,1355.0028393602274,0.9992222490570903,0.0005643119040337361
1355.0097839966838,1355.0097839966838,0.9997157868321087,0.000564285674767282
1355.0167286326753,1355.0167286326753,1.0000089203789753,0.000564367764123385
1355.0236732691315,1355.0236732691315,1.0004468332432501,0.0005645115577725217
1355.0306179051227,1355.0306179051227,1.0000924550328736,0.0005644345327375657
1355.0375625410209,1355.0375625410209,0.999386793535183,0.0005643209002324708
1355.044507176639,1355.044507176639,1.0004119673148613,0.0005645473517060234
1355.051451812444,1355.051451812444,1.0001182341289951,0.0005644291206801427
1355.0583964480622,1355.0583964480622,1.0001061711783072,0.0005644127124785384
1355.0653410834946,1355.0653410834946,0.9997373046877019,0.0005644114409137778
1355.072285718927,1355.072285718927,1.000101949289577,0.000564489418242934
1355.0792303542657,1355.0792303542657,0.9994856441450576,0.0005643737569012937
1355.0861749894182,1355.0861749894182,1.0008175304662932,0.0005646672041621261
1355.093119624478,1355.093119624478,0.9998316191154222,0.0005643063431702209
1355.1000642595377,1355.1000642595377,0.9998442439591662,0.0005643536193250416
1355.1070088944111,1355.1070088944111,0.999960037483514,0.0005643676127844013
1355.1139535290984,1355.1139535290984,1.0003809518055797,0.0005644769432357509
1355.1208981637853,1355.1208981637853,0.999438928504684,0.0005642558712972734
1355.1278427982863,1355.1278427982863,1.0001128623587108,0.000564475291739966
1355.1347874326943,1355.1347874326943,0.9999715523174842,0.0005644882622570016
1355.1417320671949,1355.1417320671949,1.0000528340525365,0.0005645040215005745
1355.1486767014167,1355.1486767014167,1.000047015140699,0.0005644015425187042
1355.155621335545,1355.155621335545,0.9998178517529261,0.0005644154227784533
1355.1625659695799,1355.1625659695799,0.9998449666093876,0.0005643810895455041
1355.1695106035222,1355.1695106035222,0.9999794225886806,0.0005643580037714663
1355.1764552371849,1355.1764552371849,1.000760842242545,0.0005646764392722413
1355.1833998713134,1355.1833998713134,0.9991302712383326,0.0005642325635371509
1355.1903445048831,1355.1903445048831,1.0002836326146027,0.0005643994135332273
1355.197289138173,1355.197289138173,1.0002189120781821,0.0005643722355737019
1355.2042337718358,1355.2042337718358,1.0001893098894317,0.000564401132489462
1355.2111784050326,1355.2111784050326,1.0000610108882446,0.0005643334264374482
1355.2181230383228,1355.2181230383228,0.9991753030958502,0.0005641131608731946
1355.22506767152,1355.22506767152,1.0003071428303094,0.0005644005438189115
1355.2320123045306,1355.2320123045306,0.9996141355721665,0.0005642277247234957
1355.2389569375414,1355.2389569375414,0.9993654729858237,0.0005642359714117388
1355.245901570366,1355.245901570366,1.0005661429968988,0.0005645166354288962
1355.2528462030973,1355.2528462030973,0.999232839296153,0.0005641216129139807
1355.2597908356427,1355.2597908356427,1.0002512154003367,0.0005644225586072057
1355.266735468374,1355.266735468374,1.0005080380471587,0.0005645710087797086
1355.2736801006395,1355.2736801006395,1.000186036564041,0.0005644526069478237
1355.2806247330914,1355.2806247330914,0.9998453222593667,0.0005643601710397668
1355.2875693653573,1355.2875693653573,1.0001091792088037,0.0005644464783382286
1355.29451399753,1355.29451399753,1.0004964541068095,0.000564408753473005
1355.301458629609,1355.301458629609,1.0000068482359221,0.0005642521794584746
1355.3084032615952,1355.3084032615952,0.9992774958679884,0.0005641729448570746
1355.3153478934887,1355.3153478934887,0.999750572474641,0.0005642805863475163
1355.3222925252887,1355.3222925252887,1.0002477616698333,0.0005643585575093601
1355.3292371569028,1355.3292371569028,0.9998159758936156,0.000564271447615265
1355.3367373591163,1355.3367373591163,0.9998523204521975,0.0005642868717393151
1355.3445153462108,1355.3445153462108,1.0014550973885779,0.0005646653010830693
1355.3514599775453,1355.3514599775453,0.9992378646505162,0.0005641425554911131
1355.3584046088795,1355.3584046088795,0.9995647662981041,0.0005642677631939646
1355.365349240214,1355.365349240214,0.999810654268145,0.000564187657622619
1355.3722938712688,1355.3722938712688,0.9993220692819893,0.00056402662463986
1355.379238502324,1355.379238502324,1.0007686667265154,0.0005642341304907172
1355.3861831331928,1355.3861831331928,1.0008020866506837,0.0005643956816385517
1355.3931277639683,1355.3931277639683,0.9996528955657323,0.0005641158593027274
1355.4009057505043,1355.4009057505043,0.9995430618660575,0.000564063992423686
1355.4084059515067,1355.4084059515067,1.0004923745123795,0.0005642337003149157
1355.4153505820032,1355.4153505820032,0.9995264116305979,0.000563992241140825
1355.4222952124062,1355.4222952124062,1.0000988350897937,0.0005641328532238929
1355.4292398428092,1355.4292398428092,1.0007022895150188,0.0005642590000626894
1355.436184472933,1355.436184472933,0.9997222931437678,0.0005639222545237339
1355.4431291031497,1355.4431291031497,0.9998109308181545,0.0005641525944745773
1355.4500737332733,1355.4500737332733,0.9998821018401534,0.0005641877061282124
1355.457018363211,1355.457018363211,1.0000423723383796,0.0005641639888197738
1355.4639629930552,1355.4639629930552,0.9998432960562141,0.0005642431468371332
1355.4709076228064,1355.4709076228064,1.0016146112893216,0.0005645997983621642
1355.4778522526508,1355.4778522526508,0.999346655257698,0.0005640752578040887
1355.4847968822155,1355.4847968822155,0.9993705295471704,0.0005641449195990721
1355.4917415116875,1355.4917415116875,0.9995508124819393,0.0005641870874777266
1355.4986861411592,1355.4986861411592,1.0005147723468797,0.0005643343780792631
1355.5056307704444,1355.5056307704444,1.0006566320338237,0.0005643075309104576
1355.512575399823,1355.512575399823,1.0002505663684589,0.0005643007377121362
1355.5195200288292,1355.5195200288292,1.000277706446208,0.0005642714164112164
1355.526464657835,1355.526464657835,0.9995582934378838,0.0005641856985324454
1355.533409286841,1355.533409286841,1.000012069731779,0.0005642205578505579
1355.5403539158474,1355.5403539158474,0.9998758869953154,0.0005640623975196244
1355.547298544667,1355.547298544667,0.9993541181122018,0.0005640055577209378
1355.5542431733938,1355.5542431733938,1.0001187836436292,0.0005641441863272869
1355.5611878019342,1355.5611878019342,1.000136271039342,0.0005643001915494557
1355.5681324305679,1355.5681324305679,1.000439315554642,0.000564382662101735
1355.5750770589223,1355.5750770589223,1.0002804365455518,0.0005642375485656076
1355.5820216872764,1355.5820216872764,0.9999654746369584,0.0005642174675356945
1355.5889663156304,1355.5889663156304,0.9998609817969528,0.0005641555401265591
1355.5959109437983,1355.5959109437983,0.9998500772470262,0.0005642296916744097
1355.602855571873,1355.602855571873,1.000285888109447,0.0005641938329068712
1355.6098001999478,1355.6098001999478,0.9987612902992218,0.0005639031038826552
1355.6167448278363,1355.6167448278363,1.0004561364802596,0.0005641908667457154
1355.6236894556314,1355.6236894556314,1.0000705176677822,0.0005642091913648472
1355.630634083427,1355.630634083427,1.0007086057521508,0.0005643147389676991
1355.6375787110362,1355.6375787110362,0.9998829576671631,0.0005642645816327391
1355.6445233386453,1355.6445233386453,0.9999958471026676,0.000564199081808187
1355.6514679661614,1355.6514679661614,0.9994133072982299,0.0005640929322806486
1355.658412593491,1355.658412593491,1.0001351183495013,0.0005642195097436355
1355.6653572208206,1355.6653572208206,0.999904212989543,0.0005641487367055861
1355.6723018480573,1355.6723018480573,1.0007530856679865,0.0005642863032830255
1355.6792464752004,1355.6792464752004,0.9994641977400699,0.0005640309749132623
1355.686191102251,1355.686191102251,0.9999510062622656,0.0005641634275688274
1355.6931357293013,1355.6931357293013,1.0002669767669568,0.0005641793258405619
1355.7000803559793,1355.7000803559793,0.9994744886541447,0.0005640435331024712
1355.7070249831227,1355.7070249831227,1.000091546984271,0.000564231947394015
1355.7139696098004,1355.7139696098004,0.9998111492676964,0.0005641794592314324
1355.7209142364782,1355.7209142364782,1.0001943329797103,0.0005641409414945684
1355.7278588626903,1355.7278588626903,1.0005055661402598,0.000564258658568345
1355.734803489368,1355.734803489368,1.000259905903416,0.0005642126373024026
1355.741748115673,1355.741748115673,1.000290556234399,0.0005642021767352139
1355.7498038821536,1355.7498038821536,0.9995263363265854,0.0005640341430474657
1355.7570262934332,1355.7570262934332,0.9995847881109514,0.0005641380156515544
1355.763970919459,1355.763970919459,0.9996942181369203,0.0005640015726100065
1355.7709155455782,1355.7709155455782,1.0002003655523068,0.0005642809285454751
1355.7778601715106,1355.7778601715106,0.9999483705870397,0.0005641790331558461
1355.7848047974435,1355.7848047974435,1.000284939155633,0.0005641154586209592
1355.79174942319,1355.79174942319,0.9992838444174323,0.0005639183934623027
1355.7986940488433,1355.7986940488433,1.000303881880818,0.0005640729402081352
1355.8056386744033,1355.8056386744033,0.9998286841920349,0.000563958088144711
1355.8125832998703,1355.8125832998703,1.00037780733193,0.0005641003428294571
1355.819527925431,1355.819527925431,1.0007747414236712,0.0005641064805584578
1355.8264725508047,1355.8264725508047,0.9996101982901386,0.0005639707226610316
1355.8334171760857,1355.8334171760857,1.0004891590741902,0.0005640675963214362
1355.8403618012733,1355.8403618012733,1.0003563798695585,0.0005641798464059874
1355.8473064263676,1355.8473064263676,0.9995148687677652,0.0005639952334274633
1355.8542510514624,1355.8542510514624,0.9991418196467128,0.0005639228781412731
1355.8611956764637,1355.8611956764637,1.0004532013324416,0.0005640775143059102
1355.8681403012786,1355.8681403012786,0.9997244796676785,0.0005640394881457538
1355.8750849260941,1355.8750849260941,1.0001440948895501,0.0005640535716435166
1355.8820295507232,1355.8820295507232,0.9993646521036788,0.0005640167961721459
1355.8889741754451,1355.8889741754451,1.0008548524233611,0.0005642651130700828
