time,time,flux,flux_err
1517.366931527032,1517.366931527032,1.000005548390372,0.00020595712618111432
1517.375542769571,1517.375542769571,1.0010991929277981,0.0002019382126849303
1517.3827651021966,1517.3827651021966,0.9999975612874763,0.0001988225930968365
1517.3897096536225,1517.3897096536225,0.9997250420921844,0.0001960498520987239
1517.3966542050487,1517.3966542050487,1.000145679272227,0.00019350992923699792
1517.4049876672252,1517.4049876672252,1.0003381351876615,0.00019098280777334682
1517.411932219396,1517.411932219396,0.9999501988494796,0.00018884680111312305
1517.41887677166,1517.41887677166,0.9999930224231945,0.00018697224916261704
1517.4258213244825,1517.4258213244825,0.9998622777290244,0.00018525972541257214
1517.432765877492,1517.432765877492,1.0002803971599057,0.00018374327437254356
1517.4397104307805,1517.4397104307805,0.9997208869184903,0.0001823400608457576
1517.4466549841623,1517.4466549841623,0.999755493541427,0.00018105187593561804
1517.4535995379165,1517.4535995379165,0.9999458702323926,0.00017990310363845416
1517.4605440919495,1517.4605440919495,1.0000446876762916,0.00017879919135431178
1517.4674886461696,1517.4674886461696,1.0002295857161019,0.0001778238681914108
1517.4744332005757,1517.4744332005757,1.0002077390528696,0.00017688284869048131
1517.4813777553543,1517.4813777553543,1.0000176899430298,0.00017600692007947082
1517.488322310133,1517.488322310133,0.999878892202581,0.000175181023359309
1517.4952668652843,1517.4952668652843,0.9999692478929838,0.00017438551225660027
1517.5022114206215,1517.5022114206215,1.00014697866686,0.00017367165788464235
1517.5091559762382,1517.5091559762382,1.0001489952637417,0.00017298618678645227
1517.516100531855,1517.516100531855,0.999459982832337,0.00017232734645788056
1517.5230450876581,1517.5230450876581,0.9999375316738215,0.00017170527622605467
1517.5299896437407,1517.5299896437407,1.0002685101450202,0.0001711611542933798
1517.5369341999162,1517.5369341999162,0.9998096039936518,0.00017059784011537693
1517.5438787563712,1517.5438787563712,1.0000058052190632,0.0001700979240364813
1517.5508233129192,1517.5508233129192,1.0003989499876753,0.00016959749239748534
1517.5577678696536,1517.5577678696536,1.0001930739576494,0.00016912266250700066
1517.5647124264815,1517.5647124264815,0.999939065992401,0.00016867956541679843
1517.5716569834951,1517.5716569834951,0.9998276572615851,0.00016822097342937024
1517.5786015406018,1517.5786015406018,1.0001320302671042,0.0001678470438075509
1517.5855460979888,1517.5855460979888,0.999839065376382,0.00016744387070519363
1517.5924906553746,1517.5924906553746,1.0001257786173856,0.00016711101181246
1517.599435212854,1517.599435212854,1.0001547379937084,0.0001667793717304633
1517.606379770706,1517.606379770706,0.9997326238091586,0.0001664692501371248
1517.6133243281852,1517.6133243281852,1.0000934975213793,0.00016618064269001106
1517.6202688861308,1517.6202688861308,1.0000948547988144,0.00016587844096253415
1517.6272134440758,1517.6272134440758,1.0000016089586445,0.00016560049385224375
1517.6341580024864,1517.6341580024864,0.9999167531946203,0.00016529144087614107
1517.6411025605246,1517.6411025605246,1.000288682758863,0.0001650951197649791
1517.6480471188424,1517.6480471188424,1.000067174705638,0.0001648105905216711
1517.6549916772533,1517.6549916772533,0.9995687100211201,0.00016452000961763463
1517.6619362357571,1517.6619362357571,0.9997101996021536,0.00016430844674269896
1517.668880794261,1517.668880794261,1.0000270961337712,0.0001640778652598368
1517.675825352951,1517.675825352951,1.000113659409664,0.0001638427697595778
1517.6827699116413,1517.6827699116413,0.9999891483791927,0.00016358707324189565
1517.6897144705176,1517.6897144705176,1.0002410661572827,0.00016336048375187293
1517.6966590293014,1517.6966590293014,1.0000404859996046,0.00016310743391443312
1517.7036035883636,1517.7036035883636,0.9999745517135089,0.0001628767563669874
1517.7105481472402,1517.7105481472402,0.9998402438403998,0.0001626377209123744
1517.717492706303,1517.717492706303,1.0003203188721534,0.0001624274623934942
1517.7244372654588,1517.7244372654588,0.9997973576103227,0.0001621792199102511
1517.7313818246143,1517.7313818246143,1.0000246878286378,0.00016197735215904967
1517.7383263838638,1517.7383263838638,0.9996957530740334,0.000161723733079347
1517.7452709431122,1517.7452709431122,1.0002028465291437,0.00016157210953426172
1517.7522155024544,1517.7522155024544,1.0000120478546608,0.00016136856489807458
1517.7591600617966,1517.7591600617966,1.0001420900034221,0.00016116446369011532
1517.7661046212318,1517.7661046212318,1.0001232573380865,0.00016096496431335338
1517.7730491806674,1517.7730491806674,0.9999420212899561,0.00016074059124137046
1517.779993740102,1517.779993740102,0.9996241209404108,0.00016053366097423937
1517.7869382996307,1517.7869382996307,0.9998647674926616,0.0001603331093881993
1517.7938828591589,1517.7938828591589,1.0001478127503787,0.00016012337758145135
1517.8008274186875,1517.8008274186875,0.9994631305127761,0.00015990899839514553
1517.8077719783087,1517.8077719783087,0.9997478751261886,0.00015969851017184783
1517.814716537837,1517.814716537837,0.999986038849823,0.00015954439022111474
1517.821661097552,1517.821661097552,0.9999873554552936,0.00015932454608794312
1517.828605657173,1517.828605657173,1.0002807008528727,0.00015916741784669075
1517.8355502167947,1517.8355502167947,1.0000619586290447,0.00015899401085328065
1517.8424947765093,1517.8424947765093,1.0005547198585556,0.0001588670086143707
1517.8494393362241,1517.8494393362241,1.000839262316278,0.00015874087601080268
1517.856383895752,1517.856383895752,1.000317725697757,0.00015854880971260008
1517.863328455467,1517.863328455467,0.9999506452236947,0.00015836711874345235
1517.8702730152745,1517.8702730152745,0.9999847233639017,0.00015826034366375828
1517.8772175749896,1517.8772175749896,0.9999947383587511,0.00015816139630714848
1517.8841621347037,1517.8841621347037,0.9999783422967654,0.00015806171948442907
1517.8911066943251,1517.8911066943251,0.9997418650609567,0.00015795904997795935
1517.89805125404,1517.89805125404,0.9998150237876992,0.00015787172460674317
1517.9049958137546,1517.9049958137546,0.9998206573876688,0.00015782869483424962
1517.9119403734694,1517.9119403734694,1.0002662456448848,0.00015775105292516745
1517.9188849330908,1517.9188849330908,0.999934759740783,0.00015768166094642897
1517.925829492712,1517.925829492712,0.9998874787055225,0.000157591190701327
1517.9327740524266,1517.9327740524266,1.0002573194877047,0.0001575672784831017
1517.9397186120482,1517.9397186120482,0.9999238344073115,0.00015750629930922732
1517.94777430122,1517.94777430122,1.000051635327353,0.00015739193732809768
1517.9549966431598,1517.9549966431598,0.9999613642648789,0.0001573490491614962
1517.9619412028742,1517.9619412028742,0.9998827603295506,0.00015730781510345313
1517.9688857623096,1517.9688857623096,0.9999374480655338,0.00015724594967365637
1517.9758303218382,1517.9758303218382,0.9999049694785522,0.000157212559966633
1517.9827748814591,1517.9827748814591,1.0001188082004486,0.00015716657507555118
1517.9897194409878,1517.9897194409878,0.9998897602886533,0.0001571105397149508
1517.99666400033,1517.99666400033,1.0001459143461995,0.00015706156207760403
1518.0036085598579,1518.0036085598579,1.0002649160849353,0.00015703076304044662
1518.0105531192935,1518.0105531192935,0.9999251552477997,0.0001569660246098095
1518.0174976786354,1518.0174976786354,0.9997279010952216,0.00015687459210269084
1518.0244422379776,1518.0244422379776,1.0003068488160394,0.00015688719619677527
1518.0313867973198,1518.0313867973198,0.9999413494268378,0.000156842150148016
1518.0383313565685,1518.0383313565685,0.9997538810570823,0.00015678857484051735
1518.0452759158175,1518.0452759158175,0.9998385140591836,0.00015671116331532768
1518.0522204751596,1518.0522204751596,1.0000419457218785,0.00015670487385333233
1518.0591650343156,1518.0591650343156,1.0002248071456266,0.00015666950585391807
1518.0661095933779,1518.0661095933779,1.0002856688468706,0.0001566121296635813
1518.073054152534,1518.073054152534,0.999753894910367,0.00015656322532696428
1518.0799987115965,1518.0799987115965,0.999932738067492,0.00015650769398082705
1518.0869432706593,1518.0869432706593,0.9995884585662888,0.00015640343757398315
1518.0938878296288,1518.0938878296288,1.000048067331457,0.00015643504113062025
1518.1008323885053,1518.1008323885053,1.0001704443430668,0.00015638342141258255
1518.1077769473818,1518.1077769473818,1.000023272791203,0.00015636383760481184
1518.1147215062579,1518.1147215062579,1.000059004358167,0.00015632830945056298
1518.1216660650414,1518.1216660650414,1.0000437443571868,0.0001562541138472334
1518.1286106238244,1518.1286106238244,1.0002676813316396,0.00015623610208475918
1518.135555182515,1518.135555182515,1.000022380488028,0.00015615297104281626
1518.1424997412046,1518.1424997412046,1.0000470710210982,0.00015612660622212757
1518.1494442998019,1518.1494442998019,1.0001350080462197,0.00015608438230974413
1518.1563888583992,1518.1563888583992,1.0007729433048094,0.00015604715191939572
1518.1633334168096,1518.1633334168096,0.9997158409934247,0.000155968409966237
1518.1702779753136,1518.1702779753136,0.9999661498543354,0.00015592648009667075
1518.1772225337245,1518.1772225337245,1.000201029429648,0.00015591996632858765
1518.1841670920421,1518.1841670920421,1.0001087290483628,0.00015588191475925426
1518.1911116502665,1518.1911116502665,1.00023927942176,0.0001558575811605715
1518.1980562086774,1518.1980562086774,1.0001140232018302,0.00015578686004617898
1518.205000766622,1518.205000766622,1.0003899828926675,0.00015581627281646107
1518.2119453249397,1518.2119453249397,1.000165266186573,0.00015579531498433562
1518.2188898829786,1518.2188898829786,0.9999178115564152,0.0001557315657067776
1518.225834440923,1518.225834440923,0.9999415171105592,0.00015570199195276088
1518.2327789988685,1518.2327789988685,1.0002753508027389,0.00015572405248564348
1518.2397235568137,1518.2397235568137,0.999926236173921,0.00015566419563180938
1518.2466681145722,1518.2466681145722,0.9998789498604659,0.00015568094677326146
1518.2536126722382,1518.2536126722382,1.0001354324332326,0.00015570237745317247
1518.260557229997,1518.260557229997,1.0000204778844566,0.0001556836837594228
1518.267779569887,1518.267779569887,0.9996091063031726,0.00015558824639844038
1518.2758352567312,1518.2758352567312,1.0000363259903091,0.00015561281210974847
1518.2827798142102,1518.2827798142102,1.0001594062243693,0.0001556472272625327
1518.2897243715965,1518.2897243715965,0.9996942279029872,0.0001555798664283393
1518.2966689289833,1518.2966689289833,1.0001188571046948,0.00015558288534806624
1518.3036134862764,1518.3036134862764,1.0002321991340395,0.0001555380484663792
1518.310558043476,1518.310558043476,1.0004899670229697,0.0001555753215030306
1518.318891512079,1518.318891512079,0.999774867784156,0.00015552980363546726
1518.3258360690927,1518.3258360690927,0.9998051954137823,0.00015545415697103536
1518.3327806261066,1518.3327806261066,1.0000023129786446,0.00015546656671691232
1518.33972518312,1518.33972518312,0.9999622541196563,0.0001554510706089354
1518.3466697399476,1518.3466697399476,0.999879283225565,0.00015545534188578298
1518.3536142967755,1518.3536142967755,1.0000934097431224,0.00015544920591562347
1518.3605588535097,1518.3605588535097,1.0004514745056918,0.00015545965738856827
1518.367503410058,1518.367503410058,1.0001647489883236,0.00015540987436638142
1518.374447966699,1518.374447966699,1.0000598325204468,0.00015541407257981866
1518.381392523247,1518.381392523247,0.9997554540637926,0.00015536850833229446
1518.3883370796088,1518.3883370796088,0.9996746336416784,0.0001553462996782746
1518.395281635971,1518.395281635971,1.0000263048791118,0.00015530586672030046
1518.4022261923324,1518.4022261923324,0.9996788764405355,0.00015527292347426199
1518.4091707485084,1518.4091707485084,0.9997180512261759,0.0001552089730584159
1518.416948651358,1518.416948651358,0.9997973118973504,0.0001551919514368387
1518.4244487718897,1518.4244487718897,0.9998768279683181,0.00015515880818299516
1518.4313933278793,1518.4313933278793,1.000178917649276,0.00015514694420740418
1518.4383378837754,1518.4383378837754,1.0000296304062994,0.00015509711349360965
1518.445282439578,1518.445282439578,1.0002059668450773,0.00015504921611849312
1518.4522269954746,1518.4522269954746,1.0001889411992693,0.00015507418895820564
1518.4591715510912,1518.4591715510912,1.000136906753977,0.00015501820846790745
1518.4675050178316,1518.4675050178316,1.0003071445767362,0.00015496508046450975
1518.4744495731688,1518.4744495731688,1.0002134460492456,0.00015503408339275255
1518.4813941285995,1518.4813941285995,1.000056566569776,0.00015500520128027405
1518.4883386839367,1518.4883386839367,0.9996165760007504,0.0001549595199909813
1518.495283239181,1518.495283239181,1.0000960255495874,0.0001549995694503637
1518.5022277944252,1518.5022277944252,0.9998253406115591,0.0001549589739259293
1518.5091723494832,1518.5091723494832,0.9998376225766223,0.0001549396877284533
1518.5161169045411,1518.5161169045411,0.9999318631844183,0.00015496472227588255
1518.523061459413,1518.523061459413,0.9998395665445615,0.0001549776032183675
1518.5300060142847,1518.5300060142847,1.0000729115093452,0.00015501743524537666
1518.5369505690628,1518.5369505690628,1.0001065220170073,0.00015499363206005666
1518.5438951237484,1518.5438951237484,0.999767539704868,0.00015498879957996715
1518.5508396783412,1518.5508396783412,0.9998902741742853,0.00015498842484337852
1518.5577842328403,1518.5577842328403,1.000196787698035,0.00015501467089179647
1518.5647287872466,1518.5647287872466,1.0001827412112454,0.00015500453661193052
1518.5716733417455,1518.5716733417455,1.0000285407490899,0.00015502258189765294
1518.5786178959654,1518.5786178959654,0.9998870577245457,0.00015498409895123094
1518.585562450092,1518.585562450092,0.9999418459503356,0.00015496428583310415
1518.5925070042188,1518.5925070042188,1.0001201883560564,0.0001549771239069659
1518.599451558252,1518.599451558252,0.9995811848290922,0.0001549647302602223
1518.6063961121927,1518.6063961121927,1.0002131867086743,0.00015502152467548983
1518.61334066604,1518.61334066604,1.0000543215392754,0.00015500206803214652
1518.6202852197937,1518.6202852197937,1.000068456833231,0.00015501704195904846
1518.6272297735482,1518.6272297735482,0.9998806921718714,0.00015497640741031187
1518.6341743270227,1518.6341743270227,0.9997033071723361,0.00015500810425233386
1518.6411188807772,1518.6411188807772,1.0005218378556984,0.0001550703242186322
1518.6480634340655,1518.6480634340655,1.0000087462192049,0.00015504473335426885
1518.655007987354,1518.655007987354,0.999861972413336,0.0001549808705613468
1518.6619525406422,1518.6619525406422,1.0000225397903453,0.0001550211902835749
1518.6688970939308,1518.6688970939308,0.9999688083155229,0.00015502822607277406
1518.675841646754,1518.675841646754,0.9999847211796838,0.00015503681108176016
1518.6827861998559,1518.6827861998559,1.0001847160814357,0.00015506066025215942
1518.6897307527718,1518.6897307527718,0.9999646891460984,0.00015506788770012342
1518.6966753055945,1518.6966753055945,1.0001516350137272,0.0001550867614822363
1518.7036198583244,1518.7036198583244,0.9999314237856943,0.0001550867312520808
1518.7105644109604,1518.7105644109604,0.9998790848997989,0.0001550491214199465
1518.7175089635043,1518.7175089635043,0.9997616634475112,0.00015504737177040386
1518.7244535159546,1518.7244535159546,0.9996726331857676,0.00015505691717040791
1518.7313980683116,1518.7313980683116,1.0003260324901704,0.0001551185735403898
1518.738342620669,1518.738342620669,1.0001451711860183,0.0001551313739708475
1518.7452871727467,1518.7452871727467,1.000028643894502,0.00015511966563074183
1518.7522317249175,1518.7522317249175,1.0000594211962375,0.00015513806700244944
1518.759176276902,1518.759176276902,1.0001617662513493,0.00015513233331738134
1518.7661208287939,1518.7661208287939,1.0001054350966694,0.00015509220957352107
1518.7730653806848,1518.7730653806848,0.9995112490020149,0.00015507224894953804
1518.7800099323904,1518.7800099323904,1.0001123854584386,0.00015513909166914517
1518.7869544840025,1518.7869544840025,0.9999493715930704,0.00015512934700781137
1518.7938990356142,1518.7938990356142,1.0000056821724814,0.00015512351366990342
1518.8008435870404,1518.8008435870404,1.000086984765785,0.00015513054992527796
1518.807788138373,1518.807788138373,0.9997695641949053,0.00015512301109908626
1518.8147326897056,1518.8147326897056,1.0001813272150575,0.00015514040420386565
1518.821677240945,1518.821677240945,1.0000353407657725,0.00015512929877721865
1518.8286217920918,1518.8286217920918,1.0002410636766956,0.00015514284060174507
1518.8355663430518,1518.8355663430518,0.9996777870187733,0.00015512743884245757
1518.8425108940123,1518.8425108940123,1.0000029836971136,0.00015514777829864896
1518.8494554447857,1518.8494554447857,1.000303959266772,0.00015517528083217632
1518.856399995467,1518.856399995467,0.9998713234054442,0.00015513080353452032
1518.8633445460546,1518.8633445460546,0.9998619958622902,0.00015513843069814038
1518.870289096642,1518.870289096642,1.0000799532934121,0.0001551479246213591
1518.8772336471363,1518.8772336471363,0.999850472657337,0.00015514415219687646
1518.8841781974447,1518.8841781974447,0.9999931170823432,0.00015517690509396948
1518.891122747753,1518.891122747753,1.0000529638032387,0.00015516153686561158
1518.8980672979678,1518.8980672979678,1.0000285933944695,0.00015517497668213884
1518.9050118479968,1518.9050118479968,0.9999136198553129,0.00015515156357551605
1518.9119563979325,1518.9119563979325,1.0002624899351513,0.0001551839092534113
1518.918900947961,1518.918900947961,1.000042994229257,0.0001551645483651606
1518.9258454977107,1518.9258454977107,0.9998251149276307,0.00015513885437487286
1518.9327900473668,1518.9327900473668,0.9997956030364861,0.00015516283555739148
1518.9397345970233,1518.9397345970233,1.0001407839430017,0.00015518541685958134
1518.9466791464936,1518.9466791464936,1.000077722635209,0.0001552163674854537
1518.9536236958702,1518.9536236958702,1.0001945861517199,0.00015521646684148223
1518.9605682452475,1518.9605682452475,0.999991941181611,0.00015518310243435221
1518.9675127944379,1518.9675127944379,1.0002359444763986,0.00015520965546818853
1518.9744573436287,1518.9744573436287,1.0001351999909516,0.00015521381118873163
1518.9814018926331,1518.9814018926331,1.0000432878222039,0.0001551916206015515
1518.9883464415445,1518.9883464415445,1.0000613196275085,0.00015523038314468944
1518.9952909904555,1518.9952909904555,0.9997495005869246,0.00015516530684472923
1519.0022355390877,1519.0022355390877,0.9997960564320053,0.00015518057445498094
1519.0091800877194,1519.0091800877194,1.0001623244299576,0.0001552070734740022
1519.016124636351,1519.016124636351,0.9997741556243589,0.0001551856268977961
1519.0230691849831,1519.0230691849831,0.9999964709963841,0.0001551859931417224
1519.0300137331492,1519.0300137331492,0.9998038412568381,0.00015510537384510632
1519.0369582815015,1519.0369582815015,0.9998635270665158,0.00015511672084298078
1519.0439028296678,1519.0439028296678,0.9997346039444857,0.00015510623114049684
1519.050847377834,1519.050847377834,1.0001256563471368,0.0001550731266604476
1519.0577919257207,1519.0577919257207,0.9998564956187179,0.0001550532484149165
1519.0647364737006,1519.0647364737006,1.0004776385216836,0.0001550875607512101
1519.0716810214008,1519.0716810214008,1.0004434594318243,0.0001550870040930466
1519.0786255691016,1519.0786255691016,1.0002473884672631,0.00015504092822700235
1519.085570116709,1519.085570116709,1.0000254026882964,0.00015500117465253925
1519.0925146642232,1519.0925146642232,0.9998994676161367,0.0001549864459697047
1519.0994592116444,1519.0994592116444,0.9999384360607415,0.00015500705381658766
1519.1064037589724,1519.1064037589724,0.9998564430026489,0.00015500987025699752
1519.1133483062072,1519.1133483062072,1.0001174231092398,0.00015502526881298575
1519.120292853256,1519.120292853256,0.9999961627191407,0.00015504127372903347
