time,time,flux,flux_err
1325.300295182581,1325.300295182581,1.000112645432479,0.00011101724999946728
1325.3086284589344,1325.3086284589344,1.000043965768479,0.00011103538038752023
1325.3169617355409,1325.3169617355409,0.9999200245572162,0.00011103212102294296
1325.3246005726064,1325.3246005726064,0.999890069595987,0.00010136323580858223
1325.3315449700626,1325.3315449700626,0.9999897605111887,0.00010137049472444725
1325.338489367659,1325.338489367659,0.9999283449866059,0.00010137715000629414
1325.3454337654412,1325.3454337654412,0.999990737686906,0.00010138768183522669
1325.352378163363,1325.352378163363,0.9999319443737107,0.00010138911317662987
1325.359322561378,1325.359322561378,0.9999911188480921,0.00010140220743552091
1325.3662669595792,1325.3662669595792,1.0001129990782782,0.00010142071728618503
1325.3732113578503,1325.3732113578503,1.0001046080847067,0.00010142534605411512
1325.3801557562845,1325.3801557562845,0.9999921676850866,0.00010142523215824698
1325.3871001548582,1325.3871001548582,0.9999178044440967,0.00010142948674282414
1325.394044553595,1325.394044553595,1.000008988703648,0.0001014422821808021
1325.4009889524482,1325.4009889524482,0.9999903200250767,0.00010144702693639407
1325.4079333513946,1325.4079333513946,1.000037600397949,0.00010145432926948342
1325.4148777504804,1325.4148777504804,1.0000299232309562,0.00010145875976003583
1325.4218221497297,1325.4218221497297,0.9999969956829127,0.0001014631575620175
1325.4287665491415,1325.4287665491415,0.9999106677569676,0.00010146850719611941
1325.4357109485768,1325.4357109485768,1.000040022666113,0.00010148365087417113
1325.4426553481985,1325.4426553481985,1.0000834891250558,0.00010148548974741964
1325.449599747913,1325.449599747913,0.9998133893821196,0.00010148125281571008
1325.4565441478142,1325.4565441478142,0.9999591925816791,0.00010149602595969562
1325.4634885477612,1325.4634885477612,0.9999271001841603,0.00010149105185841708
1325.4704329478952,1325.4704329478952,1.0001479568769205,0.00010151402154900011
1325.4773773481222,1325.4773773481222,1.000030518253714,0.00010151447976445316
1325.4843217484654,1325.4843217484654,0.9998293217299627,0.0001015093664063138
1325.4912661489484,1325.4912661489484,1.00017601930155,0.00010153446893050298
1325.4982105495249,1325.4982105495249,1.0001901010825016,0.00010154452937116759
1325.505154950194,1325.505154950194,1.0000669401188893,0.0001015473656627242
1325.5120993510034,1325.5120993510034,0.9999912613733967,0.00010154498477322521
1325.5190437519282,1325.5190437519282,0.9998742882445966,0.00010154333380228199
1325.5259881529935,1325.5259881529935,0.9998856249231588,0.00010155939375115707
1325.5329325541747,1325.5329325541747,0.9999668351475114,0.0001015686428250427
1325.5398769554029,1325.5398769554029,0.9998719246962832,0.00010157351419497892
1325.546821356771,1325.546821356771,0.9999243562482351,0.00010158266217713205
1325.553765758255,1325.553765758255,1.0001111828187563,0.00010159891638008897
1325.5607101598557,1325.5607101598557,1.0000540543740637,0.00010160176675762909
1325.5676545615959,1325.5676545615959,1.0002784560352498,0.00010161559307915505
1325.5745989633594,1325.5745989633594,1.0000192648559314,0.00010161360968676233
1325.5815433652865,1325.5815433652865,0.9999745951570983,0.00010161185897707339
1325.5884877672822,1325.5884877672822,0.9998293703260389,0.00010160854320609425
1325.5954321693953,1325.5954321693953,0.9999275423532186,0.00010162078421985536
1325.6023765716245,1325.6023765716245,0.9999543893056726,0.00010162263797543695
1325.6093209739238,1325.6093209739238,0.9999566185173204,0.0001016309636825831
1325.6162653763627,1325.6162653763627,1.0000729827481898,0.00010163828493872727
1325.6232097788945,1325.6232097788945,1.0001089152229308,0.00010164563310317589
1325.6301541815196,1325.6301541815196,1.0000338332173502,0.00010164272794907647
1325.6370985842145,1325.6370985842145,0.9998640272151661,0.00010163273897110968
1325.6440429870488,1325.6440429870488,1.0000896454418444,0.00010164401288583626
1325.6509873899768,1325.6509873899768,1.0000436308845957,0.00010163942510739614
1325.657931792951,1325.657931792951,0.9999731186375147,0.0001016411246779437
1325.6648761960419,1325.6648761960419,0.9999370698039185,0.00010163500896853562
1325.6718205992488,1325.6718205992488,0.9999544373705426,0.00010163553788228973
1325.6787650025258,1325.6787650025258,0.9999584433948907,0.00010163781627908486
1325.6857094058962,1325.6857094058962,1.0001322527266374,0.00010164885393417414
1325.692653809406,1325.692653809406,1.0000819815819155,0.00010165132655113308
1325.6995982129158,1325.6995982129158,0.9999727480691213,0.00010164498817437202
1325.7065426165423,1325.7065426165423,0.9998956060658075,0.00010164296121637521
1325.7134870202613,1325.7134870202613,1.0001062683709905,0.00010165890899103225
1325.720431424074,1325.720431424074,0.9999089196316053,0.00010165374714544257
1325.7273758279562,1325.7273758279562,0.9999910471414969,0.00010166073049904193
1325.734320231978,1325.734320231978,0.9999980324802541,0.00010166524592489436
1325.7412646360704,1325.7412646360704,1.0001079944941758,0.00010167320806550092
1325.7482090401618,1325.7482090401618,0.9999509793896785,0.00010166674972627321
1325.755153444417,1325.755153444417,0.9999517660028812,0.00010167882981892845
1325.7620978487184,1325.7620978487184,0.9998585061893938,0.00010167291876702459
1325.769042253113,1325.769042253113,1.0000329976706677,0.00010168499665614581
1325.7759866575773,1325.7759866575773,1.0001399180654582,0.00010169341336644538
1325.782931062135,1325.782931062135,1.000107551600801,0.00010170026861656292
1325.7898754666926,1325.7898754666926,0.9999824635986325,0.0001016937196634265
1325.7968198714595,1325.7968198714595,1.0000389819971869,0.0001017052815008165
1325.8037642762267,1325.8037642762267,0.9998046363359236,0.00010169092651233294
1325.8107086810637,1325.8107086810637,0.9999481794771701,0.0001017060583152894
1325.8176530859937,1325.8176530859937,1.000021385666027,0.00010171530244843943
1325.8245974910171,1325.8245974910171,1.0000832557843156,0.00010171727222345315
1325.8315418960867,1325.8315418960867,1.0000332237717529,0.0001017143404358757
1325.8384863012495,1325.8384863012495,0.9999846335079978,0.00010171195141812995
1325.8454307064126,1325.8454307064126,0.9999398458259426,0.00010171177002804024
1325.8523751117614,1325.8523751117614,1.0000285258044552,0.00010171721698988643
1325.859319517111,1325.859319517111,0.9999883652707728,0.00010170882870132606
1325.86626392253,1325.86626392253,1.0001736133311856,0.00010171814651038143
1325.8732083280424,1325.8732083280424,1.0001010520078404,0.00010171342836993701
1325.8801527336009,1325.8801527336009,0.9999745134325282,0.00010170057434367131
1325.8870971392294,1325.8870971392294,0.9999359620439978,0.00010169705915522671
1325.8940415449279,1325.8940415449279,1.0000120759253335,0.00010169785770351505
1325.900985950673,1325.900985950673,0.999938918061092,0.00010169040950202225
1325.9079303565109,1325.9079303565109,1.0000816439705593,0.00010169698940663617
1325.914874762419,1325.914874762419,1.0000780204807223,0.00010168695107672579
1325.921819168373,1325.921819168373,0.9998461645502864,0.00010168026893408754
1325.928763574375,1325.928763574375,1.0000390159314905,0.00010169217331000293
1325.9357079804688,1325.9357079804688,1.0000723922064034,0.00010168429849600981
1325.9426523866098,1325.9426523866098,1.000024555622493,0.0001016841697017774
1325.9495967928203,1325.9495967928203,0.9998532998477156,0.0001016719789096461
1325.9565411990775,1325.9565411990775,0.9999596987695405,0.00010167798071920503
1325.9643189341987,1325.9643189341987,1.0000574424040907,0.00010168624909601626
1325.971818893039,1325.971818893039,1.0000442831385508,0.00010167712092079926
1325.9787632995526,1325.9787632995526,1.000058146057007,0.00010168067592852266
1325.9857077060424,1325.9857077060424,0.9999550616616937,0.00010168342919844605
1325.992652112579,1325.992652112579,1.0000279284199973,0.00010168325802554963
1325.9995965192088,1325.9995965192088,1.0000358907670637,0.0001016842007817382
1326.0065409259082,1326.0065409259082,1.0000008343994464,0.00010168650076484577
1326.0134853326313,1326.0134853326313,1.0000158781692827,0.00010169237856668665
1326.0204297394241,1326.0204297394241,0.9998599229153756,0.0001016839841772163
1326.0273741462638,1326.0273741462638,0.9999313485128452,0.00010169855782248228
1326.0343185531494,1326.0343185531494,1.0000873086295887,0.0001017075008518837
1326.0412629601278,1326.0412629601278,1.0000269299428834,0.00010170600366484153
1326.0482073671305,1326.0482073671305,0.9999892235340857,0.00010170037825495476
1326.0551517741328,1326.0551517741328,1.0001027256842543,0.00010170827823853975
1326.0620961812515,1326.0620961812515,0.9998866143700974,0.00010169809027379814
1326.0690405884168,1326.0690405884168,1.0001465997329162,0.00010171957699432068
1326.0759849956048,1326.0759849956048,0.9999587866124916,0.00010170623317085193
1326.082929402864,1326.082929402864,0.999920303065698,0.00010170552001727627
1326.0898738101687,1326.0898738101687,0.99994741211113,0.0001017076718209177
1326.096818217497,1326.096818217497,1.0000328103333722,0.00010171707812482314
1326.1037626248722,1326.1037626248722,1.000120403415893,0.00010171895440205209
1326.1107070323164,1326.1107070323164,1.000004292375301,0.00010171544990030933
1326.1176514398308,1326.1176514398308,0.9998928216251912,0.00010171256989170779
1326.1245958472987,1326.1245958472987,1.0000761315272928,0.00010171786142226983
1326.1315402548835,1326.1315402548835,0.9998841596824993,0.00010170532211963446
1326.1384846625606,1326.1384846625606,0.9999957560377993,0.00010170847413520569
1326.1454290702152,1326.1454290702152,0.9997820495163635,0.00010170311503356747
1326.1523734779157,1326.1523734779157,1.0000509377038846,0.00010171078597889908
1326.159317885686,1326.159317885686,1.0002134412943202,0.00010171943441301769
1326.1662622934805,1326.1662622934805,1.0001320344308948,0.00010171480174031582
1326.1732067012972,1326.1732067012972,1.0001704160668,0.00010171598305064134
1326.1801511091846,1326.1801511091846,0.9999009663328893,0.0001016969803234238
1326.1870955171182,1326.1870955171182,0.9999315539930244,0.00010170226373907459
1326.1940399250748,1326.1940399250748,1.0000359509683492,0.00010170310953734744
1326.2009843330786,1326.2009843330786,0.9997995762149594,0.000101696087624417
1326.2079287411284,1326.2079287411284,0.9997969429679294,0.00010168587694205328
1326.214873149202,1326.214873149202,1.0001163872208236,0.00010170263435985688
1326.2218175573219,1326.2218175573219,0.999972977109555,0.00010170538940408702
1326.228761965488,1326.228761965488,1.000112694429938,0.00010170927867219202
1326.2357063736545,1326.2357063736545,1.0001156508323357,0.0001017115669311379
1326.2426507819368,1326.2426507819368,1.000035129221449,0.00010170449555763861
1326.249595190197,1326.249595190197,0.9999419601955722,0.00010169502500440836
1326.2565395985262,1326.2565395985262,1.0000750747782985,0.00010170689943074015
1326.263484006856,1326.263484006856,0.9999600784746712,0.0001017009685625748
1326.270428415232,1326.270428415232,0.9999675991553435,0.00010169712468737025
1326.2773728236775,1326.2773728236775,0.9999859103444718,0.00010170111641186124
1326.2843172321236,1326.2843172321236,0.9999150978806283,0.00010170048022721079
1326.2912616405924,1326.2912616405924,1.0000892305368505,0.00010170826224026424
1326.2982060491315,1326.2982060491315,0.9998785807683829,0.000101696980365202
1326.3051504576938,1326.3051504576938,1.0000787637373112,0.00010170710472882382
1326.312094866256,1326.312094866256,0.9999144304393826,0.00010169927970799504
1326.3190392748882,1326.3190392748882,1.0000820638025647,0.00010170662008494036
1326.3259836835432,1326.3259836835432,0.9999482285545163,0.00010170156990644583
1326.3329280922223,1326.3329280922223,0.9999570970209053,0.00010170436662168534
1326.3398725009242,1326.3398725009242,1.0000208850951346,0.00010170292055387733
1326.3473724623727,1326.3473724623727,1.00003800292048,0.00010170909878827361
1326.356539082037,1326.356539082037,1.0000260947602526,0.00010171080610794736
1326.363483490832,1326.363483490832,1.000127050076922,0.00010171501222563152
1326.370427899697,1326.370427899697,0.9999910834341446,0.00010170669424662364
1326.377372308562,1326.377372308562,0.9999417664865581,0.00010171003266412786
1326.3843167174966,1326.3843167174966,1.0000463364336152,0.00010171848069290893
1326.3912611264316,1326.3912611264316,0.999926089918781,0.0001017157806763886
1326.398205535413,1326.398205535413,0.9999358068130274,0.0001017128756759713
1326.4051499444174,1326.4051499444174,0.9999642957423234,0.00010171565851073948
1326.4120943534458,1326.4120943534458,1.000081458091086,0.00010172768039955556
1326.4190387624967,1326.4190387624967,0.999881310456413,0.00010172040485378612
1326.4259831715713,1326.4259831715713,1.0001179744739612,0.00010172709767503348
1326.432927580669,1326.432927580669,0.999992417364855,0.00010172833833484817
1326.4398719898131,1326.4398719898131,1.000080003066221,0.00010172910392915889
1326.446816398981,1326.446816398981,0.9999478678258148,0.00010172829916738886
1326.4537608081716,1326.4537608081716,1.0000501412325242,0.00010173528776625993
1326.4607052173858,1326.4607052173858,0.999848659322953,0.00010172687660294695
1326.4676496266468,1326.4676496266468,1.0001004975402314,0.00010174103771968497
1326.474594035884,1326.474594035884,0.9999539127989386,0.00010173098494205282
1326.4815384452147,1326.4815384452147,1.0000327238869138,0.00010173977351406656
1326.488482854545,1326.488482854545,1.0000570069071757,0.00010174059590224951
1326.4954272638759,1326.4954272638759,0.9999954455636985,0.00010173716762304718
1326.5023716732062,1326.5023716732062,0.999939572941452,0.00010173630618717344
1326.5093160825838,1326.5093160825838,0.9997948542059907,0.00010172690872304452
1326.516260491984,1326.516260491984,1.0001508205903504,0.00010175232050980225
1326.523204901431,1326.523204901431,0.9999287031160626,0.00010173661484379525
1326.5301493108784,1326.5301493108784,1.0001788942813268,0.0001017553246838388
1326.5370937203716,1326.5370937203716,0.9999501234931081,0.00010174785820212299
1326.5440381298422,1326.5440381298422,1.0001260537868377,0.00010176182631468939
1326.5509825393824,1326.5509825393824,1.0000037309220149,0.00010175751522842956
1326.5579269489222,1326.5579269489222,0.9999903436267651,0.00010176279457142757
1326.5648713584858,1326.5648713584858,0.9998859834327304,0.00010175475769910299
1326.571815768049,1326.571815768049,0.9999961487304834,0.00010175826763181829
1326.5787601776824,1326.5787601776824,1.0000852771880422,0.0001017628046950587
1326.5857045872922,1326.5857045872922,0.9999015938435922,0.00010176024650391995
1326.5926489969258,1326.5926489969258,0.9999410090123664,0.00010176084702294369
1326.5995934066054,1326.5995934066054,1.0000416921309638,0.00010176759197500378
1326.606537816262,1326.606537816262,0.9998607978425598,0.00010175856478478491
1326.6134822259887,1326.6134822259887,1.0001021479640797,0.00010177053230328013
1326.620426635715,1326.620426635715,1.0000230334259146,0.00010177177861097336
1326.6273710454184,1326.6273710454184,1.0000872307050326,0.00010176970942108357
1326.634315455191,1326.634315455191,0.9998804132132293,0.00010176056164404521
1326.6412598649642,1326.6412598649642,0.9999651412161571,0.00010177049079736107
1326.6482042747602,1326.6482042747602,1.0001462550307976,0.00010177632277912805
1326.6551486845565,1326.6551486845565,1.0001168308635622,0.00010177468238787013
1326.6620930943996,1326.6620930943996,0.9999435155823617,0.0001017607241989252
1326.6690375042422,1326.6690375042422,1.0000618848352236,0.00010175958140080761
1326.6759819141084,1326.6759819141084,0.9998378572387796,0.00010175576421248612
1326.6829263239513,1326.6829263239513,1.0000038143839929,0.00010175627090271571
1326.69098183945,1326.69098183945,0.9998872374503958,0.00010175216708033692
1326.698204025759,1326.698204025759,0.9999090296982459,0.00010175197886032284
1326.7051484356716,1326.7051484356716,1.000106563966015,0.00010175496523752961
1326.7126483984243,1326.7126483984243,0.9999912621243983,0.00010174803727217846
1326.7204261375962,1326.7204261375962,1.0001901223522391,0.00010175759989271068
1326.7273705475786,1326.7273705475786,0.9999820109430205,0.0001017417622178085
1326.734314957561,1326.734314957561,1.0001201759828269,0.00010174310099920263
1326.741259367567,1326.741259367567,0.9998884655009747,0.00010173042223929651
1326.7482037775958,1326.7482037775958,1.0000369556130928,0.00010173798717530956
1326.7551481876249,1326.7551481876249,0.9998568997566624,0.00010172810367388111
1326.7620925976776,1326.7620925976776,0.9997811208949429,0.00010172205349322141
1326.7690370077296,1326.7690370077296,1.0001688840210086,0.0001017391663371843
1326.7759814178053,1326.7759814178053,1.0000613458477106,0.00010173509580286793
1326.7829258279046,1326.7829258279046,0.9999684089748431,0.00010172912442821399
1326.7898702380032,1326.7898702380032,0.9999623890572387,0.00010172914909774003
1326.7968146481023,1326.7968146481023,1.0001193075351245,0.00010173672295715409
1326.803759058248,1326.803759058248,1.0001364841875429,0.00010174038525821105
1326.8107034683935,1326.8107034683935,1.0000221497358175,0.00010173548716187443
1326.8176478785385,1326.8176478785385,0.9999677177516298,0.00010173244783300971
1326.8245922887077,1326.8245922887077,0.9999733562105192,0.00010173081673641544
1326.8315366988763,1326.8315366988763,0.9997164903594861,0.00010172235486828061
1326.8384811090452,1326.8384811090452,1.0000189420561982,0.00010173359916832014
1326.8454255192605,1326.8454255192605,0.999987768991096,0.00010173089783781953
1326.8523699294524,1326.8523699294524,0.9999629134542373,0.00010172669894116808
1326.859314339691,1326.859314339691,1.0001392726812157,0.00010173489004718037
1326.8662587499302,1326.8662587499302,0.9999921679157442,0.00010172767909021917
1326.873203160169,1326.873203160169,1.0000911478709822,0.00010172616605008135
1326.8801475704072,1326.8801475704072,1.0000155091066092,0.0001017228073205497
1326.8870919806693,1326.8870919806693,1.0000738142588497,0.00010171663805350882
1326.8940363909308,1326.8940363909308,0.999902119072193,0.00010170559863744536
1326.9009808012165,1326.9009808012165,0.9999791505098117,0.00010170155096840632
1326.9079252115248,1326.9079252115248,0.9999828205228496,0.00010169673074416266
1326.9148696218333,1326.9148696218333,1.0000533718308584,0.00010169902924863378
1326.9218140321184,1326.9218140321184,0.9999201266771323,0.00010168607870163428
1326.9287584424503,1326.9287584424503,0.9999573686032361,0.00010168733075761271
1326.9357028527588,1326.9357028527588,1.0001778688707077,0.00010169771987464753
1326.9426472631135,1326.9426472631135,0.9998827519569662,0.00010167262276575059
1326.9495916734222,1326.9495916734222,1.0001007675685838,0.00010167987988756134
1326.9565360838005,1326.9565360838005,0.9998753441608143,0.00010166475042012412
1326.9634804941559,1326.9634804941559,0.9998927728206054,0.00010166483721020705
1326.970424904511,1326.970424904511,1.0000416146085667,0.00010166463994702298
1326.9773693148886,1326.9773693148886,1.000081035507019,0.00010165915446091447
1326.9843137252908,1326.9843137252908,0.9999112171195226,0.00010164301405797642
1326.9912581356689,1326.9912581356689,1.0000387650948253,0.00010164992197968132
1326.998202546071,1326.998202546071,1.0001636683399742,0.00010165387974584538
1327.0051469564723,1327.0051469564723,1.000207557665153,0.00010165626228108252
1327.0120913668738,1327.0120913668738,0.999853117333713,0.00010163624632423243
1327.0190357772985,1327.0190357772985,0.9998611634871505,0.00010163711941859566
1327.0259801877237,1327.0259801877237,1.000011909145187,0.00010164416398610073
1327.0329245981488,1327.0329245981488,1.0000012872810058,0.00010164081904864043
1327.0398690085965,1327.0398690085965,0.9999223138778877,0.00010164131611071494
1327.0468134190453,1327.0468134190453,0.9999702108924368,0.0001016437580914185
1327.05375782947,1327.05375782947,0.9999490525242223,0.00010163680802393888
