time,time,flux,flux_err
1385.9557206844368,1385.9557206844368,1.000002086868051,0.00014826469908869536
1385.9640542198824,1385.9640542198824,1.0000728711645914,0.00014826959784401003
1385.9716932939398,1385.9716932939398,0.9998853985754568,0.00013533457264274418
1385.9786379066018,1385.9786379066018,1.0000542669768417,0.00013533955989268983
1385.985582519125,1385.985582519125,0.9997391901315961,0.00013531959804594166
1385.9925271316479,1385.9925271316479,0.999982774322244,0.0001353342986524511
1385.9994717441234,1385.9994717441234,1.0003224000831232,0.00013535779102139033
1386.0064163564602,1386.0064163564602,0.999922276996824,0.0001353314804758312
1386.0133609687502,1386.0133609687502,0.9999500638690169,0.00013533667974136406
1386.0203055809463,1386.0203055809463,0.9998571075342444,0.0001353264404959506
1386.0272501930503,1386.0272501930503,1.0002197909288477,0.00013535075507569832
1386.0341948051077,1386.0341948051077,1.0002612071468633,0.00013535471782464702
1386.041139417071,1386.041139417071,0.9999843947913073,0.00013533787731951843
1386.0480840289422,1386.0480840289422,0.9997903520335122,0.00013532634310920631
1386.0550286407667,1386.0550286407667,0.9999134919978199,0.00013532797670485954
1386.061973252451,1386.061973252451,1.0000149491408385,0.00013534087704217957
1386.068917864182,1386.068917864182,1.0000018369721906,0.00013533947086055874
1386.0758624757273,1386.0758624757273,0.9999596840561733,0.00013534160803769157
1386.0828070872717,1386.0828070872717,0.9999736916231982,0.0001353389595925819
1386.0897516985835,1386.0897516985835,1.000000596726158,0.00013533537531765908
1386.096696309989,1386.096696309989,0.9999560217751314,0.00013534369048431703
1386.1036409212545,1386.1036409212545,1.0001991296282182,0.00013535075054316956
1386.1105855324263,1386.1105855324263,1.0001454927153517,0.00013534919058134492
1386.117530143506,1386.117530143506,0.9998973023004816,0.00013533678556478548
1386.124474754492,1386.124474754492,0.9999783155349696,0.00013534086958872247
1386.1314193654775,1386.1314193654775,0.999849320305444,0.00013533105784099803
1386.1383639763706,1386.1383639763706,0.9999184742612668,0.0001353406442454583
1386.1453085871713,1386.1453085871713,1.000004505868252,0.00013533974926205534
1386.1522531979238,1386.1522531979238,1.0002338041227765,0.00013536134546185115
1386.1591978085373,1386.1591978085373,0.9998855373083547,0.00013533111128763225
1386.1661424190584,1386.1661424190584,1.0000014777238058,0.00013533813848722287
1386.173087029671,1386.173087029671,0.9999702459254879,0.00013533936670778892
1386.1800316400518,1386.1800316400518,1.0001474754047226,0.00013534926495150471
1386.1869762503861,1386.1869762503861,0.9999301969632792,0.00013533197819815047
1386.1939208605806,1386.1939208605806,0.9998347894214422,0.00013532792014602863
1386.2008654707747,1386.2008654707747,1.0000941564422587,0.0001353442787086
1386.2078100808299,1386.2078100808299,0.9998838978160199,0.000135335442615368
1386.2147546908848,1386.2147546908848,1.0001938002797013,0.00013535817719751735
1386.2216993008456,1386.2216993008456,1.0000514259241353,0.00013534435216973106
1386.2286439106679,1386.2286439106679,1.0000731093642545,0.00013534095596514766
1386.2355885204904,1386.2355885204904,0.9999620326250724,0.00013534255249058393
1386.2425331302181,1386.2425331302181,0.9999881865034181,0.00013534198647512511
1386.2494777398078,1386.2494777398078,0.9999971034579576,0.00013534726069537036
1386.2564223494435,1386.2564223494435,0.9998633516250905,0.0001353445390499338
1386.2633669588927,1386.2633669588927,0.9998718494888722,0.0001353390886120611
1386.2703115682955,1386.2703115682955,1.0000646238101563,0.00013534778914545527
1386.2772561776985,1386.2772561776985,0.9998534443663851,0.00013533526228911408
1386.284200786915,1386.284200786915,1.0001096610077629,0.0001353498691034197
1386.291145396131,1386.291145396131,1.0001953614041033,0.00013535876512020797
1386.2980900051618,1386.2980900051618,1.0000599870911802,0.00013534682958821009
1386.305034614239,1386.305034614239,1.0000013351152646,0.000135347869976193
1386.311979223175,1386.311979223175,0.9998114833653584,0.0001353355999102041
1386.318923832066,1386.318923832066,1.0000282398440814,0.00013534163088000352
1386.3258684408174,1386.3258684408174,1.0001679258297596,0.0001353546843554689
1386.3328130495206,1386.3328130495206,0.9999169115497931,0.00013534077038387
1386.3397576581792,1386.3397576581792,1.000000978589628,0.0001353479043753245
1386.3467022667442,1386.3467022667442,0.9996603060773795,0.0001353268978806062
1386.353646875262,1386.353646875262,1.0002570673133069,0.0001353611227893323
1386.3605914836867,1386.3605914836867,1.0001310165576438,0.0001353532053198056
1386.3680916606631,1386.3680916606631,1.000238519979711,0.00013536110667186873
1386.3758696219143,1386.3758696219143,1.000105717665236,0.0001353563999992273
1386.3828142301063,1386.3828142301063,0.9999217241890672,0.00013534386193613014
1386.389758838159,1386.389758838159,0.9998737738637308,0.000135343536090044
1386.3967034462119,1386.3967034462119,0.9998502076231176,0.0001353401581627931
1386.4036480541702,1386.4036480541702,0.999895331018303,0.00013533767136251308
1386.4105926620366,1386.4105926620366,1.0000076054007234,0.00013534776900852176
1386.41753726981,1386.41753726981,1.0001312898739818,0.00013536197010896941
1386.4244818774891,1386.4244818774891,1.0000482706630363,0.00013535911489027336
1386.4314264851694,1386.4314264851694,1.0001406990177542,0.00013535897253079778
1386.43837109271,1386.43837109271,0.9997921555880451,0.0001353411854620018
1386.445315700203,1386.445315700203,1.000063256881684,0.00013536029230465748
1386.45226030765,1386.45226030765,1.000068370034147,0.00013535318523002772
1386.4592049149576,1386.4592049149576,1.0000391132819062,0.0001353587771779465
1386.4661495222183,1386.4661495222183,0.9998688065167816,0.00013534439967745535
1386.4730941293858,1386.4730941293858,1.0000484489597732,0.00013534799852985734
1386.4800387365535,1386.4800387365535,0.9999537558235032,0.000135347909694161
1386.4869833435819,1386.4869833435819,1.0001234363603069,0.0001353630742099473
1386.4939279505622,1386.4939279505622,0.999893420720524,0.00013534525615917174
1386.500872557451,1386.500872557451,1.0000117300970632,0.00013535475605570257
1386.5078171641999,1386.5078171641999,1.0001976077195223,0.00013536879700300246
1386.5147617709483,1386.5147617709483,0.9998224332993331,0.0001353392371703815
1386.521706377603,1386.521706377603,1.0000643746095075,0.00013535865375781554
1386.528650984166,1386.528650984166,0.9998882294457172,0.00013534158065909113
1386.5355955906816,1386.5355955906816,0.9999366996102413,0.0001353484558916627
1386.5425401971038,1386.5425401971038,0.9998795960551705,0.00013533898128017643
1386.549484803527,1386.549484803527,1.0002131260143146,0.00013536672873174895
1386.5564294097635,1386.5564294097635,1.0000818740109811,0.00013535367323464206
1386.5636518001816,1386.5636518001816,1.0000636811150678,0.00013535039031128965
1386.5717075432876,1386.5717075432876,1.0001608727970515,0.0001353606462524971
1386.5786521493378,1386.5786521493378,1.0001253532441532,0.00013535671817288566
1386.5855967553412,1386.5855967553412,0.9998593073855956,0.00013533857890816206
1386.592541361158,1386.592541361158,0.9999095803944877,0.00013534305356131026
1386.5994859671155,1386.5994859671155,0.9997785979859017,0.00013533231096926845
1386.6064305728396,1386.6064305728396,1.0001409588947863,0.00013535296563393925
1386.6133751784232,1386.6133751784232,1.000045333121986,0.00013534769703130322
1386.6203197840546,1386.6203197840546,1.0000011077483628,0.00013534127397205466
1386.6272643895463,1386.6272643895463,0.999925916348726,0.00013533842804339173
1386.63420899499,1386.63420899499,0.9999018496076587,0.00013533669122365064
1386.6411536003889,1386.6411536003889,1.0002228053347102,0.0001353598403521436
1386.6480982056476,1386.6480982056476,1.0002459523008507,0.00013535409220212955
1386.6550428108587,1386.6550428108587,0.9999440127000762,0.000135338101971378
1386.6619874160244,1386.6619874160244,0.9999215665243918,0.0001353354530126874
1386.6689320210967,1386.6689320210967,1.0000005371252725,0.0001353453692722349
1386.6758766260293,1386.6758766260293,0.999938336296504,0.00013534425301910382
1386.6828212310077,1386.6828212310077,0.9999432360387412,0.00013533851723641896
1386.6897658358473,1386.6897658358473,0.9998475498877737,0.00013533210403168965
1386.696710440594,1386.696710440594,1.0000635493212333,0.00013535566283005222
1386.7036550452926,1386.7036550452926,1.00019928654018,0.00013535967097538549
1386.7105996498528,1386.7105996498528,0.9998453195696925,0.0001353372035391035
1386.7175442544135,1386.7175442544135,0.9998138200698719,0.00013533589525444094
1386.724488858973,1386.724488858973,1.000163041113402,0.00013535167671336866
1386.7314334633465,1386.7314334633465,0.9999924195536787,0.0001353404857723578
1386.7383780676737,1386.7383780676737,1.0000911629854357,0.00013535259742146615
1386.745322671908,1386.745322671908,1.0000891249594475,0.00013535589197476757
1386.7522672760947,1386.7522672760947,0.9999124021563492,0.00013533747750147846
1386.7592118801895,1386.7592118801895,1.000127779773101,0.00013535205759639558
1386.7661564841912,1386.7661564841912,0.9999616083554365,0.00013534640519127233
1386.7733788723276,1386.7733788723276,0.9999454072220454,0.00013533597046160834
1386.7814346128257,1386.7814346128257,0.9998702540795092,0.00013533968947778677
1386.7883792165944,1386.7883792165944,0.9999537043919009,0.00013534648402811444
1386.7953238203158,1386.7953238203158,1.000060230758283,0.00013535320198711874
1386.8022684239904,1386.8022684239904,0.9999505221502603,0.00013534104808984513
1386.809213027573,1386.809213027573,1.000058717904977,0.00013535532814312268
1386.8161576310158,1386.8161576310158,1.000078291763532,0.0001353509905665941
1386.8231022344105,1386.8231022344105,0.9998777341862637,0.0001353422802974702
1386.830046837807,1386.830046837807,1.0002738807276308,0.00013537190137247185
1386.8369914410634,1386.8369914410634,1.0000345576578376,0.00013535745057159909
1386.8439360442721,1386.8439360442721,1.0000629749344385,0.00013534747470032009
1386.850880647389,1386.850880647389,0.9998430805233165,0.00013534331174246768
1386.857825250459,1386.857825250459,0.9997068856149429,0.0001353387046652324
1386.8647698534362,1386.8647698534362,0.9998469262345766,0.0001353456838870182
1386.8717144563652,1386.8717144563652,0.9999665025029781,0.00013535760016277328
1386.8786590592026,1386.8786590592026,1.000165314578712,0.00013536303563689626
1386.8856036619004,1386.8856036619004,1.0001180449831235,0.0001353645436648632
1386.8925482645968,1386.8925482645968,0.9999697919438818,0.0001353522501150047
1386.8994928672012,1386.8994928672012,1.0000261772155903,0.00013536102719897042
1386.9064374697593,1386.9064374697593,1.0000156767386092,0.00013536346500927116
1386.9133820722238,1386.9133820722238,0.9998465013516743,0.00013534646079945843
1386.9203266745947,1386.9203266745947,0.9999405483321693,0.00013535566914351456
1386.927271276966,1386.927271276966,0.9999280297028319,0.00013535327676721971
1386.9342158791983,1386.9342158791983,1.0000927300529743,0.00013537138669291723
1386.9411604813827,1386.9411604813827,1.0001487041422983,0.0001353728919275484
1386.9481050834281,1386.9481050834281,1.0002612954316776,0.00013537553787519702
1386.955049685474,1386.955049685474,0.9999601929225586,0.00013536334456206022
1386.9619942873796,1386.9619942873796,0.9997615769043368,0.00013534811389547606
1386.9689388892846,1386.9689388892846,0.9997928824385547,0.00013534930740218215
1386.9758834910976,1386.9758834910976,0.9999108160180569,0.00013535121634585163
1386.983661444992,1386.983661444992,0.9998626337725302,0.00013535247446935767
1386.9911616147497,1386.9911616147497,1.000296443485639,0.00013537454525751403
1386.998106216376,1386.998106216376,0.9999270667008286,0.00013534905924400613
1387.0050508178633,1387.0050508178633,1.000283887322432,0.00013537953743701165
1387.011995419256,1387.011995419256,0.9999171635700529,0.0001353558948183941
1387.0189400206496,1387.0189400206496,0.9997589434863958,0.0001353443425217667
1387.0258846219037,1387.0258846219037,1.0000520428466435,0.00013535563542095149
1387.0328292231577,1387.0328292231577,0.9998449932574804,0.0001353395209668779
1387.0397738242714,1387.0397738242714,1.000245100907451,0.0001353674667043309
1387.046718425339,1387.046718425339,0.9998282170046071,0.00013534243825214114
1387.053663026267,1387.053663026267,0.9997816783211066,0.000135345050069807
1387.0606076271947,1387.0606076271947,1.0002326786131461,0.00013537164997764185
1387.067552228029,1387.067552228029,1.000030637945954,0.00013536121773760425
1387.0744968288175,1387.0744968288175,0.9999562981636574,0.00013535877496234167
1387.0814414295128,1387.0814414295128,1.000008940000359,0.0001353550610600405
1387.0883860301135,1387.0883860301135,1.00018704658518,0.00013537598703346334
1387.0953306306694,1387.0953306306694,0.9999391764578187,0.0001353569677034178
1387.1022752311317,1387.1022752311317,1.0000135435568396,0.00013536722120488818
1387.1092198315473,1387.1092198315473,0.9998911087951312,0.0001353556519987608
1387.1161644319156,1387.1161644319156,0.9999298922000636,0.00013535212917819713
1387.1231090320987,1387.1231090320987,0.9999015424159055,0.0001353424934015066
1387.130053632329,1387.130053632329,0.9999482959309665,0.0001353557618322978
1387.136998232464,1387.136998232464,1.0001458895725033,0.000135366359682559
1387.1439428324607,1387.1439428324607,0.9998325139179831,0.00013535168398603675
1387.150887432504,1387.150887432504,1.0002002473840421,0.00013537053202392413
1387.1578320324074,1387.1578320324074,1.0001501065616611,0.00013537079731738215
1387.164776632124,1387.164776632124,0.9999133135416723,0.0001353618794854258
1387.1717212319347,1387.1717212319347,1.0000417936466912,0.00013537080314110348
1387.1786658315589,1387.1786658315589,0.9999653236081485,0.00013535579562813142
1387.1856104311823,1387.1856104311823,1.000172849536742,0.0001353684052275581
1387.1925550306664,1387.1925550306664,0.999926938654162,0.00013535788321949929
1387.1994996301978,1387.1994996301978,0.9999014147767941,0.0001353630146532247
1387.2064442295891,1387.2064442295891,0.9998260759111478,0.00013535146150357502
1387.213388828886,1387.213388828886,0.9998745820824986,0.00013535372381180395
1387.220333428138,1387.220333428138,1.0001744696774506,0.00013538418245642457
1387.2272780273433,1387.2272780273433,1.0000097381062913,0.00013535940074285228
1387.2342226263615,1387.2342226263615,1.0001042975704681,0.0001353717291013287
1387.2411672254266,1387.2411672254266,1.000009858779606,0.00013536177983588727
1387.2481118243988,1387.2481118243988,1.0001115916623644,0.0001353687097641263
1387.2550564232781,1387.2550564232781,0.9999450915461718,0.00013536715147601062
1387.2620010221096,1387.2620010221096,0.9999169941771733,0.00013535865468484396
1387.268945620849,1387.268945620849,0.9999389301953124,0.00013535698355439109
1387.2758902194955,1387.2758902194955,0.9999231230068272,0.00013535874920799637
1387.282834818095,1387.282834818095,1.0000386373504777,0.00013536976976503775
1387.2897794166008,1387.2897794166008,1.0001137159976428,0.00013536598091760826
1387.2967240150144,1387.2967240150144,0.9998523649857752,0.0001353609479664778
1387.303668613428,1387.303668613428,1.0001090926361975,0.00013537306072476787
1387.3114465635028,1387.3114465635028,1.0000628257954531,0.00013536785106581242
1387.3200578653345,1387.3200578653345,0.9999088730412247,0.0001353661019744933
1387.3272802473716,1387.3272802473716,1.000079132475975,0.0001353663387615559
1387.3350581971679,1387.3350581971679,1.0001448909136046,0.00013537124744439024
1387.3425583629676,1387.3425583629676,0.9997544250023032,0.000135357748186241
1387.3497807448189,1387.3497807448189,1.000004327689362,0.0001353693339143191
1387.357836478285,1387.357836478285,0.9998585431171587,0.0001353551889271059
1387.3647810759994,1387.3647810759994,1.0000624534299554,0.00013537089781078107
1387.3717256738078,1387.3717256738078,1.000102982376994,0.00013537675884207434
1387.378670271383,1387.378670271383,1.00002832279074,0.000135366207428364
1387.3856148689113,1387.3856148689113,0.9998567021442989,0.00013535519981593112
1387.3925594662996,1387.3925594662996,1.0001161444868256,0.0001353603304735484
1387.3995040636887,1387.3995040636887,1.000006294269802,0.0001353694761630562
1387.4064486610314,1387.4064486610314,1.0000734553197117,0.00013537369486713266
1387.4133932582329,1387.4133932582329,1.0000147219840185,0.0001353693044797237
1387.4203378554357,1387.4203378554357,0.9999908926768482,0.00013536258788384624
1387.4272824525456,1387.4272824525456,1.0001676031417268,0.00013538060533607287
1387.4342270496081,1387.4342270496081,0.9998531124345289,0.00013536580391417213
1387.4411716465313,1387.4411716465313,0.9999307589838995,0.00013536569252180444
1387.448116243408,1387.448116243408,0.9998623645614693,0.00013535873491377196
1387.455060840192,1387.455060840192,0.9998553589137995,0.00013536589991108207
1387.4620054369746,1387.4620054369746,0.9999254886033973,0.00013537373765920671
1387.468950033665,1387.468950033665,1.0000560571610264,0.00013537899504946282
1387.4758946302159,1387.4758946302159,0.9998758612895127,0.00013536558518858488
1387.4828392268598,1387.4828392268598,1.0001434143715096,0.00013537612723203783
1387.4897838232696,1387.4897838232696,1.0000357653992928,0.00013537131591104967
1387.4967284196812,1387.4967284196812,1.000074623668467,0.000135370165294085
1387.503673015906,1387.503673015906,1.0000908115789058,0.00013537687492602297
1387.510617612177,1387.510617612177,0.9997319874003502,0.00013534790617140984
1387.5175622083548,1387.5175622083548,1.0000573742496524,0.00013536357273819235
1387.5245068044865,1387.5245068044865,1.0001738629929056,0.0001353723528698479
1387.531451400479,1387.531451400479,0.9999355469363179,0.00013535797459620337
1387.53839599647,1387.53839599647,0.9998205189256447,0.00013535526055904093
1387.5453405923688,1387.5453405923688,0.9999386469745835,0.00013536352955789441
1387.552285188175,1387.552285188175,1.0003629889404326,0.00013538518168706922
1387.559229783934,1387.559229783934,0.9999030079713158,0.00013535324204986803
1387.566174379599,1387.566174379599,0.9998179695370115,0.0001353525386991535
1387.5731189752184,1387.5731189752184,0.9999908445455408,0.00013536357489472037
1387.5800635707449,1387.5800635707449,1.0001612517794503,0.00013537148757113574
1387.5870081662247,1387.5870081662247,1.0000947513442824,0.00013537315299367466
1387.5939527615174,1387.5939527615174,0.9997903812085719,0.00013534721768001612
1387.6008973569972,1387.6008973569972,1.0000921142795218,0.00013536657392498617
1387.6078419522444,1387.6078419522444,0.9998969800183477,0.00013535149955303438
1387.6147865472578,1387.6147865472578,1.0001955161643041,0.000135375585827057
1387.6217311424577,1387.6217311424577,0.999856177622559,0.00013535042377325505
1387.6286757374723,1387.6286757374723,1.0000496634859517,0.00013537248761201983
1387.6356203324399,1387.6356203324399,1.0000269535719553,0.00013537141933190447
1387.6425649273133,1387.6425649273133,1.0002586680930883,0.00013539357284223202
1387.6495095221878,1387.6495095221878,0.9999251718259867,0.00013536555220507412
1387.6564541169223,1387.6564541169223,0.9998426276890131,0.00013536446391982051
1387.6633987116106,1387.6633987116106,0.9998960445549278,0.00013535604797409415
1387.6703433062048,1387.6703433062048,0.9998846221233121,0.00013536608182275763
1387.6772879007533,1387.6772879007533,0.9999438965017473,0.00013537150824665805
1387.684232495209,1387.684232495209,1.000102814144344,0.0001353823542172372
1387.6911770896636,1387.6911770896636,1.0001141636331068,0.00013537380939807522
1387.6981216839322,1387.6981216839322,1.000059501109165,0.000135377748944327
1387.705066278248,1387.705066278248,1.000132138816939,0.00013538617427486245
1387.712010872331,1387.712010872331,0.9999977237852182,0.00013536988542796945
1387.7189554665529,1387.7189554665529,0.9999145486574077,0.00013536297694082425
