time,time,flux,flux_err
1325.2996533110074,1325.2996533110074,0.9996879305326707,0.0005025970305122591
1325.3079865633792,1325.3079865633792,1.000033908879139,0.0005026858572157123
1325.3156253782918,1325.3156253782918,0.9997641616013571,0.0004589561041539062
1325.3225697556663,1325.3225697556663,1.0002967130291056,0.00045916677965768634
1325.3295141332212,1325.3295141332212,1.0005727666307698,0.00045927775227643165
1325.3364585109568,1325.3364585109568,1.0005049845912044,0.00045951076990500655
1325.3434028888728,1325.3434028888728,0.9995382861964958,0.00045948901928029594
1325.3503472669458,1325.3503472669458,1.0003474528527647,0.0004598450393786836
1325.3572916452051,1325.3572916452051,1.000114845418565,0.0004600876395897867
1325.364236023645,1325.364236023645,0.9992510345681108,0.0004601894269300616
1325.3711804022305,1325.3711804022305,1.0003343800565896,0.00046050158883563475
1325.3781247810018,1325.3781247810018,0.9999383030314721,0.0004607618673162617
1325.3850691599366,1325.3850691599366,0.9996571395829893,0.00046094413149153703
1325.392013539034,1325.392013539034,1.0009921107894209,0.0004613678110092804
1325.3989579183058,1325.3989579183058,0.9997228777181653,0.00046141064088337565
1325.4059022977294,1325.4059022977294,0.9999279952618231,0.0004616389162797635
1325.4128466773157,1325.4128466773157,0.9993771420138218,0.00046172808262337224
1325.4197910570772,1325.4197910570772,1.0000376811159328,0.0004620167596741056
1325.4267354369836,1325.4267354369836,0.9998325658379347,0.0004622236077767559
1325.433679817053,1325.433679817053,1.0003266106246342,0.0004625335311218107
1325.4406241972742,1325.4406241972742,1.0000755912366273,0.0004625962011047398
1325.4475685776522,1325.4475685776522,1.0004413495714326,0.00046295191732027597
1325.4545129581875,1325.4545129581875,1.000557963412182,0.0004631293262255137
1325.461457338874,1325.461457338874,1.0005027557192536,0.0004632983280050852
1325.468401719712,1325.468401719712,0.9996261327644778,0.00046340708184339495
1325.4753461006956,1325.4753461006956,1.0002541334988233,0.00046379367474451357
1325.4822904818243,1325.4822904818243,1.0001580054027257,0.00046403568013071456
1325.4892348631047,1325.4892348631047,0.9999821196085946,0.0004642398424263952
1325.496179244525,1325.496179244525,0.99988850012328,0.0004645396857080217
1325.5031236261016,1325.5031236261016,0.9997926886904247,0.0004648440236675601
1325.5100680078133,1325.5100680078133,0.9998385116462284,0.0004651072902713166
1325.5170123896694,1325.5170123896694,1.000233270959391,0.00046545991199946503
1325.52395677166,1325.52395677166,0.9998958668300165,0.0004656841976138461
1325.53090115379,1325.53090115379,0.999502840529939,0.0004659085075003771
1325.5378455360542,1325.5378455360542,1.000029699522329,0.00046621889007648015
1325.5447899184635,1325.5447899184635,0.9998943059176538,0.0004665307718423982
1325.5517343010072,1325.5517343010072,1.000708477130251,0.00046687532500608943
1325.5586786836789,1325.5586786836789,1.0010928263444145,0.00046718513835050657
1325.5656230664897,1325.5656230664897,0.9993697264186794,0.0004672108076540821
1325.572567449423,1325.572567449423,1.0009741483762515,0.00046767724455097116
1325.5795118324966,1325.5795118324966,0.9998924849536743,0.0004677793468861566
1325.5864562156917,1325.5864562156917,0.9994565489398483,0.00046794778715396204
1325.593400599009,1325.593400599009,1.0001094150087795,0.00046814139594608716
1325.6003449824545,1325.6003449824545,1.0008987585541418,0.0004685082878016371
1325.6072893660285,1325.6072893660285,0.9999173451093073,0.0004684860614954079
1325.6142337497304,1325.6142337497304,0.9997378720599904,0.0004685311701848226
1325.6211781335485,1325.6211781335485,1.0002383039011253,0.0004687505027531478
1325.628122517489,1325.628122517489,1.0004876901020243,0.00046886941112467956
1325.6350669015574,1325.6350669015574,0.9988441811049646,0.00046868448638669126
1325.6420112857306,1325.6420112857306,1.0004235801151649,0.00046905957107410984
1325.64895567002,1325.64895567002,1.0002907258922367,0.0004690689155224713
1325.655900054432,1325.655900054432,1.000156679890471,0.0004691087181221642
1325.6628444389603,1325.6628444389603,1.0006797629494955,0.0004692161822827485
1325.6697888236167,1325.6697888236167,1.0001924553516988,0.0004692147924497154
1325.676733208366,1325.676733208366,0.9994454206751868,0.0004691039495385899
1325.6836775932381,1325.6836775932381,0.9990524249210833,0.00046908324028694753
1325.6906219782031,1325.6906219782031,1.0000386360804587,0.00046939498304392994
1325.697566363296,1325.697566363296,1.0005478788785713,0.0004695427095988152
1325.7045107484878,1325.7045107484878,0.9998677626742053,0.00046956994944616457
1325.71145513379,1325.71145513379,0.999138626295115,0.0004696133847392172
1325.7183995191976,1325.7183995191976,1.000228046913445,0.00046984284212578744
1325.725343904715,1325.725343904715,1.000456158860254,0.0004700609850137387
1325.7322882903377,1325.7322882903377,1.0002498468693446,0.00047015647634936436
1325.7392326760537,1325.7392326760537,1.0001548465119532,0.00047029918432435757
1325.746177061874,1325.746177061874,1.0000321656786266,0.0004704962370485964
1325.7531214477933,1325.7531214477933,1.0003061327594795,0.0004706989103565442
1325.7600658338238,1325.7600658338238,0.999413947368676,0.00047072793340149986
1325.7670102199525,1325.7670102199525,0.9999737060530368,0.00047104291371530575
1325.773954606169,1325.773954606169,1.0001775995362319,0.0004712404270468697
1325.780898992484,1325.780898992484,0.9994327391247942,0.00047134939415905124
1325.787843378893,1325.787843378893,1.0001532060642575,0.00047167245092162206
1325.7947877653999,1325.7947877653999,0.9997361723645888,0.0004717888537711052
1325.8017321520003,1325.8017321520003,0.9997833971425013,0.00047197977057768226
1325.8086765386943,1325.8086765386943,1.000447442730465,0.0004721365356452693
1325.8156209254864,1325.8156209254864,1.0017587414038696,0.00047256479136050195
1325.8225653123611,1325.8225653123611,0.9999926159806563,0.0004723603996684048
1325.8295096993338,1325.8295096993338,0.9996357208534207,0.0004724213417801839
1325.8364540863822,1325.8364540863822,1.0001000521955328,0.00047255959934577494
1325.8433984735304,1325.8433984735304,1.0014320826124954,0.00047281571259020024
1325.8503428607648,1325.8503428607648,0.9989674686855204,0.00047251070453653695
1325.8572872480872,1325.8572872480872,0.9999758350722802,0.0004725495322274234
1325.8642316354853,1325.8642316354853,0.9996780606203339,0.00047255670979383434
1325.8711760229824,1325.8711760229824,1.0000587662557183,0.0004724897962172657
1325.8781204105492,1325.8781204105492,0.9996433568360924,0.00047220550574698076
1325.8850647982085,1325.8850647982085,1.000690871749208,0.00047233010206748464
1325.8920091859504,1325.8920091859504,1.0004969257858716,0.00047214120574973147
1325.8989535737674,1325.8989535737674,0.9994180128784939,0.0004718717198743911
1325.905897961654,1325.905897961654,0.9996524607419219,0.0004718200879453444
1325.9128423496454,1325.9128423496454,1.0007623852230647,0.00047197377107954954
1325.919786737707,1325.919786737707,0.9999710725312605,0.0004717148384483616
1325.926731125833,1325.926731125833,1.0005685287082897,0.00047178187607077696
1325.9336755140512,1325.9336755140512,0.9992231748538293,0.0004715545804699319
1325.9406199023401,1325.9406199023401,1.0000139523234555,0.00047162698115879283
1325.9475642907041,1325.9475642907041,0.9998897137194696,0.00047157937089329055
1325.954508679144,1325.954508679144,1.0002238130854182,0.00047165984281728946
1325.9620086187356,1325.9620086187356,1.0003415311261503,0.0004716192494471501
1325.9697863339666,1325.9697863339666,0.9999479117668985,0.00047166441590970566
1325.9767307226396,1325.9767307226396,0.9999957185015649,0.0004715977068003572
1325.9836751113876,1325.9836751113876,1.0002139572366529,0.000471741857986415
1325.9906195002,1325.9906195002,0.99958148659335,0.0004717170593972919
1325.9975638890942,1325.9975638890942,0.9999545747769819,0.00047182773560611164
1326.004508278046,1326.004508278046,1.000790634695998,0.0004721196603338751
1326.0114526670682,1326.0114526670682,1.000238092251596,0.0004721146007696911
1326.0183970561657,1326.0183970561657,0.9993728914340559,0.0004722357888147017
1326.0253414453214,1326.0253414453214,0.9994514228107635,0.0004724391483040484
1326.0322858345476,1326.0322858345476,0.9998042175517275,0.00047258616080223865
1326.0392302238308,1326.0392302238308,1.0000559674946388,0.0004726294719002576
1326.0461746131907,1326.0461746131907,0.9999147028699842,0.0004725837852452212
1326.0531190026081,1326.0531190026081,1.0002234880052956,0.000472695579168983
1326.060063392096,1326.060063392096,1.0007726212603285,0.0004728033758050542
1326.0670077816417,1326.0670077816417,1.0000970152653552,0.00047281339285866014
1326.0739521712453,1326.0739521712453,1.000435140156761,0.0004728694064690562
1326.0808965609197,1326.0808965609197,0.9990401493992025,0.0004726820968290445
1326.0878409506518,1326.0878409506518,0.9999827585924926,0.0004728059333574115
1326.0947853404364,1326.0947853404364,0.999601959068227,0.0004728253932514906
1326.1017297302965,1326.1017297302965,1.0002418173587846,0.0004729568415861432
1326.108674120203,1326.108674120203,0.9997371996586792,0.00047293273108093496
1326.1156185101738,1326.1156185101738,0.9999935459812267,0.0004729593056483078
1326.1225629002024,1326.1225629002024,1.000612177037839,0.0004730373672276374
1326.12950729029,1326.12950729029,0.9999458508898107,0.0004730199419002462
1326.1364516804292,1326.1364516804292,1.0002273955993988,0.00047308897862949226
1326.143396070633,1326.143396070633,1.0000814497791624,0.00047304321777509785
1326.1503404608889,1326.1503404608889,0.9998282321792284,0.0004730115865058571
1326.157284851191,1326.157284851191,0.9997809577817405,0.00047303056905705944
1326.1642292415581,1326.1642292415581,1.0002335003165541,0.00047316560617731315
1326.1711736319764,1326.1711736319764,1.0002000194776075,0.00047305741104143346
1326.178118022448,1326.178118022448,0.9992590810764954,0.0004729488692850857
1326.185062412966,1326.185062412966,1.00005825598747,0.0004731161721545105
1326.1920068035474,1326.1920068035474,1.0002734535263234,0.00047315322994840496
1326.1989511941706,1326.1989511941706,0.9993212999127387,0.00047292014189093806
1326.205895584863,1326.205895584863,1.0004484057410774,0.00047312045649584346
1326.212839975579,1326.212839975579,0.9999717066932139,0.00047302108463252376
1326.2197843663585,1326.2197843663585,1.0008650572073208,0.00047314954760640566
1326.226728757179,1326.226728757179,0.9995333573879769,0.0004728190482646094
1326.2336731480696,1326.2336731480696,1.0002112728313226,0.00047294982266066655
1326.2406175389947,1326.2406175389947,1.0000900275757079,0.00047289202738441574
1326.247561929961,1326.247561929961,1.0002877292326007,0.0004729574560463426
1326.254506320985,1326.254506320985,0.9996550335487513,0.00047282616582298927
1326.2614507120504,1326.2614507120504,1.0002451662478433,0.000472931390334009
1326.2683951031795,1326.2683951031795,0.9997724732134283,0.0004728322305976641
1326.2753394943313,1326.2753394943313,1.0002599105337366,0.00047286445399113855
1326.2822838855366,1326.2822838855366,1.0002143324449575,0.0004729371667446032
1326.2892282767818,1326.2892282767818,0.9997218596268219,0.00047275103832245875
1326.2961726680799,1326.2961726680799,1.0002356668849155,0.00047296559791077145
1326.303117059424,1326.303117059424,0.9995245601970797,0.0004728426599341009
1326.3100614508094,1326.3100614508094,1.000348189262005,0.00047297901436164187
1326.317005842241,1326.317005842241,1.0004074636192164,0.0004730847008819516
1326.3239502337015,1326.3239502337015,0.9991365910791302,0.00047282593647332446
1326.3308946252096,1326.3308946252096,1.000583365291619,0.00047310746681380556
1326.3378390167688,1326.3378390167688,1.001060886244768,0.00047324600560663275
1326.3447834083581,1326.3447834083581,0.9996690619920777,0.0004730488737205091
1326.3545055566597,1326.3545055566597,0.999806912974277,0.0004732831354172389
1326.3614499483642,1326.3614499483642,1.0001040133715868,0.0004732934796078855
1326.3683943400874,1326.3683943400874,1.000296800103137,0.00047341671280488293
1326.3753387318625,1326.3753387318625,0.9998880021146777,0.0004734408000375701
1326.382283123667,1326.382283123667,1.0003410882525146,0.00047355066161202655
1326.3892275155176,1326.3892275155176,1.0001012916102012,0.0004736061466947459
1326.3961719074034,1326.3961719074034,0.9995912819595911,0.0004735293204560814
1326.4031162993356,1326.4031162993356,1.0000926005168989,0.0004737380985370118
1326.4100606912914,1326.4100606912914,1.0002068118485592,0.0004737616949372238
1326.417005083282,1326.417005083282,0.999470840707821,0.0004737500597142381
1326.4239494753306,1326.4239494753306,0.9996799628009454,0.00047383471321847627
1326.4308938674028,1326.4308938674028,0.9998113936789046,0.00047393579870304335
1326.4378382595094,1326.4378382595094,1.0006688848553282,0.000474133497606164
1326.4447826516573,1326.4447826516573,1.0002379516316957,0.00047405537634323075
1326.4517270438284,1326.4517270438284,0.999622715619575,0.0004740794451783381
1326.45867143604,1326.45867143604,1.000114132989357,0.00047427160611539286
1326.4656158282924,1326.4656158282924,0.9999717293753388,0.0004742483323219272
1326.47256022058,1326.47256022058,1.0001811033125025,0.00047433574246071985
1326.4795046128907,1326.4795046128907,1.000505979939201,0.0004744031657247279
1326.4864490052362,1326.4864490052362,0.9993073171470026,0.00047429561925752407
1326.4933933976167,1326.4933933976167,0.9999434141209924,0.00047444650545919555
1326.500337790038,1326.500337790038,0.9999622217794603,0.0004744782579971899
1326.5072821824883,1326.5072821824883,1.000310190850725,0.00047461878556820543
1326.5142265749562,1326.5142265749562,0.9997952658611082,0.0004746500520178223
1326.5211709674704,1326.5211709674704,0.9997596949441198,0.0004747462116770157
1326.5281153600026,1326.5281153600026,1.0001108906369427,0.0004749292602661718
1326.5350597525808,1326.5350597525808,0.9995306229336733,0.0004749568347061293
1326.5420041451769,1326.5420041451769,1.0003243554078793,0.0004751931932052263
1326.5489485378134,1326.5489485378134,1.0096639074172122,0.00047697592502161414
1326.5558929304732,1326.5558929304732,1.0061393258872724,0.0004763252211960591
1326.5628373231625,1326.5628373231625,1.0010711293457477,0.00047547222088276255
1326.5697817158803,1326.5697817158803,1.0000085496792657,0.0004752993188618485
1326.5767261086278,1326.5767261086278,0.999814412220401,0.0004753223478782656
1326.5836705014096,1326.5836705014096,0.9992613464983868,0.0004752120531508118
1326.5906148942154,1326.5906148942154,1.0003251253604484,0.000475589172002936
1326.5975592870498,1326.5975592870498,1.0002316533420916,0.0004755703004835461
1326.6045036799076,1326.6045036799076,0.9997361609766517,0.0004755895000916321
1326.6114480727947,1326.6114480727947,0.9997289709802303,0.0004755623588182971
1326.6183924657166,1326.6183924657166,1.0001569634740612,0.00047566125316442454
1326.6253368586556,1326.6253368586556,1.0006850559094749,0.00047571411767154527
1326.6322812516241,1326.6322812516241,0.9998481822212317,0.0004755860833948972
1326.6392256446218,1326.6392256446218,0.9998457142810265,0.0004756175068513755
1326.646170037637,1326.646170037637,0.9999053086727496,0.00047552250958991327
1326.6531144306866,1326.6531144306866,0.9995618877358353,0.0004754954404181072
1326.66005882376,1326.66005882376,1.0008315840866133,0.00047565426394078746
1326.6670032168563,1326.6670032168563,0.9996681592403522,0.0004753858992671342
1326.6739476099763,1326.6739476099763,1.000130665901342,0.00047543123390116955
1326.6808920031192,1326.6808920031192,0.9998563851843082,0.00047527893793106093
1326.6886697234784,1326.6886697234784,1.0004926975957138,0.0004753737983628346
1326.6961696681224,1326.6961696681224,0.9999280776793874,0.0004750583551776334
1326.7031140613467,1326.7031140613467,1.0008573094033406,0.00047516707123518846
1326.710336230322,1326.710336230322,0.9994203391994978,0.0004748483818671623
1326.718391726519,1326.718391726519,0.9996523551564056,0.00047483316909084395
1326.7253361198077,1326.7253361198077,1.0005888718592406,0.000474871368379713
1326.7322805131312,1326.7322805131312,1.0006982431761673,0.00047482656139061723
1326.7392249064662,1326.7392249064662,0.9999379220099008,0.00047463489202215285
1326.7461692998245,1326.7461692998245,1.000775065123639,0.00047458728532933986
1326.7531136932116,1326.7531136932116,1.0001391598301343,0.00047448236729870043
1326.760058086617,1326.760058086617,0.9994147557482747,0.00047428564183228254
1326.767002480045,1326.767002480045,1.000532276991366,0.00047439377879948273
1326.773946873485,1326.773946873485,0.9999562134287642,0.0004742176648666305
1326.7808912669484,1326.7808912669484,1.0005507046227549,0.00047435679815594514
1326.7878356604463,1326.7878356604463,0.9996778233621558,0.0004742216430893673
1326.7947800539564,1326.7947800539564,1.0005235311729592,0.0004743201173729804
1326.801724447478,1326.801724447478,1.0000735683330944,0.0004742646423886763
1326.808668841028,1326.808668841028,0.9998565614772019,0.0004742664725048475
1326.8156132345957,1326.8156132345957,1.0007491837227434,0.0004744135940483022
1326.8225576281816,1326.8225576281816,0.999799529338385,0.0004742588246280148
1326.8295020217843,1326.8295020217843,0.999683047129605,0.00047421329904412607
1326.8364464154106,1326.8364464154106,1.0003408897403303,0.00047436468023183463
1326.8433908090542,1326.8433908090542,0.9995941179291993,0.0004742224092136288
1326.850335202715,1326.850335202715,1.0001562256950294,0.00047434498346420544
1326.8572795963937,1326.8572795963937,0.9999110441818677,0.00047417450605237313
1326.86422399009,1326.86422399009,1.0001485456535797,0.0004740727240794931
1326.8711683838035,1326.8711683838035,1.0000072553867194,0.00047402674943108946
1326.8781127775403,1326.8781127775403,1.0002596257601888,0.0004739328120362552
1326.8850571712826,1326.8850571712826,1.000121661088062,0.0004738007455230975
1326.8920015650547,1326.8920015650547,0.9993631553633436,0.0004734805739277123
1326.8989459588379,1326.8989459588379,1.0001479655513934,0.0004733885356705516
1326.9058903526386,1326.9058903526386,1.0005624506059632,0.0004732959737346609
1326.9128347464625,1326.9128347464625,0.9997625200612678,0.00047302338593091547
1326.9197791402926,1326.9197791402926,0.9998792081696841,0.00047285118141036686
1326.9267235341456,1326.9267235341456,0.9992352584840987,0.00047249528795544787
1326.933667928005,1326.933667928005,1.000433656167709,0.0004724721094188303
1326.9406123218869,1326.9406123218869,0.999907135536376,0.00047215683533099095
1326.9475567157926,1326.9475567157926,1.0007751484609924,0.000472116913115659
1326.9545011096982,1326.9545011096982,0.9997040203533327,0.00047174356773654316
1326.9614455036212,1326.9614455036212,0.9999359162743524,0.0004716045578220629
1326.968389897556,1326.968389897556,0.9996284385289741,0.00047130627225143364
1326.9753342915135,1326.9753342915135,1.0002765698095142,0.0004714022436465023
1326.9822786854895,1326.9822786854895,0.9994102882562867,0.0004710016517028573
1326.9892230794705,1326.9892230794705,1.0000037119827399,0.0004709628403218228
1326.9961674734698,1326.9961674734698,1.0001926900344666,0.00047096948151492446
1327.0031118674854,1327.0031118674854,1.003068194531806,0.0004713540967043458
1327.0100562615075,1327.0100562615075,1.0020943481152333,0.0004711438617242262
1327.0170006555468,1327.0170006555468,1.0014327740633129,0.00047093818883582486
1327.0239450495978,1327.0239450495978,0.9996307168362175,0.00047068263472409017
1327.0308894436723,1327.0308894436723,0.9993691228888675,0.00047062351046723986
1327.0378338377523,1327.0378338377523,1.0003079127623742,0.000470818517313978
1327.0447782318504,1327.0447782318504,1.0003909335888017,0.00047085084306959713
1327.0517226259478,1327.0517226259478,0.9997429226245661,0.0004707881491978207
1327.059222571593,1327.059222571593,0.9994987271695669,0.0004708014690219612
