time,time,flux,flux_err
1325.299076746258,1325.299076746258,0.9998233050801609,0.00016679403556129046
1325.307410050595,1325.307410050595,1.0004767477233456,0.00016682507415125914
1325.3157433552135,1325.3157433552135,1.0000287492432454,0.00016679992053873243
1325.3240766601132,1325.3240766601132,0.9998811751955164,0.00016680244635643098
1325.3317155231712,1325.3317155231712,0.9999391539074066,0.00015228833353385726
1325.3386599443324,1325.3386599443324,1.0002989758687038,0.0001523238676479418
1325.3456043656863,1325.3456043656863,0.9998587788210589,0.00015230696130658075
1325.3525487872228,1325.3525487872228,0.9999787561618512,0.00015233361484418034
1325.35949320894,1325.35949320894,0.9999945996545583,0.000152348587367332
1325.3664376308407,1325.3664376308407,1.0000132807267854,0.0001523718581071546
1325.3733820529212,1325.3733820529212,0.9998314896519982,0.00015236699354501376
1325.380326475183,1325.380326475183,1.0001817542604452,0.00015241218023003274
1325.3872708976191,1325.3872708976191,0.9998443898663248,0.00015239856186080657
1325.3942153202265,1325.3942153202265,0.9998885714901261,0.0001524265770839307
1325.401159743015,1325.401159743015,1.000116448049352,0.00015245702196250852
1325.408104165972,1325.408104165972,1.000158497692308,0.0001524831038816035
1325.4150485890948,1325.4150485890948,0.9999380567437065,0.0001524679154828362
1325.4219930123863,1325.4219930123863,1.0001031202879482,0.00015250215310975626
1325.4289374358468,1325.4289374358468,1.000083801038714,0.00015251639155793812
1325.4358818594733,1325.4358818594733,0.9999883040489908,0.00015253463513702464
1325.4428262832596,1325.4428262832596,0.9998348275708633,0.00015253637576168885
1325.4497707072148,1325.4497707072148,1.0000867973417749,0.00015256863188720522
1325.4567151313215,1325.4567151313215,1.000015820642848,0.00015258870584288227
1325.463659555588,1325.463659555588,0.999936842079489,0.00015259012503771675
1325.4706039800146,1325.4706039800146,1.0000408006045636,0.00015261777403908366
1325.4775484045963,1325.4775484045963,0.9999157641244064,0.0001526319343078453
1325.4844928293253,1325.4844928293253,0.9998492225830079,0.00015264024595986397
1325.491437254212,1325.491437254212,0.9998850028024933,0.00015266779171782785
1325.4983816792499,1325.4983816792499,1.000129816525161,0.00015269497809791553
1325.5053261044304,1325.5053261044304,1.0000755655924087,0.00015271136566134404
1325.5122705297651,1325.5122705297651,1.0001520979734717,0.00015273422471220527
1325.5192149552397,1325.5192149552397,0.9998343322392413,0.00015272884501808164
1325.5261593808625,1325.5261593808625,1.0002385393219178,0.00015278021463675055
1325.533103806628,1325.533103806628,1.0001724470939053,0.00015279730214910278
1325.5400482325329,1325.5400482325329,0.9998656550762501,0.0001527972449206527
1325.5469926585786,1325.5469926585786,0.9999504969108381,0.0001528271224142644
1325.5539370847657,1325.5539370847657,0.9998252688466062,0.0001528212615701617
1325.5608815110786,1325.5608815110786,0.9999847402448413,0.00015284982957202068
1325.5678259375368,1325.5678259375368,0.9998788877489752,0.00015286448004118107
1325.574770364126,1325.574770364126,0.9999871842700143,0.00015289299793793347
1325.581714790849,1325.581714790849,1.0001986572661132,0.00015291469463251644
1325.5886592177026,1325.5886592177026,1.0002340795944373,0.00015293780630313989
1325.5956036446821,1325.5956036446821,0.9999104545451202,0.00015292791118552224
1325.602548071795,1325.602548071795,1.000080160463706,0.0001529360380737018
1325.6094924990332,1325.6094924990332,1.0001149425210327,0.00015296002443802292
1325.6164369263936,1325.6164369263936,1.0000667122614897,0.00015296617598606091
1325.623381353882,1325.623381353882,0.9999027139386598,0.00015295783723750562
1325.63032578149,1325.63032578149,0.9998563364892222,0.00015295942746893117
1325.6372702092199,1325.6372702092199,0.9999846711110039,0.00015297585181415414
1325.644214637072,1325.644214637072,1.0000174382932658,0.00015298526739314643
1325.651159065041,1325.651159065041,1.0001373681428203,0.00015299804204838143
1325.6581034931285,1325.6581034931285,1.0001198948085979,0.00015299196221476332
1325.6650479213333,1325.6650479213333,0.9999893190075178,0.00015299205654870673
1325.6719923496541,1325.6719923496541,0.999997390226353,0.0001529971967827387
1325.6789367780827,1325.6789367780827,0.9996841263239489,0.00015298698182819934
1325.6858812066305,1325.6858812066305,1.0000543237664778,0.00015301371127091442
1325.6928256352858,1325.6928256352858,0.99985668407944,0.0001530031087446048
1325.6997700640493,1325.6997700640493,1.0000213871751353,0.00015303543456475317
1325.706714492923,1325.706714492923,1.0002653129589885,0.0001530643854646233
1325.7136589219076,1325.7136589219076,1.0000120139770536,0.0001530482926315447
1325.7206033509965,1325.7206033509965,1.0002449766376986,0.0001530809495956422
1325.7275477801907,1325.7275477801907,0.9998451077229504,0.0001530675581901378
1325.7344922094865,1325.7344922094865,0.9999114928198474,0.000153078686939768
1325.741436638884,1325.741436638884,1.0000219246574176,0.00015309590991801017
1325.7483810683864,1325.7483810683864,0.9998317745306732,0.00015308809857211847
1325.755325497991,1325.755325497991,0.9999669888519142,0.00015312032547691663
1325.762269927694,1325.762269927694,0.9998770292304053,0.00015311808173404682
1325.7692143574934,1325.7692143574934,1.0001278926993793,0.00015314949519336466
1325.7761587873915,1325.7761587873915,0.9998046827892001,0.00015313444767457946
1325.7831032173858,1325.7831032173858,1.0002628480917348,0.00015319436242101935
1325.7900476474763,1325.7900476474763,1.0002001691914013,0.00015319415234195738
1325.7969920776627,1325.7969920776627,0.9997932610083895,0.00015316992593787188
1325.8039365079396,1325.8039365079396,1.0002688225177245,0.00015320741608779889
1325.8108809383061,1325.8108809383061,0.9999616492355029,0.00015319892570224072
1325.817825368766,1325.817825368766,0.9999350615782288,0.00015320961992000117
1325.8247697993163,1325.8247697993163,1.0001325271877577,0.00015323073275141057
1325.8317142299568,1325.8317142299568,0.9998211171539648,0.00015320952842723143
1325.8386586606844,1325.8386586606844,0.999742257542659,0.00015320923594921426
1325.8456030914995,1325.8456030914995,1.000113562011508,0.00015324587587946232
1325.8525475224014,1325.8525475224014,1.0000087992184228,0.0001532300429905262
1325.8594919533884,1325.8594919533884,1.0000626546703064,0.00015323313298119687
1325.866436384454,1325.866436384454,0.9999933106532163,0.00015322238483457805
1325.8733808156096,1325.8733808156096,0.9998670661323701,0.0001531868536894011
1325.8803252468438,1325.8803252468438,0.9999603114055866,0.00015319075209700405
1325.8872696781652,1325.8872696781652,1.0000746915397722,0.00015319726541938194
1325.894214109559,1325.894214109559,1.0000850404542048,0.00015318454969972834
1325.9011585410378,1325.9011585410378,1.000183468640199,0.00015319065288407584
1325.908102972595,1325.908102972595,1.0000289119208765,0.00015316710907842452
1325.9150474042276,1325.9150474042276,1.0000455057005146,0.00015314275657216605
1325.9219918359393,1325.9219918359393,1.0001149004226377,0.00015315837498233042
1325.9289362677264,1325.9289362677264,0.9997397643454328,0.00015312643194703588
1325.935880699595,1325.935880699595,0.9999971499802267,0.00015314438504640727
1325.9428251315276,1325.9428251315276,0.999599760854804,0.00015310752511166095
1325.9497695635416,1325.9497695635416,1.0001536455672224,0.0001531478510236713
1325.9567139956287,1325.9567139956287,1.0000733117033445,0.00015313419119371768
1325.9647695369367,1325.9647695369367,1.0000306286837883,0.00015313525317085433
1325.971991746465,1325.971991746465,1.0000098962694903,0.00015313116718674048
1325.9789361787757,1325.9789361787757,1.000036255355669,0.0001531439951273776
1325.9858806111565,1325.9858806111565,0.99985048489131,0.00015313610229954704
1325.9928250436074,1325.9928250436074,1.00041396423113,0.00015316691444730435
1325.999769476131,1325.999769476131,0.9999182882583731,0.00015314282762413951
1326.006713908715,1326.006713908715,0.9998263617185362,0.0001531420989460449
1326.0136583413698,1326.0136583413698,0.9998880154470063,0.00015315969601373378
1326.020602774088,1326.020602774088,0.9999861690154177,0.0001531689387277994
1326.0275472068677,1326.0275472068677,1.0002030999917442,0.00015321245764322362
1326.0344916397141,1326.0344916397141,1.0000818836257277,0.00015319429042284053
1326.0414360726304,1326.0414360726304,0.9998822883164742,0.00015319933743349865
1326.0483805056024,1326.0483805056024,1.0000391051388722,0.00015320052281833627
1326.0553249386435,1326.0553249386435,0.9998983321868131,0.00015319406232259166
1326.0622693717373,1326.0622693717373,1.00019929645629,0.00015321989282145393
1326.0692138049012,1326.0692138049012,0.9998431165696573,0.00015319720856185425
1326.0761582381172,1326.0761582381172,0.9998431733800395,0.00015319719357673897
1326.0831026714004,1326.0831026714004,1.0000551210204438,0.000153218300882817
1326.0900471047387,1326.0900471047387,1.000096266199241,0.0001532272415486684
1326.0969915381352,1326.0969915381352,1.0001664467837694,0.0001532234334190652
1326.10393597159,1326.10393597159,0.9998930392729433,0.0001532165552060247
1326.1108804050998,1326.1108804050998,0.9998148546355848,0.00015320457833230646
1326.1178248386655,1326.1178248386655,1.0000938157290702,0.00015321977680978315
1326.1247692722886,1326.1247692722886,0.9999720906587657,0.00015320912323238864
1326.1317137059677,1326.1317137059677,0.9998972477779716,0.00015320773116427635
1326.1386581397016,1326.1386581397016,1.0001734311589516,0.00015322465385540128
1326.1456025734856,1326.1456025734856,0.9999128423772022,0.00015321818191930947
1326.1525470073277,1326.1525470073277,1.0001563219798988,0.00015322663703725342
1326.1594914412187,1326.1594914412187,0.9998997071743858,0.0001532025353453773
1326.1664358751684,1326.1664358751684,0.9999846580375527,0.00015320878891989683
1326.1733803091643,1326.1733803091643,1.000290510044349,0.00015323434132216314
1326.1803247432101,1326.1803247432101,0.9999933000903833,0.00015319993314777137
1326.1872691773106,1326.1872691773106,0.9996928421944725,0.00015318219948479177
1326.194213611458,1326.194213611458,0.9999053944511456,0.00015321140389272403
1326.201158045661,1326.201158045661,1.0000199462483426,0.0001532137439521052
1326.2081024799074,1326.2081024799074,1.0000841327345888,0.00015320961131742161
1326.2150469142002,1326.2150469142002,1.0001597511103317,0.0001532150108948165
1326.2219913485399,1326.2219913485399,0.9998631243321734,0.00015320234559087342
1326.2289357829316,1326.2289357829316,1.0000878327034486,0.0001532237632282302
1326.23588021737,1326.23588021737,1.0001072568759826,0.00015322642854707783
1326.242824651849,1326.242824651849,0.9999800649191009,0.00015322023291916258
1326.2497690863813,1326.2497690863813,0.999931741359396,0.0001532098935885181
1326.256713520953,1326.256713520953,0.9999174959411935,0.0001532135091362277
1326.2636579555724,1326.2636579555724,0.9998991680837653,0.00015321551351443107
1326.2706023902379,1326.2706023902379,1.0002399633527796,0.00015323255879117837
1326.2775468249438,1326.2775468249438,0.9998485302322899,0.0001532027188252868
1326.284491259694,1326.284491259694,0.9997928668691362,0.00015320192633321359
1326.2914356944843,1326.2914356944843,1.0000850915437016,0.0001532195816265262
1326.2983801293217,1326.2983801293217,1.0002080461467775,0.0001532340355270932
1326.3053245641993,1326.3053245641993,0.9999749629286372,0.00015320251876534003
1326.3122689991153,1326.3122689991153,1.0000211491448543,0.0001532088029613258
1326.3192134340748,1326.3192134340748,0.9998155914265942,0.00015319369539606734
1326.326157869075,1326.326157869075,1.000041067310971,0.00015322307935012567
1326.333102304116,1326.333102304116,1.0000582124904238,0.0001532133079740074
1326.3400467391946,1326.3400467391946,1.0001524490392606,0.000153235513650801
1326.3481022839399,1326.3481022839399,0.999920915619791,0.00015322072357464744
1326.356713383547,1326.356713383547,0.9997680583454317,0.0001532296523162739
1326.363657818763,1326.363657818763,1.000040330504876,0.00015323816826123398
1326.3706022540073,1326.3706022540073,1.0002371042190255,0.00015325084121675826
1326.3775466892898,1326.3775466892898,0.9998428413762479,0.00015322234132265312
1326.3844911246156,1326.3844911246156,1.000032509940277,0.0001532544322120155
1326.3914355599711,1326.3914355599711,1.0002834873323505,0.0001532683788030931
1326.3983799953733,1326.3983799953733,0.9996281895991428,0.00015324011592573298
1326.4053244308009,1326.4053244308009,0.9998477990570832,0.00015325996126365322
1326.4122688662703,1326.4122688662703,1.0003273775521735,0.00015330614052081859
1326.4192133017764,1326.4192133017764,0.9998086127462033,0.00015326432596169193
1326.426157737306,1326.426157737306,1.0003151996447401,0.00015330187060947462
1326.4331021728826,1326.4331021728826,0.9999373607529467,0.00015327880797582735
1326.4400466084853,1326.4400466084853,0.9998251302092944,0.00015327620554145141
1326.4469910441228,1326.4469910441228,1.00002635880147,0.00015330424299486023
1326.453935479792,1326.453935479792,0.9999405098990277,0.00015330487207352916
1326.460879915494,1326.460879915494,1.0002493679782511,0.00015333747342435113
1326.4678243512303,1326.4678243512303,0.9997895687281749,0.0001533010493046464
1326.4747687869988,1326.4747687869988,1.0000079994067899,0.00015331971440582233
1326.4817132228025,1326.4817132228025,1.000172726139181,0.00015332991279942386
1326.488657658629,1326.488657658629,0.9997437474147549,0.00015331191065088738
1326.495602094491,1326.495602094491,1.0001452103127968,0.00015333664487884028
1326.502546530384,1326.502546530384,0.9998649790534365,0.0001533043568410568
1326.509490966307,1326.509490966307,1.000156789190197,0.00015334350642325428
1326.516435402259,1326.516435402259,0.9998576401433157,0.0001533289688985671
1326.523379838243,1326.523379838243,0.9999757789767656,0.0001533377719265242
1326.5303242742534,1326.5303242742534,1.000104559601548,0.00015335952042730836
1326.537268710292,1326.537268710292,0.9997791272792448,0.00015334208297132832
1326.5442131463637,1326.5442131463637,0.9999975923637457,0.00015336410868588307
1326.5511575824667,1326.5511575824667,1.0000930095017142,0.0001533850825717686
1326.5581020185843,1326.5581020185843,1.0003486170672233,0.00015340425965407943
1326.5650464547398,1326.5650464547398,1.0000009422043277,0.00015337695384583404
1326.571990890919,1326.571990890919,0.9999877009098738,0.00015338131259672966
1326.5789353271298,1326.5789353271298,1.0000528460336706,0.000153405136813377
1326.5858797633607,1326.5858797633607,1.000144051768595,0.00015340020451396781
1326.5928241996216,1326.5928241996216,0.9997032781672412,0.00015337456326601536
1326.599768635911,1326.599768635911,0.9998398452945647,0.00015339987883791298
1326.6067130722208,1326.6067130722208,0.999840006044747,0.00015340276927201875
1326.6136575085627,1326.6136575085627,0.9998064262436758,0.00015340754487508425
1326.6206019449276,1326.6206019449276,1.0004037877629188,0.00015345498003433675
1326.6275463813133,1326.6275463813133,0.9999639111456766,0.00015341992872315664
1326.6344908177305,1326.6344908177305,1.0000984445106194,0.00015343968806547865
1326.6414352541656,1326.6414352541656,1.0002148533486805,0.00015344067490404004
1326.64837969063,1326.64837969063,0.9999888781274251,0.00015342430878033874
1326.6553241271145,1326.6553241271145,0.9997320565560125,0.00015340145593162037
1326.6622685636253,1326.6622685636253,0.9998601392667272,0.0001533955258039551
1326.6692130001559,1326.6692130001559,0.9999374720208802,0.00015340831873765964
1326.6761574367163,1326.6761574367163,1.000162912604968,0.00015341107841010973
1326.683101873294,1326.683101873294,1.000066521759798,0.0001533968402713437
1326.6914351972237,1326.6914351972237,1.0000222555557918,0.0001533859648484214
1326.6983796338477,1326.6983796338477,0.9999614367545917,0.00015337288248944123
1326.7053240704981,1326.7053240704981,1.0000827257549865,0.00015336203341399766
1326.7131018395744,1326.7131018395744,0.9998981300765879,0.00015335509475352416
1326.7206018312067,1326.7206018312067,0.999976888245912,0.00015335658337114355
1326.7275462679268,1326.7275462679268,0.9999546431334412,0.00015333914367640042
1326.7344907046675,1326.7344907046675,1.0000990105498553,0.00015335105189635755
1326.7414351414286,1326.7414351414286,1.0001406815092144,0.00015334132465771424
1326.7483795782093,1326.7483795782093,0.9996943863801777,0.0001533148990507052
1326.755324015011,1326.755324015011,1.000327738558816,0.00015335599518028422
1326.762268451836,1326.762268451836,0.9999608066767793,0.0001533240799633428
1326.7692128886786,1326.7692128886786,0.9998530541505035,0.0001533066456808067
1326.7761573255416,1326.7761573255416,0.9997941101687651,0.00015331255701316702
1326.7831017624217,1326.7831017624217,1.00016290255487,0.00015334636383619403
1326.7900461993195,1326.7900461993195,1.000141445513447,0.00015333686192316794
1326.7969906362432,1326.7969906362432,0.9999212359966532,0.00015332502974184633
1326.8039350731792,1326.8039350731792,1.000037875216547,0.00015334492568776703
1326.8108795101375,1326.8108795101375,1.000028063010596,0.0001533476903285472
1326.8178239471113,1326.8178239471113,1.0000503589150083,0.00015333323796620096
1326.824768384102,1326.824768384102,0.9998894349034184,0.00015333817273646317
1326.831712821116,1326.831712821116,0.9997726975535869,0.00015333756020917663
1326.838657258145,1326.838657258145,1.0002121259639285,0.00015336172700433344
1326.8456016951939,1326.8456016951939,1.0002821192153017,0.00015336044424141601
1326.852546132252,1326.852546132252,0.9998133280763863,0.0001533265445247503
1326.8594905693303,1326.8594905693303,0.9999065914813234,0.00015332754801204452
1326.866435006429,1326.866435006429,0.9999678119070214,0.00015331649686331283
1326.873379443548,1326.873379443548,0.9999288134412581,0.0001533124444134191
1326.8803238806722,1326.8803238806722,1.000022866455867,0.0001533127249455303
1326.8872683178174,1326.8872683178174,0.9999396757825622,0.00015329562815935284
1326.89421275498,1326.89421275498,1.0002389820714104,0.00015329359703007692
1326.9011571921576,1326.9011571921576,1.0000837362178865,0.00015326754399309857
1326.9081016293487,1326.9081016293487,0.9998683429572705,0.00015323358850820228
1326.915046066561,1326.915046066561,0.9998409417990297,0.00015322260205709833
1326.9219905037876,1326.9219905037876,0.9998339740500395,0.00015320703650142985
1326.928934941026,1326.928934941026,1.0001566771720565,0.00015320867618250005
1326.935879378282,1326.935879378282,1.000130806218082,0.00015320011912936662
1326.9428238155517,1326.9428238155517,0.9998010070963129,0.00015314530674498096
1326.9497682528313,1326.9497682528313,0.9999926103276284,0.00015316639694394672
1326.9567126901331,1326.9567126901331,1.0001383710476106,0.00015315948147212843
1326.9636571274445,1326.9636571274445,1.0001333426919303,0.0001531494099161832
1326.9706015647698,1326.9706015647698,0.9999380678607167,0.0001531194147651906
1326.977546002107,1326.977546002107,0.9998678365666832,0.00015310742185791027
1326.984490439465,1326.984490439465,1.0004615668794625,0.00015313595051609838
1326.991434876834,1326.991434876834,1.000020171038239,0.00015311524503260282
1326.998379314212,1326.998379314212,0.9998388436781699,0.00015310110584232855
1327.0053237516045,1327.0053237516045,0.9998908889103566,0.0001530830258822466
1327.0122681890114,1327.0122681890114,0.9997685391155564,0.00015308861202159807
1327.01921262643,1327.01921262643,1.0001145790667982,0.00015310612875059576
1327.0261570638636,1327.0261570638636,0.9999789811039699,0.00015310165169737244
1327.0331015013087,1327.0331015013087,0.9999740703553819,0.00015311225889460986
1327.0400459387677,1327.0400459387677,0.9999065673945079,0.00015310019704654925
1327.046990376236,1327.046990376236,1.0000313669071867,0.00015311277766742235
1327.0539348137215,1327.0539348137215,1.000218742113392,0.0001531217286476729
1327.0619903612117,1327.0619903612117,1.000047448194492,0.00015311602942912056
