time,time,flux,flux_err
1468.2785826829866,1468.2785826829866,1.0004209138031712,0.0004610895847737548
1468.2869161346543,1468.2869161346543,0.9996405195449244,0.00046086946192337925
1468.2952495862835,1468.2952495862835,1.0001014186692607,0.0004610905339544525
1468.3028885834708,1468.3028885834708,0.9996480059891555,0.0004207605253530314
1468.3098331261936,1468.3098331261936,1.0011038690492158,0.00042102260947830106
1468.316777668963,1468.316777668963,1.0003267093799306,0.00042082552126908475
1468.3237222115458,1468.3237222115458,1.0003638912582056,0.00042085411677600875
1468.330666754129,1468.330666754129,1.0000969184579596,0.00042074253326122683
1468.3376112966187,1468.3376112966187,0.9993243603292369,0.0004207437333931919
1468.344555839062,1468.344555839062,1.000052262056543,0.0004209184929241688
1468.351500381366,1468.351500381366,0.9998775704104252,0.00042061908624150103
1468.3584449236228,1468.3584449236228,0.9999804494131546,0.00042092964394268103
1468.3653894658335,1468.3653894658335,1.0007348159592395,0.0004208363044641895
1468.3723340079973,1468.3723340079973,0.9999292125703121,0.00042071338497809126
1468.383167493419,1468.383167493419,0.9997059365799975,0.0004206570757916102
1468.3959454506098,1468.3959454506098,1.0000822064891417,0.00042074352892810293
1468.402889992308,1468.402889992308,0.9997115923507115,0.00042051599245892894
1468.4098345340062,1468.4098345340062,1.0004996607387824,0.00042090858072725443
1468.4167790757042,1468.4167790757042,1.0004384633874264,0.0004210430416480649
1468.4237236171698,1468.4237236171698,0.9998841772349945,0.0004207308005207197
1468.4306681586822,1468.4306681586822,1.0001365200843562,0.0004207093784003182
1468.4376127000542,1468.4376127000542,1.000147018958876,0.00042068177800328783
1468.44455724138,1468.44455724138,1.0002655394470883,0.0004207881847894
1468.4515017826125,1468.4515017826125,0.9999463332349275,0.00042070822450457075
1468.458446323752,1468.458446323752,0.9996315590702824,0.00042084789439299637
1468.4653908648452,1468.4653908648452,0.9996526794391267,0.00042065514794679536
1468.4723354058915,1468.4723354058915,1.0003697349139582,0.00042078262749419785
1468.4792799467978,1468.4792799467978,1.000190125252049,0.00042090597997799205
1468.4862244876579,1468.4862244876579,1.000432065403419,0.0004209327508766988
1468.4931690284252,1468.4931690284252,1.0002751467748823,0.00042080646415168944
1468.500113569099,1468.500113569099,0.9993751669829504,0.00042082230808548427
1468.5070581098657,1468.5070581098657,0.9998404795885556,0.00042057243276616104
1468.5140026504,1468.5140026504,1.000495682413153,0.0004206372353604816
1468.5209471907942,1468.5209471907942,1.00004277058482,0.00042088785810625977
1468.5278917312353,1468.5278917312353,1.0000683974592997,0.00042069911018617406
1468.534836271537,1468.534836271537,0.9997353065975787,0.000420688300752904
1468.541780811745,1468.541780811745,0.9999835123940919,0.00042073024811258296
1468.5487253519527,1468.5487253519527,1.0004585718475227,0.00042074736847501495
1468.5556698920213,1468.5556698920213,1.0003646535260153,0.0004207334524644741
1468.5626144320902,1468.5626144320902,1.0011696740591756,0.00042089576586058097
1468.569558972019,1468.569558972019,0.9994807383360158,0.0004208131122522869
1468.576503511854,1468.576503511854,0.999946237366992,0.00042046637713410767
1468.58344805169,1468.58344805169,1.0001138289535607,0.00042092307929206724
1468.5903925913856,1468.5903925913856,0.9996659235042176,0.0004206515538272248
1468.5973371310351,1468.5973371310351,0.9992174682666825,0.00042074417471354265
1468.6042816705915,1468.6042816705915,1.0002249705436816,0.00042075359406248974
1468.6112262100546,1468.6112262100546,1.0003784106505342,0.000420891403512515
1468.6181707495641,1468.6181707495641,0.9998515248274525,0.00042052123759081587
1468.6251152888412,1468.6251152888412,1.000342288175982,0.000420884623876871
1468.6320598280713,1468.6320598280713,0.9999038618958302,0.00042074970999167243
1468.639004367255,1468.639004367255,1.0001231460586095,0.0004205702852464022
1468.6459489063923,1468.6459489063923,1.000406946125361,0.00042067971711279674
1468.6528934453897,1468.6528934453897,0.9999995106233985,0.0004207489786958777
1468.6598379843404,1468.6598379843404,0.9997635495690321,0.00042052254771559044
1468.6667825232453,1468.6667825232453,1.0001349453557125,0.0004205732461080032
1468.6737270620092,1468.6737270620092,0.9998574782781752,0.00042053952207866095
1468.680671600774,1468.680671600774,0.9995291156549445,0.0004204352575833961
1468.6876161393989,1468.6876161393989,1.0003314245373593,0.00042081747084251497
1468.6945606779773,1468.6945606779773,0.9996398000656826,0.0004205893549558839
1468.7015052165093,1468.7015052165093,0.9998808749400485,0.0004205752272985884
1468.708449754901,1468.708449754901,1.0003835001938248,0.0004207111778724426
1468.7153942932932,1468.7153942932932,1.0002253617288968,0.00042068153197098604
1468.722338831499,1468.722338831499,1.0002870710096505,0.00042055367737892275
1468.729283369705,1468.729283369705,1.0000822197048151,0.00042071819227939314
1468.736227907911,1468.736227907911,0.9990133827048009,0.0004206429933093419
1468.7431724458834,1468.7431724458834,1.0003863905817192,0.00042060838006197
1468.750116983903,1468.750116983903,0.9996062287397851,0.00042058646610625735
1468.757061521737,1468.757061521737,0.9999418950708238,0.0004207057623815139
1468.76400605957,1468.76400605957,1.0005452343390844,0.00042079625828897926
1468.7709505973103,1468.7709505973103,1.0005703553276377,0.0004210458684782008
1468.7778951350035,1468.7778951350035,0.999237369761136,0.0004207449507157413
1468.784839672604,1468.784839672604,1.0002139011807045,0.00042087745292792276
1468.7917842101117,1468.7917842101117,1.0002384686464452,0.00042050389890902466
1468.7987287475257,1468.7987287475257,0.9996900412578521,0.0004206600738972567
1468.8056732848931,1468.8056732848931,1.0003378053292424,0.00042067204704398055
1468.8126178221676,1468.8126178221676,0.9994197448187008,0.00042066531193209634
1468.8195623593956,1468.8195623593956,0.9999197142727703,0.0004207242063733279
1468.8265068964374,1468.8265068964374,1.000180098000086,0.0004211266715904562
1468.8334514335725,1468.8334514335725,0.9999376031057297,0.00042064543081900307
1468.8403959705206,1468.8403959705206,1.0005237385650294,0.00042076391289611655
1468.8473405075156,1468.8473405075156,0.999839331574378,0.00042054381600081347
1468.854285044325,1468.854285044325,0.9998972451441798,0.00042047349105924875
1468.861229581087,1468.861229581087,0.9998520420812053,0.0004205963619095844
1468.8681741177563,1468.8681741177563,1.0002380592778624,0.0004204947616659713
1468.8751186543784,1468.8751186543784,0.9995597999213125,0.0004206442852922678
1468.8820631908616,1468.8820631908616,1.000483034800982,0.00042068589670370127
1468.889007727298,1468.889007727298,0.9998944624615504,0.0004205169212261395
1468.8959522637342,1468.8959522637342,0.9996212144693889,0.0004206243433456095
1468.9028968000307,1468.9028968000307,1.0002395226371865,0.00042067563402432335
1468.9098413362342,1468.9098413362342,1.000135319009767,0.0004207550059990053
1468.9167858724377,1468.9167858724377,1.000352789246262,0.00042080358412667815
1468.9237304085018,1468.9237304085018,0.9997412111256552,0.00042081073169676327
1468.930674944519,1468.930674944519,0.9997995625728635,0.00042050157960218476
1468.9376194804893,1468.9376194804893,0.9998498843316025,0.00042056380473245325
1468.9445640163203,1468.9445640163203,1.000428427931589,0.0004207689701083283
1468.9515085520113,1468.9515085520113,0.9997806054431349,0.00042067634318414563
1468.9590086506196,1468.9590086506196,0.9995749402641657,0.000420487850823468
1468.9667865305232,1468.9667865305232,1.0005808758863441,0.0004207663604703921
1468.973731066028,1468.973731066028,0.9995938773622821,0.0004205211299243246
1468.9806756014864,1468.9806756014864,1.0002195450090752,0.0004206051634649623
1468.9876201368984,1468.9876201368984,1.0002278659713264,0.00042069171786885084
1468.9945646721703,1468.9945646721703,0.999543983200201,0.00042075601896742355
1469.001509207396,1469.001509207396,0.9992561742159785,0.0004206014534608891
1469.008453742575,1469.008453742575,1.00045780802132,0.0004208345009243435
1469.0153982776606,1469.0153982776606,1.000330263161733,0.00042059643141226726
1469.022342812654,1469.022342812654,1.000337697991457,0.00042047724449371937
1469.0292873475532,1469.0292873475532,1.0007464861047457,0.00042100272578001076
1469.0362318824996,1469.0362318824996,0.9997844213000879,0.00042035160425948453
1469.0431764172129,1469.0431764172129,0.9993517874711673,0.00042028739199252387
1469.0501209519261,1469.0501209519261,0.9999323321506761,0.00042053121041871536
1469.0570654865933,1469.0570654865933,0.9998733533871837,0.0004205793475639915
1469.06401002112,1469.06401002112,1.0002962475219757,0.0004209240069194686
1469.0709545555542,1469.0709545555542,0.9999961946014329,0.0004206053068760117
1469.0778990899885,1469.0778990899885,0.9995314709228991,0.0004205182722464841
1469.0848436243289,1469.0848436243289,1.0000003510846227,0.00042054565812389266
1469.091788158577,1469.091788158577,1.000032041379852,0.0004205019709876311
1469.098732692778,1469.098732692778,1.0002728713905908,0.0004205511903263482
1469.1056772268857,1469.1056772268857,1.000321132000271,0.00042054860612028756
1469.1126217608546,1469.1126217608546,0.9997869187854661,0.00042071543148313416
1469.1195662948223,1469.1195662948223,1.0001576878535694,0.0004207168109636401
1469.126510828744,1469.126510828744,1.0001305835111958,0.0004205133127241814
1469.1334553625265,1469.1334553625265,0.9997314508483551,0.0004203820870402433
1469.1403998962153,1469.1403998962153,0.9996522536825037,0.0004206454053062426
1469.1473444299045,1469.1473444299045,0.9996533903759076,0.00042076671818754626
1469.1542889635462,1469.1542889635462,1.0001711127616724,0.0004209015426386594
1469.161233496956,1469.161233496956,1.0007783946823898,0.0004209958095780241
1469.1681780304123,1469.1681780304123,1.0001718139103721,0.00042044437167446824
1469.1751225637286,1469.1751225637286,0.9999815629512568,0.00042050062189757914
1469.1820670969987,1469.1820670969987,0.9997589813768585,0.0004206697233815887
1469.1890116302216,1469.1890116302216,0.9999177791694397,0.0004205624881109977
1469.1959561633516,1469.1959561633516,0.9995548104838686,0.00042048244795406963
1469.2029006963419,1469.2029006963419,1.0002678497474544,0.00042065772018109044
1469.2098452293326,1469.2098452293326,1.0002303560202601,0.0004208078129954361
1469.2167897622767,1469.2167897622767,0.9996709733542174,0.00042068464936424884
1469.2237342950807,1469.2237342950807,0.9999148633732785,0.00042086578022076747
1469.2306788278383,1469.2306788278383,1.0003251245427045,0.00042078144188374114
1469.2376233605023,1469.2376233605023,0.999853548249637,0.00042063778239808763
1469.2445678931206,1469.2445678931206,1.0000072553847938,0.00042074165823406293
1469.2515124255522,1469.2515124255522,1.0006036078999507,0.00042091004933579444
1469.2584569581697,1469.2584569581697,0.9990667066812273,0.00042066365697784766
1469.2654014904617,1469.2654014904617,1.0002602458069956,0.000420495297358684
1469.272346022707,1469.272346022707,0.9997199736707529,0.0004203192120522937
1469.279290554953,1469.279290554953,1.0000579505313287,0.0004205584501037041
1469.286235087105,1469.286235087105,1.0006058070119066,0.0004206448455901488
1469.293179619164,1469.293179619164,1.000232635892992,0.00042054134341760324
1469.3001241511768,1469.3001241511768,0.9999879005070167,0.0004207442619419071
1469.3070686830956,1469.3070686830956,1.0004426931799104,0.00042075602650587225
1469.3140132149688,1469.3140132149688,0.9998815690344601,0.00042067947074124826
1469.320957746702,1469.320957746702,0.9992096744069524,0.00042074883394745567
1469.327902278435,1469.327902278435,1.000211773617605,0.00042069312920592453
1469.334846810075,1469.334846810075,1.0001730766491788,0.00042078576095476753
1469.3417913415753,1469.3417913415753,0.9998796283964364,0.0004205685839412305
1469.3487358730758,1469.3487358730758,1.000416681144578,0.0004207252488382685
1469.355680404436,1469.355680404436,1.0001164153090691,0.000420659201062585
1469.3626249357972,1469.3626249357972,1.0000450851250025,0.00042079106441433937
1469.369569467018,1469.369569467018,0.999570146968072,0.00042071846263400206
1469.3765139982384,1469.3765139982384,0.999382919751546,0.0004206770789002033
1469.3834585292734,1469.3834585292734,1.0005834041324397,0.0004208049760016843
1469.3904030603082,1469.3904030603082,1.0001810943944114,0.00042049927884980806
1469.3973475912962,1469.3973475912962,0.9997114985775845,0.0004207311430432052
1469.4042921220978,1469.4042921220978,0.9998577068202031,0.0004207626970230402
1469.4112366529462,1469.4112366529462,1.0001851955549015,0.0004206395844767098
1469.4181811836547,1469.4181811836547,1.0002876916844654,0.0004207350172294815
1469.4251257142707,1469.4251257142707,0.9999305420771044,0.000420543507168281
1469.4320702448863,1469.4320702448863,1.0004849877815294,0.0004207370821407819
1469.4390147753616,1469.4390147753616,0.9996298136870573,0.00042057317267404947
1469.4459593057913,1469.4459593057913,0.9995568153842305,0.00042067661768424943
1469.4529038361275,1469.4529038361275,1.000364441347693,0.00042065752280283917
1469.4598483663704,1469.4598483663704,0.9996125569150486,0.00042052182272061986
1469.4667928966603,1469.4667928966603,0.9996409562721139,0.00042070900873801613
1469.4737374267172,1469.4737374267172,1.0007315714768141,0.00042082431603203033
1469.4806819567734,1469.4806819567734,0.9999904669976415,0.0004207506065514525
1469.487626486784,1469.487626486784,0.9998542142340142,0.00042060887204029327
1469.4945710166544,1469.4945710166544,1.0001398869519227,0.00042071240779740983
1469.5015155464316,1469.5015155464316,0.9995844070695641,0.0004205569497034821
1469.508460076209,1469.508460076209,1.0011480027915367,0.0004208508351861085
1469.5154046058929,1469.5154046058929,0.999205823615983,0.0004205554002581672
1469.522349135484,1469.522349135484,0.9998648744563937,0.0004207929833324791
1469.529293665029,1469.529293665029,0.9998484121288538,0.0004204378430049615
1469.5362381944803,1469.5362381944803,0.9998253342374426,0.0004205222696538356
1469.5431827238388,1469.5431827238388,1.0004593663695676,0.0004205181202697196
1469.5501272531503,1469.5501272531503,0.9999059735514783,0.0004204034539645532
1469.557071782369,1469.557071782369,1.0001391904069572,0.0004205484194833386
1469.5640163114942,1469.5640163114942,1.0001866420897794,0.00042052565013443873
1469.5709608405264,1469.5709608405264,0.9996421080954775,0.00042082005091282433
1469.577905369652,1469.577905369652,1.0003818152341393,0.00042068378931101903
1469.5848498985447,1469.5848498985447,0.9999966256971572,0.0004205699995988834
1469.5917944273904,1469.5917944273904,0.9995046787087439,0.00042073832754810635
1469.5987389560971,1469.5987389560971,0.9996644329836804,0.0004205351853898631
1469.6056834848034,1469.6056834848034,1.0003124977942603,0.0004207370784448821
1469.612628013463,1469.612628013463,0.9994346520519223,0.00042065374952456925
1469.6195725419834,1469.6195725419834,0.9995618236598048,0.0004208045678222557
1469.6265170704567,1469.6265170704567,1.0005079896963216,0.000420618425888947
1469.6334615988835,1469.6334615988835,0.9997533956113884,0.00042069325597319596
1469.6404061271708,1469.6404061271708,0.9990926791652714,0.000420467305726164
1469.647350655458,1469.647350655458,0.9999312354212471,0.00042060874116358314
1469.6542951836059,1469.6542951836059,1.0008709740623718,0.000420852012205599
1469.661239711707,1469.661239711707,1.0006378642709852,0.00042071515958402893
1469.668184239761,1469.668184239761,0.9997681168956933,0.0004204180408909357
1469.6751287676757,1469.6751287676757,1.0002280729956268,0.00042065023833847846
1469.6820732955905,1469.6820732955905,0.9994016330789307,0.0004207312731692411
1469.6890178233193,1469.6890178233193,0.999880463359404,0.00042057005666641136
1469.6959623510477,1469.6959623510477,0.9998002563432273,0.00042082146553757945
1469.7029068787758,1469.7029068787758,0.9997305940540049,0.0004205313014021935
1469.709851406318,1469.709851406318,1.0005340258901945,0.00042096332574947893
1469.7167959338135,1469.7167959338135,1.0001541110712107,0.00042074339090277516
1469.723740461263,1469.723740461263,0.9993992673210791,0.00042058660148290024
1469.7306849886186,1469.7306849886186,1.0001853878643359,0.00042061905262912486
1469.7376295158815,1469.7376295158815,1.0003874538354798,0.0004208800581660974
1469.7445740430976,1469.7445740430976,1.0003136663329015,0.00042080952433848795
1469.7515185702207,1469.7515185702207,1.0000890252138421,0.00042053476048041114
1469.758463097251,1469.758463097251,0.9998410989996577,0.0004206308215496863
1469.765407624234,1469.765407624234,1.0003837948242853,0.0004209551391866803
1469.7723521511246,1469.7723521511246,0.99987741210538,0.0004208032121212731
1469.7792966779682,1469.7792966779682,0.9998249085409917,0.00042068439358970743
1469.7862412047652,1469.7862412047652,1.0003007851122245,0.00042073917253330676
1469.7931857313295,1469.7931857313295,0.9996514529391041,0.00042083157406413486
1469.800130258127,1469.800130258127,1.000208049777362,0.0004206718257126359
1469.8070747844583,1469.8070747844583,0.9999997201392045,0.0004206936522737988
1469.814019311023,1469.814019311023,0.9999104409954029,0.00042045123755276426
1469.8209638373537,1469.8209638373537,0.9996798921269623,0.00042077306000934677
1469.827908363685,1469.827908363685,1.0006931255793203,0.00042085026464644274
1469.8348528899237,1469.8348528899237,1.0005334940302328,0.0004207513818256036
1469.841797416069,1469.841797416069,0.9995295440466252,0.00042045532027384594
1469.8487419421679,1469.8487419421679,0.9995228521494809,0.0004207154328086089
1469.8556864681268,1469.8556864681268,0.9992964459609496,0.00042065664719197047
1469.8626309940853,1469.8626309940853,1.0001410566005349,0.0004209499062749443
1469.869575519951,1469.869575519951,1.0004363619356953,0.0004208031958332837
1469.8765200457706,1469.8765200457706,0.9996726652687584,0.00042064374448839303
1469.8834645714503,1469.8834645714503,1.0001595360296256,0.0004208081606022399
1469.8904090970832,1469.8904090970832,1.0001899456421044,0.0004206704254670605
1469.8973536225762,1469.8973536225762,1.0000462082772519,0.000420846791739941
1469.9042981481625,1469.9042981481625,0.9996071884694112,0.0004206361776417881
1469.9112426736096,1469.9112426736096,0.9999421347131305,0.0004209271945947165
1469.9181871988235,1469.9181871988235,1.0000458255372788,0.0004207501634446762
1469.9251317241306,1469.9251317241306,0.9999857099690285,0.0004208567723794889
1469.9320762492978,1469.9320762492978,1.0001418416175574,0.00042085924288865433
1469.9390207744186,1469.9390207744186,1.0002869510766117,0.00042048246299474336
1469.9459652994465,1469.9459652994465,1.0000431660577154,0.0004207864685446791
1469.9529098244273,1469.9529098244273,1.0002937657678277,0.0004206489350107672
1469.9598543492684,1469.9598543492684,1.0005588116578656,0.0004208613945941306
1469.9667988740637,1469.9667988740637,0.9997406962964345,0.00042123534756404466
1469.9737433988587,1469.9737433988587,0.9991877512994234,0.00042062843563795495
1469.980687923513,1469.980687923513,0.9999978139134669,0.000420757954360756
1469.9876324480751,1469.9876324480751,1.0000259128371805,0.000420815275751917
1469.9945769725903,1469.9945769725903,1.0005275291564464,0.0004209553486276804
1470.0015214970597,1470.0015214970597,0.99999308898397,0.00042087437552391167
1470.0084660213888,1470.0084660213888,0.9995360051703578,0.00042058044030941104
1470.0154105457646,1470.0154105457646,1.0004567110269884,0.00042043814294077627
1470.0223550699536,1470.0223550699536,1.0000921311366553,0.00042079477548550334
1470.0292995940033,1470.0292995940033,0.9999564756728345,0.0004209263261938781
1470.0362441180996,1470.0362441180996,1.0000798600562846,0.0004206989392396
1470.043188642103,1470.043188642103,1.000189781718133,0.000420599534020662
