time,time,flux,flux_err
1325.298808748793,1325.298808748793,0.9998221627776589,0.00031049131987667374
1325.3071420747103,1325.3071420747103,1.0002429716486334,0.00031062518617025524
1325.3154754009192,1325.3154754009192,1.0002200480753067,0.0003106817041081916
1325.323114283521,1325.323114283521,0.9996812700748647,0.00028361367286938564
1325.3300587224617,1325.3300587224617,0.9995540269119824,0.0002836534309744161
1325.3370031615887,1325.3370031615887,1.0003278106170048,0.00028382714602724233
1325.3439476009196,1325.3439476009196,1.0000459625410891,0.0002838400823778884
1325.3508920404367,1325.3508920404367,1.000100110869461,0.0002839399070262344
1325.3578364801401,1325.3578364801401,0.9999020848927529,0.0002839962089644964
1325.3647809200297,1325.3647809200297,1.000343992690297,0.0002841454454474556
1325.3717253601112,1325.3717253601112,0.9998836453559429,0.0002841759655459938
1325.3786698003794,1325.3786698003794,0.9999860610894586,0.0002842657290770856
1325.3856142408104,1325.3856142408104,0.9998137995413003,0.00028435119295358466
1325.3925586814391,1325.3925586814391,1.0001809459437891,0.0002844508790739709
1325.3995031222307,1325.3995031222307,0.9997644671854772,0.0002844860628021833
1325.4064475632092,1325.4064475632092,1.0002927558194767,0.00028462009597840607
1325.4133920043673,1325.4133920043673,0.9997903574581993,0.0002846564400318742
1325.4203364456832,1325.4203364456832,0.9998099239050868,0.00028473561648234926
1325.4272808871792,1325.4272808871792,0.9998355144104435,0.0002848285767042284
1325.4342253288385,1325.4342253288385,1.0004044818078979,0.00028494091254676815
1325.4411697706723,1325.4411697706723,1.000145185367917,0.000284975101467666
1325.4481142126574,1325.4481142126574,1.0000991723252195,0.000285082715920824
1325.4550586548169,1325.4550586548169,0.9998558078250698,0.0002851066953807397
1325.4620030971337,1325.4620030971337,0.9997355695627526,0.0002851916520811886
1325.4689475396135,1325.4689475396135,0.999907839945777,0.00028529556015815036
1325.4758919822507,1325.4758919822507,0.9996698522442522,0.0002853436368083011
1325.4828364250448,1325.4828364250448,1.0011107315784082,0.00028562493507462976
1325.4897808679964,1325.4897808679964,0.9998490040916403,0.0002855717389487022
1325.496725311099,1325.496725311099,0.9998193847908382,0.00028568622798836246
1325.5036697543528,1325.5036697543528,0.9999202127672163,0.0002857645349175261
1325.5106141977526,1325.5106141977526,0.9999198186715903,0.000285862101394053
1325.517558641309,1325.517558641309,0.9998601097093779,0.000285938594648716
1325.5245030850056,1325.5245030850056,0.9999340871732961,0.00028606196126505345
1325.531447528853,1325.531447528853,1.0000770989414522,0.00028618609055928177
1325.5383919728345,1325.5383919728345,0.9996849621105817,0.00028620969465217335
1325.545336416962,1325.545336416962,1.0000514224848995,0.0002863736825836848
1325.5522808612345,1325.5522808612345,1.0001908452225636,0.0002865147390880154
1325.559225305647,1325.559225305647,1.0004187563177651,0.00028659469986703465
1325.5661697501932,1325.5661697501932,0.9999873155853422,0.0002866619848877733
1325.5731141948731,1325.5731141948731,0.9999292689945127,0.00028673683752641
1325.5800586396933,1325.5800586396933,1.0002061945553251,0.0002868861451765089
1325.5870030846409,1325.5870030846409,1.0000199409986423,0.0002869412574200284
1325.593947529711,1325.593947529711,0.9997095964376257,0.0002869856938716391
1325.6008919749208,1325.6008919749208,0.9999360045061909,0.00028706894305199047
1325.6078364202644,1325.6078364202644,0.9999059088964323,0.00028716020396781693
1325.6147808657363,1325.6147808657363,0.999810154418104,0.00028716511783952317
1325.621725311324,1325.621725311324,1.0002161650260781,0.0002872954661991132
1325.6286697570406,1325.6286697570406,0.9996308055298879,0.00028723431359794214
1325.635614202873,1325.635614202873,1.0002924936472102,0.00028738487901678716
1325.6425586488335,1325.6425586488335,0.999920773911432,0.0002873424590841486
1325.6495030949225,1325.6495030949225,1.0001856421733428,0.0002874458500943872
1325.65644754111,1325.65644754111,1.0002233210100844,0.0002874398063486911
1325.6633919874319,1325.6633919874319,0.9997836382359064,0.0002874063623147745
1325.6703364338637,1325.6703364338637,1.0000610389044708,0.0002874307095092591
1325.6772808804124,1325.6772808804124,1.0000608567616547,0.0002874882276468672
1325.68422532706,1325.68422532706,1.000101829767462,0.0002875204935692142
1325.6911697738356,1325.6911697738356,0.9997129373533273,0.0002875201349405316
1325.6981142207162,1325.6981142207162,1.0002074793184361,0.00028762398568572334
1325.7050586677128,1325.7050586677128,1.0000519822600937,0.0002876713983598111
1325.712003114814,1325.712003114814,0.9997439251003921,0.000287680911884486
1325.7189475620205,1325.7189475620205,1.0003051550815025,0.0002878368787627973
1325.7258920093316,1325.7258920093316,0.9997618615792019,0.0002878049847015349
1325.7328364567472,1325.7328364567472,1.0000904559821777,0.00028788279305803097
1325.7397809042682,1325.7397809042682,0.9994493364721213,0.0002878783995512031
1325.7467253518873,1325.7467253518873,1.0001855703586178,0.0002880069398476598
1325.753669799618,1325.753669799618,0.9999476247955845,0.0002880606629773523
1325.760614247447,1325.760614247447,1.000421519100408,0.0002881896705115534
1325.7675586953633,1325.7675586953633,0.9998987409060381,0.0002881859398343616
1325.7745031433847,1325.7745031433847,1.000158265005213,0.0002882886820471745
1325.7814475915045,1325.7814475915045,1.0003584791777265,0.00028838025318905184
1325.788392039712,1325.788392039712,0.9998341151022132,0.00028837354340109764
1325.7953364880245,1325.7953364880245,0.9997830869229294,0.0002884453810219348
1325.8022809364184,1325.8022809364184,0.9999396269974898,0.00028847499562495216
1325.8092253849113,1325.8092253849113,0.9996960814873985,0.00028848665967125275
1325.8161698335025,1325.8161698335025,0.9994692894613652,0.0002885117975186713
1325.82311428217,1325.82311428217,1.000559023896656,0.00028865074760792673
1325.8300587309304,1325.8300587309304,1.000087495499252,0.00028865551284626537
1325.837003179784,1325.837003179784,1.0001044719312642,0.0002886447983979997
1325.8439476287308,1325.8439476287308,1.0002300918335834,0.00028867992536201403
1325.850892077747,1325.850892077747,1.0002226099508582,0.00028868551726539643
1325.857836526863,1325.857836526863,0.99988040717418,0.00028863480193063064
1325.864780976054,1325.864780976054,1.0000621660932025,0.0002886434690026019
1325.8717254253327,1325.8717254253327,0.9999857282189998,0.0002885626558199295
1325.8786698746926,1325.8786698746926,0.9999511328125614,0.00028851633574926465
1325.8856143241342,1325.8856143241342,0.9995275633999802,0.0002884055425753436
1325.892558773651,1325.892558773651,0.9997553557520968,0.00028838721499772885
1325.8995032232617,1325.8995032232617,1.0000627832256388,0.00028842642704727584
1325.9064476729297,1325.9064476729297,1.000332284476471,0.00028842481508793976
1325.9133921226917,1325.9133921226917,0.9997697560221063,0.00028829015199907616
1325.9203365725286,1325.9203365725286,1.0000789753325798,0.0002882907431054103
1325.927281022436,1325.927281022436,1.0001995292911938,0.00028829463965980416
1325.9342254724245,1325.9342254724245,1.0000028130555574,0.00028824194873489436
1325.9411699224775,1325.9411699224775,1.0000555351468756,0.00028821377537243585
1325.9481143726175,1325.9481143726175,0.9998258374171638,0.0002881855544663597
1325.9550588228274,1325.9550588228274,1.000004008662162,0.00028817411250833857
1325.9628366071397,1325.9628366071397,1.0001426909387574,0.00028819131180438497
1325.970336613524,1325.970336613524,1.0001263647726422,0.00028824202291535036
1325.9772810639552,1325.9772810639552,1.000128828898037,0.00028822161586782664
1325.9842255144615,1325.9842255144615,1.0000482792045509,0.00028821824321951904
1325.9911699650263,1325.9911699650263,0.9995196172911399,0.0002881876279209486
1325.9981144156613,1325.9981144156613,1.0001319663574304,0.0002882641394345533
1326.0050588663714,1326.0050588663714,0.9998699656767448,0.00028826663091080886
1326.0120033171463,1326.0120033171463,0.9995753054594327,0.00028829707537132785
1326.018947767979,1326.018947767979,1.0001253761355688,0.0002883933016373693
1326.0258922188757,1326.0258922188757,1.0000478578522478,0.0002884925490698717
1326.032836669848,1326.032836669848,1.0003371041651903,0.00028852837949871427
1326.0397811208725,1326.0397811208725,1.0000206648936867,0.0002884619719200717
1326.0467255719616,1326.0467255719616,1.0004539101948888,0.000288533817272406
1326.0536700231141,1326.0536700231141,0.9997558827159171,0.00028848931977806986
1326.0606144743251,1326.0606144743251,1.0001068609335342,0.0002885583342696127
1326.0675589256061,1326.0675589256061,0.9999725216885673,0.0002885658880999496
1326.0745033769388,1326.0745033769388,1.0001840170874083,0.000288609636121947
1326.0814478283312,1326.0814478283312,0.9995486604951477,0.0002885697090287327
1326.0883922797802,1326.0883922797802,0.9998521121283529,0.0002886083547500791
1326.0953367312943,1326.0953367312943,1.0000409901750127,0.00028865363395384015
1326.1022811828545,1326.1022811828545,0.9997688060444645,0.00028864805147470624
1326.1092256344787,1326.1092256344787,1.0000340962166496,0.0002886629293058192
1326.1161700861553,1326.1161700861553,0.9997743227511438,0.0002886510236260642
1326.123114537884,1326.123114537884,1.000435629326558,0.0002886900276565062
1326.1300589896834,1326.1300589896834,1.0004348998320913,0.0002887046887915405
1326.137003441517,1326.137003441517,0.9995795783588122,0.00028857046309391324
1326.1439478934149,1326.1439478934149,0.9997836587860963,0.0002885933074086024
1326.1508923453534,1326.1508923453534,1.000307813945843,0.0002886622730890668
1326.1578367973618,1326.1578367973618,0.9997066887707293,0.0002885800713051733
1326.1647812494114,1326.1647812494114,1.0000846880228962,0.00028863459343940695
1326.1717257015184,1326.1717257015184,1.0003236386740777,0.0002886267675513273
1326.1786701536669,1326.1786701536669,1.000447261107163,0.00028865807940710384
1326.1856146058672,1326.1856146058672,0.9995287701315325,0.00028855964841754234
1326.1925590581197,1326.1925590581197,0.9996779648807838,0.0002885975691571782
1326.1995035104198,1326.1995035104198,1.000317036261461,0.0002886844117859273
1326.2064479627713,1326.2064479627713,0.999916872721562,0.0002886005026966361
1326.2133924151644,1326.2133924151644,1.000283636287865,0.0002887002343798723
1326.220336867615,1326.220336867615,0.9995343439268749,0.0002885869941685037
1326.2272813201007,1326.2272813201007,1.000236286728301,0.000288655291311018
1326.234225772633,1326.234225772633,1.0002821790529561,0.0002886940977373928
1326.2411702252232,1326.2411702252232,0.9995041410098974,0.000288569617105959
1326.248114677855,1326.248114677855,0.9996510551031641,0.00028859530323339315
1326.2550591305148,1326.2550591305148,1.0000691029094582,0.00028864538303455766
1326.26200358324,1326.26200358324,1.000304303284956,0.0002886868225555913
1326.268948035999,1326.268948035999,1.0003362378861227,0.00028866186410238075
1326.2758924888046,1326.2758924888046,0.9999039458242484,0.00028859160748326664
1326.2828369416516,1326.2828369416516,1.0002202508276048,0.0002886641443240209
1326.2897813945387,1326.2897813945387,0.999951823072499,0.0002886094447639057
1326.2967258474669,1326.2967258474669,0.9997129104915661,0.0002885905415653939
1326.3036703004298,1326.3036703004298,1.000155670130299,0.0002886549652036599
1326.3106147534513,1326.3106147534513,0.9991018306632811,0.0002885794931092874
1326.3175592065018,1326.3175592065018,1.0000997064576507,0.00028868690021833344
1326.3245036595924,1326.3245036595924,0.9998656235929783,0.0002886930259524468
1326.331448112725,1326.331448112725,1.000248154352176,0.0002887508890332411
1326.3383925658975,1326.3383925658975,1.0001972762350282,0.00028876802238322874
1326.345892575367,1326.345892575367,0.9997980726027599,0.0002887696652828975
1326.355059253664,1326.355059253664,0.9999501580876856,0.0002888288558402424
1326.3620037069588,1326.3620037069588,1.0003897746668255,0.00028890504524851826
1326.3689481603003,1326.3689481603003,0.9998649477824321,0.00028888269860794213
1326.3758926136707,1326.3758926136707,0.9999391404316935,0.00028891138372523067
1326.3828370670878,1326.3828370670878,1.0001092128637188,0.0002889476164108373
1326.3897815205282,1326.3897815205282,0.9997593709083923,0.00028895359225772913
1326.3967259740034,1326.3967259740034,1.000362364362784,0.00028904116315682423
1326.4036704275252,1326.4036704275252,0.9997921926506745,0.00028900080642231914
1326.4106148810765,1326.4106148810765,0.9997751285683446,0.0002890566956036184
1326.4175593346622,1326.4175593346622,0.9998629170305211,0.00028907532797449985
1326.424503788277,1326.424503788277,0.9999104393397292,0.000289092402222004
1326.4314482419386,1326.4314482419386,1.0000444947804723,0.00028910547183926845
1326.4383926956175,1326.4383926956175,1.000507333104674,0.0002891660694309498
1326.4453371493375,1326.4453371493375,1.0000337652832931,0.0002891823584611159
1326.4522816030922,1326.4522816030922,1.0000321538568866,0.00028921712717096867
1326.4592260568759,1326.4592260568759,1.000046465378239,0.00028923008472669703
1326.4661705106944,1326.4661705106944,0.9998347303938011,0.0002892147838127853
1326.4731149645309,1326.4731149645309,1.0000908102874424,0.0002892621534736843
1326.4800594184255,1326.4800594184255,0.9998744574876216,0.00028925292743948306
1326.4870038723311,1326.4870038723311,0.9999909428252656,0.0002893019266362307
1326.4939483262665,1326.4939483262665,0.9998526662042959,0.00028929879471954316
1326.5008927802362,1326.5008927802362,0.9995516369247651,0.0002893206156379313
1326.5078372342355,1326.5078372342355,1.0005904281080125,0.0002894641261541567
1326.5147816882638,1326.5147816882638,1.0000535534002093,0.00028945138590869696
1326.5217261423272,1326.5217261423272,0.9999190543204799,0.00028945411861533616
1326.5286705964077,1326.5286705964077,0.9999377075288779,0.0002895111545210859
1326.5356150505231,1326.5356150505231,1.0001689362238326,0.00028955893448634614
1326.542559504668,1326.542559504668,1.0000814663695032,0.00028960296634259126
1326.5495039588418,1326.5495039588418,0.9995783950807404,0.0002895993850836636
1326.5564484130387,1326.5564484130387,1.0002353096387964,0.0002897184147348338
1326.5633928672646,1326.5633928672646,0.9998141729800002,0.00028968810617548775
1326.5703373215142,1326.5703373215142,0.9999928723784851,0.00028972697802200493
1326.577281775799,1326.577281775799,1.0001847890880586,0.0002897417938763264
1326.5842262301005,1326.5842262301005,1.0002716032113148,0.00028975456897632144
1326.5911706844317,1326.5911706844317,0.9998352859710359,0.00028978326147464093
1326.5981151387973,1326.5981151387973,0.9999714415929205,0.00028979597034484975
1326.6050595931752,1326.6050595931752,0.9997969189222676,0.00028979050217851747
1326.6120040475816,1326.6120040475816,0.9999081716646587,0.00028981296753584774
1326.6189485020113,1326.6189485020113,0.9999629498198674,0.0002898130656610126
1326.6258929564706,1326.6258929564706,1.0000442519774464,0.00028985274053569445
1326.6328374109526,1326.6328374109526,1.000007412453239,0.0002898333959894774
1326.6397818654582,1326.6397818654582,0.9999514666490523,0.00028981251387054927
1326.646726319993,1326.646726319993,1.0001911743964818,0.0002898422113670835
1326.6536707745393,1326.6536707745393,0.9997950458838559,0.0002897577385876975
1326.6606152291265,1326.6606152291265,1.0004787463846354,0.0002898205709567155
1326.6675596837133,1326.6675596837133,1.0000155788856806,0.0002897318014125396
1326.6745041383415,1326.6745041383415,1.0000118577454327,0.00028969700375471643
1326.6814485929808,1326.6814485929808,0.9997563165831753,0.00028966201409260056
1326.6895041604007,1326.6895041604007,1.0000089860436256,0.0002896825136523727
1326.6967263932816,1326.6967263932816,1.000049898026193,0.00028964864284935436
1326.7036708480025,1326.7036708480025,0.9998931086529488,0.0002895778793650454
1326.711170859114,1326.711170859114,0.9998521130521636,0.0002895373509685652
1326.7189486484376,1326.7189486484376,1.0004282835365188,0.000289563566459121
1326.7258931032225,1326.7258931032225,0.9997290246423324,0.0002894578747734524
1326.732837558025,1326.732837558025,0.9998114414879415,0.00028947583597355733
1326.739782012851,1326.739782012851,0.9999686974615983,0.000289430793869027
1326.7467264676936,1326.7467264676936,0.9997289184557845,0.00028937763579734745
1326.7536709225544,1326.7536709225544,1.0004037776032777,0.0002894350130807163
1326.7606153774443,1326.7606153774443,1.0002086116766802,0.00028940305695231963
1326.7675598323397,1326.7675598323397,1.0002774852433607,0.00028941792330752097
1326.7745042872643,1326.7745042872643,0.9997526310629453,0.0002893274782738609
1326.7814487422065,1326.7814487422065,1.0001962254084074,0.00028942753583991777
1326.788393197166,1326.788393197166,0.9999521110570324,0.0002893841649797785
1326.7953376521432,1326.7953376521432,0.9996858829201936,0.0002893814424432333
1326.8022821071438,1326.8022821071438,1.0000291350295991,0.0002894337285562961
1326.8092265621497,1326.8092265621497,0.9997618074242685,0.000289422229313991
1326.8161710171903,1326.8161710171903,1.0000640075815002,0.0002894635652658286
1326.8231154722434,1326.8231154722434,1.0000625067496742,0.0002894631278252464
1326.8300599273075,1326.8300599273075,0.9998577207940474,0.00028945430395412784
1326.8370043823957,1326.8370043823957,1.0003181132747119,0.00028949675208076077
1326.8439488375006,1326.8439488375006,0.9999756453842579,0.00028944892919769154
1326.850893292623,1326.850893292623,1.0001825137043105,0.00028944877205755134
1326.8578377477572,1326.8578377477572,0.9998211621112152,0.0002894162630189572
1326.8647822029209,1326.8647822029209,0.99987096657383,0.00028935711379670943
1326.8717266580902,1326.8717266580902,0.9999183666565201,0.0002893463136349712
1326.8786711132645,1326.8786711132645,1.0001598670167688,0.000289280220658687
1326.8856155684691,1326.8856155684691,0.9997885232388001,0.0002891481557474694
1326.8925600236903,1326.8925600236903,1.0000458458450692,0.00028915724151918465
1326.8995044789176,1326.8995044789176,0.9999920276337686,0.0002890492577499223
1326.906448934174,1326.906448934174,1.000193005817019,0.00028904519817821357
1326.9133933894366,1326.9133933894366,0.9998860835748857,0.0002889177372225653
1326.920337844716,1326.920337844716,1.0004605713580887,0.00028893366075772605
1326.9272823000133,1326.9272823000133,0.9998595950696055,0.0002887903369469738
1326.9342267553106,1326.9342267553106,0.9999857212138847,0.0002887561016930105
1326.941171210648,1326.941171210648,0.9999720918850972,0.00028866720983180763
1326.9481156659806,1326.9481156659806,0.9998832149433701,0.0002886149999580698
1326.95506012133,1326.95506012133,1.0003283647121837,0.0002886038012313062
1326.962004576703,1326.962004576703,1.000136289364111,0.0002885189494342823
1326.968949032082,1326.968949032082,0.9999416255220337,0.00028844334335836484
1326.9758934874776,1326.9758934874776,0.9998718079524318,0.0002884001192054833
1326.98283794288,1326.98283794288,0.9997134903965286,0.0002883036646949972
1326.9897823983051,1326.9897823983051,1.0001440158892205,0.0002883475091683625
1326.9967268537423,1326.9967268537423,1.0002619015510055,0.00028829235005937086
1327.0036713091845,1327.0036713091845,0.9993114324621228,0.0002881698355405287
1327.0106157646449,1327.0106157646449,1.0003804507554108,0.0002882833708303898
1327.0175602201225,1327.0175602201225,1.000523791621735,0.0002882685118564536
1327.0245046756058,1327.0245046756058,0.9999897096877491,0.0002882269046970155
1327.0314491311012,1327.0314491311012,0.9995251399666291,0.00028817651066631784
1327.0383935866132,1327.0383935866132,1.000009831152379,0.00028817724405926626
1327.0453380421436,1327.0453380421436,1.000152083533178,0.0002882098059786791
1327.0522824976736,1327.0522824976736,0.9999072067858592,0.00028822426479895675
1327.0600602878826,1327.0600602878826,1.0002389955207613,0.0002882465891080701
