time,time,flux,flux_err
1544.3310007987168,1544.3310007987168,0.9992115605770598,0.00212001984892289
1544.3393343944417,1544.3393343944417,0.9987945196351116,0.002112074843657951
1544.3469735235783,1544.3469735235783,1.001780156068122,0.0019203102147486353
1544.3539181867313,1544.3539181867313,1.0019144546020002,0.001913017109280206
1544.3608628496052,1544.3608628496052,0.9982308936572691,0.0019057524244805706
1544.3678075127584,1544.3678075127584,1.001329765309816,0.0018991640302847266
1544.374752175725,1544.374752175725,0.9994406063162092,0.001894258595329373
1544.3816968388787,1544.3816968388787,0.9985700902584677,0.0018873178898565178
1544.3886415020315,1544.3886415020315,0.9993185332199506,0.0018795227058452373
1544.3955861650916,1544.3955861650916,1.003885866837944,0.0018777894815407135
1544.402530828152,1544.402530828152,1.0032869312021295,0.0018724013259623327
1544.409475491398,1544.409475491398,0.9958304773449853,0.001864581347311867
1544.4164201545514,1544.4164201545514,1.0006819393103035,0.0018611707599724063
1544.4233648177046,1544.4233648177046,0.9994201040697789,0.00185636046596914
1544.4303094809507,1544.4303094809507,0.9992688230363465,0.0018528828026247225
1544.437254144104,1544.437254144104,0.9984057399078576,0.0018480594848217149
1544.4441988073504,1544.4441988073504,1.0000557695026007,0.0018439203329636777
1544.4511434705032,1544.4511434705032,1.0006342770525238,0.00184032765330934
1544.45808813375,1544.45808813375,1.0001046539470901,0.0018372481997625434
1544.4650327969962,1544.4650327969962,0.9991822369309672,0.0018370129450557364
1544.4719774602422,1544.4719774602422,0.9997977085360551,0.0018316453312539741
1544.4789221234885,1544.4789221234885,1.0005347708516823,0.001830481858092888
1544.485866786828,1544.485866786828,1.0036369621972172,0.0018309911774005855
1544.492811450074,1544.492811450074,1.0026812386636172,0.001829232741430568
1544.499756113321,1544.499756113321,1.0024250782924784,0.0018288191047455948
1544.506700776567,1544.506700776567,0.9958297337945293,0.0018263459635350684
1544.5136454399067,1544.5136454399067,0.992152359587618,0.0018275224346833772
1544.5205901031532,1544.5205901031532,0.995890860299863,0.0018316084546210088
1544.5275347664922,1544.5275347664922,0.995070868531809,0.0018306744175525104
1544.5344794297387,1544.5344794297387,0.9944499983887525,0.0018246898076122973
1544.5414240929847,1544.5414240929847,0.9924593106851789,0.0018140572042339733
1544.5483687563242,1544.5483687563242,1.0000684987257433,0.001812955348229283
1544.555313419664,1544.555313419664,1.002306781299367,0.0018128232041688755
1544.56225808291,1544.56225808291,1.0004084684892132,0.0018094714662064786
1544.5692027462496,1544.5692027462496,0.9988470007456968,0.0018078802290705785
1544.5761474094957,1544.5761474094957,0.9997581828777884,0.001804657397492845
1544.5830920728354,1544.5830920728354,1.001510102436428,0.0018041198002364891
1544.5900367360814,1544.5900367360814,1.0004643182286226,0.0018003434020602462
1544.596981399421,1544.596981399421,1.0000298922331772,0.0017989708934997863
1544.6039260626671,1544.6039260626671,0.9995588660602476,0.001797641704899828
1544.6108707259136,1544.6108707259136,1.0012964225372145,0.00179585660578589
1544.6178153892529,1544.6178153892529,0.9986198640124334,0.001795989788709719
1544.6247600524996,1544.6247600524996,0.9995124099295352,0.0017960083886195868
1544.6317047157454,1544.6317047157454,0.9992956294792293,0.0017932869252290401
1544.639204952201,1544.639204952201,1.002432133372837,0.0017895155753189632
1544.6469829749806,1544.6469829749806,0.9959888699901833,0.0017909822521462505
1544.6539276382268,1544.6539276382268,1.002209665005982,0.0017884495222933064
1544.66087230138,1544.66087230138,0.9992978684838709,0.0017878264301925105
1544.6678169646264,1544.6678169646264,1.0009850365182786,0.0017868563974907793
1544.6747616278726,1544.6747616278726,0.9999078714236322,0.0017845950184210185
1544.681706291026,1544.681706291026,1.0005670850794997,0.001783052138562783
1544.6886509542721,1544.6886509542721,1.0003643195223684,0.001781092563696271
1544.6955956175184,1544.6955956175184,0.9998588212623932,0.0017807201574265169
1544.7025402806717,1544.7025402806717,1.0003921757937184,0.0017816886400393635
1544.7094849438247,1544.7094849438247,0.999132938338,0.001778098871460804
1544.716429606978,1544.716429606978,1.0008243574316047,0.0017782294037588509
1544.723374270131,1544.723374270131,0.9985582861823163,0.0017744390342717257
1544.730318933284,1544.730318933284,1.0019202095486839,0.0017742654657460035
1544.7372635964377,1544.7372635964377,0.9990238691110715,0.0017727467582554126
1544.7442082594976,1544.7442082594976,1.0008839535153484,0.001771725379322626
1544.7511529225578,1544.7511529225578,1.0003539367490355,0.0017708735214874889
1544.7580975857109,1544.7580975857109,0.9995152481754037,0.0017717925929012074
1544.7650422486777,1544.7650422486777,1.0005716294339309,0.0017687050391834668
1544.771986911831,1544.771986911831,0.9993688782566377,0.0017688770837131847
1544.7789315747978,1544.7789315747978,1.0004214889614012,0.0017683232490171656
1544.7858762378578,1544.7858762378578,1.002226818702081,0.0017680094136817235
1544.7928209008246,1544.7928209008246,0.9983467208090172,0.0017667702837467088
1544.7997655638849,1544.7997655638849,0.998717640524158,0.0017643859926639131
1544.806710226665,1544.806710226665,0.9998846038262895,0.0017652287120684315
1544.8136548898185,1544.8136548898185,0.9998675788565865,0.0017651618629796022
1544.8205995526923,1544.8205995526923,1.002034050328879,0.0017646486789629288
1544.827544215473,1544.827544215473,1.00063048447351,0.0017629230862847734
1544.834488878533,1544.834488878533,1.0004309074771567,0.0017637839503121954
1544.8414335414996,1544.8414335414996,0.9990274359663583,0.0017619989665972693
1544.8483782042804,1544.8483782042804,0.9999135030228163,0.0017628693937358588
1544.8553228670612,1544.8553228670612,1.0002973189032098,0.001762109021866336
1544.8622675298416,1544.8622675298416,0.9975318831126053,0.0017584279524954544
1544.8692121926224,1544.8692121926224,1.0001456918419964,0.0017589502314528706
1544.876156855403,1544.876156855403,0.999517978475384,0.0017584170221482142
1544.8831015181836,1544.8831015181836,1.0009186022684324,0.0017567646227935878
1544.8900461809644,1544.8900461809644,1.0005978476515018,0.0017545238272332192
1544.8969908437448,1544.8969908437448,1.0007688021956747,0.0017536450995460373
1544.9039355065256,1544.9039355065256,0.9987293559006275,0.001752059521690565
1544.9108801688405,1544.9108801688405,1.0011636820072514,0.001752534191152768
1544.9178248316211,1544.9178248316211,0.9989746210109096,0.0017499541217708288
1544.9247694944015,1544.9247694944015,1.0017024118362643,0.0017500313805038075
1544.93171415681,1544.93171415681,1.0003110027995157,0.0017487705135392673
1544.938658819497,1544.938658819497,1.0000085014433626,0.0017487794907070236
1544.9456034819057,1544.9456034819057,0.9999699295054925,0.0017471661707576806
1544.952548144593,1544.952548144593,0.998210763758285,0.0017455834093955745
1544.959492806908,1544.959492806908,0.9995908302592532,0.0017433343789346946
1544.9664374695026,1544.9664374695026,1.0002475228312269,0.0017440303656921935
1544.9733821320035,1544.9733821320035,0.9991317264217738,0.0017415640005475675
1544.9803267943187,1544.9803267943187,1.0004888685094286,0.0017394243384727445
1544.9872714567268,1544.9872714567268,1.0014054477738124,0.0017389342967547659
1544.9942161191345,1544.9942161191345,0.9997765317013357,0.0017367068201095924
1545.00116078145,1545.00116078145,0.9977040528265597,0.0017338541236156125
1545.0081054437646,1545.0081054437646,1.000234728687732,0.0017336692461444984
1545.0150501060793,1545.0150501060793,1.0011953461992666,0.0017340254730422618
1545.0219947683015,1545.0219947683015,1.0024870734680063,0.0017349637970694013
1545.0289394306162,1545.0289394306162,1.000918258676657,0.0017312827297793429
1545.0358840927452,1545.0358840927452,0.9982905983950285,0.0017327169185338044
1545.0428287549669,1545.0428287549669,1.0022906674437155,0.0017330648802113032
1545.049773417096,1545.049773417096,0.9983529557274426,0.0017303378987593143
1545.0567180791309,1545.0567180791309,0.998263710640883,0.0017284972690508028
1545.063662741353,1545.063662741353,1.0013833921517472,0.0017296934037643729
1545.0706074032955,1545.0706074032955,0.9977626043429545,0.0017268293961408298
1545.077552065331,1545.077552065331,1.0000716407789565,0.0017258904704417512
1545.0844967273665,1545.0844967273665,1.0012740553104833,0.0017277616605485917
1545.0914413893092,1545.0914413893092,1.0016152733248311,0.0017241150000437463
1545.0983860512515,1545.0983860512515,0.9981367095862005,0.0017238448762101003
1545.105330713194,1545.105330713194,1.0014723615849452,0.001722101987346509
1545.112275375043,1545.112275375043,1.0004813459634658,0.0017200226901490034
1545.1192200367996,1545.1192200367996,1.0011488694028299,0.0017205932580124494
1545.1261646986488,1545.1261646986488,1.0001276278917206,0.0017170470507843934
1545.1331093604979,1545.1331093604979,0.9991487404834298,0.001718305564532879
1545.1400540221612,1545.1400540221612,0.9982659110068972,0.001714014271188302
1545.146998683917,1545.146998683917,1.0011980064796355,0.0017155427351059633
1545.1539433455805,1545.1539433455805,0.9979299108012777,0.001715137730333088
1545.16088800715,1545.16088800715,1.002248716469838,0.0017131275888312113
1545.1678326688132,1545.1678326688132,0.9992849643521466,0.0017126579452139928
1545.174777330383,1545.174777330383,1.0024501635496001,0.001710980230269837
1545.1817219919533,1545.1817219919533,0.9978378232975451,0.0017097296046292526
1545.18866665343,1545.18866665343,0.999781405021664,0.001710541797789781
1545.1956113149067,1545.1956113149067,1.0032247551835982,0.0017105356863863649
1545.2025559762901,1545.2025559762901,0.9981636884662695,0.0017087512357677793
1545.209500637767,1545.209500637767,0.9986742450161401,0.0017089747942273005
1545.2164452990573,1545.2164452990573,1.0011689611451948,0.001707639336708019
1545.223389960441,1545.223389960441,0.9979116161667096,0.0017093103920179098
1545.2303346216383,1545.2303346216383,0.999517589258723,0.0017061611539144529
1545.2372792830224,1545.2372792830224,0.9990465015194377,0.0017070645114451916
1545.2442239442196,1545.2442239442196,1.0001549674302865,0.0017038799617001318
1545.2511686053238,1545.2511686053238,1.0030432354443868,0.0017065258050699347
1545.2581132666141,1545.2581132666141,1.000281683646838,0.0017043646377239061
1545.2650579276253,1545.2650579276253,1.0016383196973153,0.0017058212288864946
1545.2720025887297,1545.2720025887297,1.000314774303896,0.0017022697939248585
1545.2789472497404,1545.2789472497404,0.995751109940865,0.0017001233536719583
1545.2858919107518,1545.2858919107518,1.0017141394527795,0.0017032244962389548
1545.292836571763,1545.292836571763,1.001044752876573,0.0017015997624647869
1545.2997812326812,1545.2997812326812,0.9975729792085943,0.0017001486262998903
1545.306725893506,1545.306725893506,0.9993396874780626,0.001699293965776779
1545.3136705543307,1545.3136705543307,1.0019372303569571,0.0017011014804540563
1545.3206152151556,1545.3206152151556,0.9985470658566923,0.0017010060480847646
1545.3275598760733,1545.3275598760733,0.9988988714180497,0.0016978708168842224
1545.334504536619,1545.334504536619,1.0021433635166141,0.0016975708912856224
1545.3414491974438,1545.3414491974438,1.001619990964292,0.0016982547674731555
1545.348393857896,1545.348393857896,0.9995296471615557,0.0016955257704527645
1545.355338518814,1545.355338518814,0.9989682752404118,0.0016951972176276365
1545.3622831792666,1545.3622831792666,1.0005155690611418,0.0016942382379697765
1545.3692278397186,1545.3692278397186,0.9994815141319947,0.0016925589457955927
1545.376172500171,1545.376172500171,0.9983612290561267,0.0016927684393211444
1545.3831171606232,1545.3831171606232,1.002388826555892,0.001693289773539667
1545.3900618210753,1545.3900618210753,0.9997799553270607,0.0016921884059352323
1545.397006481528,1545.397006481528,0.9995216866227346,0.001691138650267325
1545.40395114198,1545.40395114198,0.999613113873286,0.001691863286169119
1545.410895801967,1545.410895801967,1.0028577621141814,0.0016907866837018875
1545.4178404624192,1545.4178404624192,0.9989640547620902,0.0016902095798053038
1545.424785122499,1545.424785122499,0.9985503529044063,0.0016878094836814915
1545.431729782765,1545.431729782765,1.0002586728739993,0.0016876727561778808
1545.438674442845,1545.438674442845,1.0000757350794263,0.0016891050445651244
1545.4456191029242,1545.4456191029242,1.000398218606156,0.0016879841702374418
1545.4525637630045,1545.4525637630045,0.9979822937782824,0.0016862775818369245
1545.459508422991,1545.459508422991,0.9990945102252369,0.0016850860448147243
1545.4664530829773,1545.4664530829773,1.0008600906564813,0.0016838942800466497
1545.4733977428712,1545.4733977428712,0.998514128225912,0.0016830009390753323
1545.4803424026713,1545.4803424026713,1.0030158321515912,0.0016865936899877402
1545.4872870625652,1545.4872870625652,1.0000041237800592,0.0016813165864319804
1545.4942317222722,1545.4942317222722,1.0009107292766861,0.0016822090543149974
1545.5011763820726,1545.5011763820726,1.001295357357129,0.0016847511847251765
1545.5081210417798,1545.5081210417798,0.9984190467799069,0.0016808164078533944
1545.5150657013942,1545.5150657013942,1.0002035785317247,0.0016816108483137283
1545.5220103610081,1545.5220103610081,1.0000728466343891,0.0016832612924925193
1545.528955020529,1545.528955020529,0.9979397323025875,0.0016824444193121412
1545.53589968005,1545.53589968005,0.9996582496924147,0.0016815631587572925
1545.542844339478,1545.542844339478,0.9997531789110832,0.0016869776231092013
1545.549788998999,1545.549788998999,1.0018012792052777,0.0016825765263788531
1545.5567336583338,1545.5567336583338,0.9990144489244702,0.0016803626630879063
1545.5636783175753,1545.5636783175753,0.9963455536393229,0.0016846223302039907
1545.5706229769103,1545.5706229769103,1.0032953525438304,0.0016821028509302598
1545.5775676361513,1545.5775676361513,1.0009249377038594,0.0016825467544429444
1545.5845122954863,1545.5845122954863,0.9990539823623639,0.0016817480028008286
1545.5914569545414,1545.5914569545414,0.9999801762442576,0.0016816747378582148
1545.5984016136897,1545.5984016136897,0.9984995483031126,0.0016799081685094524
1545.6053462727455,1545.6053462727455,1.0009466818306947,0.0016820337399879298
1545.6122909318008,1545.6122909318008,1.0004657600661644,0.0016802424979744722
1545.6192355907629,1545.6192355907629,0.998084961821108,0.001680801502703422
1545.626180249725,1545.626180249725,0.9999401243341117,0.001680224373586267
1545.6331249085943,1545.6331249085943,1.0000280656281997,0.0016827661956268503
1545.64006956737,1545.64006956737,0.9997810329781259,0.0016811268972563443
1545.6470142262392,1545.6470142262392,1.0026269995113215,0.0016830017665284073
1545.6539588849216,1545.6539588849216,0.9986893505712306,0.001681819943148662
1545.660903543605,1545.660903543605,0.9995666604676373,0.0016811745108861482
1545.6678482022876,1545.6678482022876,1.0006013257313089,0.0016823028723541567
1545.6747928608772,1545.6747928608772,1.0001145093620323,0.0016819511043271018
1545.6817375194667,1545.6817375194667,1.0022796385141182,0.0016830750506293362
1545.6886821779633,1545.6886821779633,0.9974251148845786,0.0016814657486511238
1545.6956268362735,1545.6956268362735,1.0000574541737652,0.0016813355227338657
1545.7025714948634,1545.7025714948634,0.999129898356124,0.001680154554289989
1545.70951615308,1545.70951615308,1.000691945955309,0.0016845023501242378
1545.716460811577,1545.716460811577,1.0014165125004584,0.0016816510730835945
1545.7234054697008,1545.7234054697008,0.9983612801496845,0.0016811170762542477
1545.7303501278245,1545.7303501278245,0.9997088150267697,0.0016808115770527497
1545.737294785949,1545.737294785949,1.0003228933456387,0.0016826071793266696
1545.7442394440732,1545.7442394440732,0.9995838501466313,0.0016802809560098855
1545.751184102197,1545.751184102197,1.0005766468770692,0.0016817776783505326
1545.758128760321,1545.758128760321,0.9987938762109614,0.0016785452435394668
1545.7650734183512,1545.7650734183512,1.0007610551845993,0.001681045905789896
1545.7720180761032,1545.7720180761032,1.0017817725227012,0.0016799993275230587
1545.778962734134,1545.778962734134,0.9993670575212625,0.0016813181764336678
1545.785907391885,1545.785907391885,1.0002050245807446,0.0016808483403938164
1545.792852049637,1545.792852049637,1.0007455431088392,0.0016824591916104737
1545.7997967073884,1545.7997967073884,0.9981728752102118,0.0016814200391383149
1545.8067413650467,1545.8067413650467,1.000105557600832,0.0016819053713326032
1545.8136860227048,1545.8136860227048,0.9979344991490235,0.0016814072338077943
1545.8206306802701,1545.8206306802701,1.0020156646892127,0.0016816129329286621
1545.827575337742,1545.827575337742,0.999819153843869,0.0016806025273547215
1545.8345199953076,1545.8345199953076,1.0012492512614481,0.0016843491741113687
1545.8414646526865,1545.8414646526865,0.9991931957626186,0.0016823506610902726
1545.8484093100656,1545.8484093100656,0.9999730552210732,0.0016811505666393125
1545.8553539673512,1545.8553539673512,1.0007878075364656,0.0016823304882431548
1545.8622986246369,1545.8622986246369,0.9997064884059805,0.0016821388257102197
1545.8692432818298,1545.8692432818298,1.000125425977015,0.0016819048970490003
1545.8761879390222,1545.8761879390222,0.9982758447237373,0.0016822601322331685
1545.8831325962149,1545.8831325962149,1.0000576039591342,0.0016829073933233238
1545.8900772531283,1545.8900772531283,1.0052131296912612,0.0016853243333572279
1545.8970219102277,1545.8970219102277,0.9978844541319285,0.0016825394596437508
1545.9039665672342,1545.9039665672342,1.0010129498529723,0.0016815334390221995
1545.9109112240544,1545.9109112240544,0.9992395753792813,0.0016824743461477574
1545.9178558809672,1545.9178558809672,0.9992147571070319,0.0016849686638818508
1545.9248005377879,1545.9248005377879,0.9986562238221935,0.0016824214273694397
1545.9317451945144,1545.9317451945144,1.002191881315737,0.0016824774989091188
1545.9386898512416,1545.9386898512416,1.0005772475693102,0.001682040500501991
1545.9456345078754,1545.9456345078754,0.9996261077356795,0.0016831145268330465
1545.9525791645096,1545.9525791645096,0.9995389042586128,0.0016832720676740846
1545.9595238210502,1545.9595238210502,1.0012360378312495,0.0016833641565722813
1545.9664684774978,1545.9664684774978,0.9999643810737237,0.0016843810062013107
1545.9734131339453,1545.9734131339453,0.9990119514655579,0.0016812420607252067
1545.9803577902999,1545.9803577902999,0.9998307449166658,0.001680429850621993
1545.9873024466542,1545.9873024466542,0.9976466576542201,0.0016826543268005745
1545.9942471029158,1545.9942471029158,1.0017507644868775,0.0016801686716090645
1546.001191759177,1546.001191759177,0.9998357812780749,0.0016832242012505085
1546.0081364153452,1546.0081364153452,1.0004465775437859,0.0016824655903283701
1546.0150810714204,1546.0150810714204,1.0016013609367245,0.0016824136457598826
1546.0220257275885,1546.0220257275885,1.0001438505763036,0.0016803167062203403
1546.0289703834771,1546.0289703834771,1.0011959303677778,0.0016820959035458323
1546.0359150396457,1546.0359150396457,0.9991223856265687,0.001682310305396081
1546.0428596954412,1546.0428596954412,0.9992569464739243,0.0016803745591828002
1546.0498043512366,1546.0498043512366,0.9996218790868244,0.0016810792106147412
1546.0567490070325,1546.0567490070325,0.9996199843845464,0.0016828018305108353
1546.0636936628282,1546.0636936628282,0.997905481840976,0.0016841238690807954
1546.0706383186239,1546.0706383186239,0.9998646194020834,0.0016810450915543148
1546.0775829741401,1546.0775829741401,1.0008255587503208,0.0016808643093471226
1546.0845276297493,1546.0845276297493,0.9997920119727348,0.001683116600880519
1546.091472285266,1546.091472285266,1.0023253429720904,0.0016813031371220681
1546.098416940782,1546.098416940782,0.9999378740193953,0.0016791675269651092
1546.105361596205,1546.105361596205,1.0008889411450272,0.0016799447482108714
