time,time,flux,flux_err
1325.3001408016617,1325.3001408016617,1.000073456244525,0.00021169238432995323
1325.3084740936438,1325.3084740936438,1.0002339217872078,0.00021175665164208254
1325.3168073858499,1325.3168073858499,1.00121108699619,0.00021186594183950614
1325.3244462372288,1325.3244462372288,1.001636358544442,0.0001934757218385957
1325.3313906477117,1325.3313906477117,0.9991908643873563,0.000193288722469007
1325.338335058358,1325.338335058358,0.9964334055760105,0.00019308493414366926
1325.3452794691325,1325.3452794691325,0.9969459790825693,0.00019317073476083003
1325.3522238800463,1325.3522238800463,0.998037302539568,0.00019330775013998088
1325.3591682911112,1325.3591682911112,1.0016181854275168,0.00019369527854772245
1325.3661127023163,1325.3661127023163,1.0040797658859801,0.000193946646076265
1325.3730571136723,1325.3730571136723,1.0031311262898053,0.00019391218755649998
1325.380001525145,1325.380001525145,0.9998030738719252,0.0001936742471501578
1325.3869459367575,1325.3869459367575,0.9978288753974545,0.00019353397251128954
1325.393890348521,1325.393890348521,0.9987787374598611,0.00019362880662780643
1325.4008347604126,1325.4008347604126,0.9999951138542787,0.0001937231928851167
1325.4077791724326,1325.4077791724326,0.9994404199864009,0.00019368122908965644
1325.4147235846035,1325.4147235846035,0.9996802189131957,0.00019373639409889657
1325.4216679968795,1325.4216679968795,0.9994299386180978,0.00019378000966154455
1325.4286124092948,1325.4286124092948,0.9986200627840853,0.0001938121600382117
1325.4355568218502,1325.4355568218502,1.0005471908036268,0.00019403944829333728
1325.442501234522,1325.442501234522,1.0024007043151322,0.00019423749970561686
1325.4494456473217,1325.4494456473217,1.002637819222954,0.00019428705078191076
1325.4563900602498,1325.4563900602498,1.0026777466346537,0.00019431614643205505
1325.463334473317,1325.463334473317,0.9999199336597085,0.0001940787472496384
1325.4702788864777,1325.4702788864777,0.9974761449725194,0.0001938773693941524
1325.477223299778,1325.477223299778,0.9953132892570654,0.00019370542057280623
1325.4841677132063,1325.4841677132063,0.9960965498441355,0.00019381634474782312
1325.4911121267396,1325.4911121267396,0.9992873456089901,0.00019415485269656428
1325.498056540401,1325.498056540401,1.0008231365542288,0.0001943300860612364
1325.505000954167,1325.505000954167,1.0038278012828272,0.00019465587644414408
1325.5119453680848,1325.5119453680848,1.0041965721987534,0.000194719041029213
1325.518889782083,1325.518889782083,1.0025520265789545,0.00019462345434421172
1325.5258341961985,1325.5258341961985,0.9995516837080443,0.0001943843223791776
1325.532778610453,1325.532778610453,0.9978434578043484,0.0001942821138351589
1325.5397230247895,1325.5397230247895,0.9984667718108111,0.0001944036577304483
1325.5466674392544,1325.5466674392544,0.9980739069090061,0.0001944437812342689
1325.5536118538234,1325.5536118538234,1.00093634021492,0.00019477576198023328
1325.5605562685093,1325.5605562685093,1.0018442691451197,0.00019492254082765533
1325.5675006832996,1325.5675006832996,0.9992367586688381,0.0001947505244876791
1325.574445098195,1325.574445098195,0.9980218211138594,0.00019468600071311545
1325.5813895131953,1325.5813895131953,0.9983749645341176,0.00019474952030469714
1325.5883339282877,1325.5883339282877,0.9994227811977503,0.00019487368957038382
1325.595278343521,1325.595278343521,1.0012614899796917,0.00019503708664567301
1325.602222758835,1325.602222758835,1.0025921326702718,0.0001951470880229415
1325.609167174266,1325.609167174266,1.0016154257519922,0.00019507441984580978
1325.616111589767,1325.616111589767,1.001486305889325,0.0001950700661828622
1325.6230560053953,1325.6230560053953,0.9988839734753547,0.00019483987362301777
1325.630000421117,1325.630000421117,0.9976589288514649,0.00019469784230878158
1325.6369448369203,1325.6369448369203,0.9975955500049682,0.00019465855950609324
1325.643889252828,1325.643889252828,0.9983216869883653,0.00019469732365776793
1325.6508336688412,1325.6508336688412,1.0010068728171304,0.00019491632404707853
1325.6577780849354,1325.6577780849354,1.0018796750889585,0.00019499954637906564
1325.6647225011345,1325.6647225011345,1.0011395158631267,0.00019496394687124578
1325.6716669174382,1325.6716669174382,0.9994771670161171,0.00019485301491160246
1325.6786113338005,1325.6786113338005,1.0002539845527054,0.0001949374725879357
1325.6855557502674,1325.6855557502674,1.0020635613805084,0.00019513501908888773
1325.6925001668508,1325.6925001668508,1.0013562117112458,0.00019507932195263046
1325.6994445834805,1325.6994445834805,1.0019743098191234,0.00019514046189276623
1325.7063890002269,1325.7063890002269,0.9992197117105212,0.00019492527951089046
1325.7133334170544,1325.7133334170544,0.9965790786477182,0.00019472919909458455
1325.7202778339754,1325.7202778339754,0.9947779655326492,0.00019459580929354284
1325.7272222509778,1325.7272222509778,0.9976794655305522,0.00019490254217719965
1325.7341666680497,1325.7341666680497,1.000717894728794,0.00019521025647652152
1325.7411110852038,1325.7411110852038,1.0028132170615334,0.00019541807611923593
1325.7480555024617,1325.7480555024617,1.0043800993369871,0.00019559539795226347
1325.754999919802,1325.754999919802,1.0027140192379846,0.00019545924897496216
1325.7619443372237,1325.7619443372237,1.0001440635463927,0.0001952632632155601
1325.7688887547033,1325.7688887547033,0.998517046935042,0.00019512569139313213
1325.7758331722757,1325.7758331722757,0.9986453181534392,0.0001951446995378181
1325.7827775899186,1325.7827775899186,0.9983536692196238,0.0001951247710430639
1325.7897220076661,1325.7897220076661,0.9977902460565178,0.00019510552051111405
1325.79666642546,1325.79666642546,1.0008411181906058,0.00019543233823738205
1325.8036108433355,1325.8036108433355,1.0009776567414526,0.00019545605111033693
1325.8105552612926,1325.8105552612926,1.0000030411554726,0.00019539917286246056
1325.817499679331,1325.817499679331,0.9990112152221575,0.00019528452895372554
1325.8244440974277,1325.8244440974277,0.9985073086852629,0.00019524859334448246
1325.8313885156172,1325.8313885156172,1.001514825628956,0.00019552061087869726
1325.8383329338535,1325.8383329338535,1.0032001283129692,0.0001956749760081478
1325.8452773521599,1325.8452773521599,1.001856261032967,0.00019556052804630344
1325.8522217705588,1325.8522217705588,1.0001552769737494,0.00019540111248597092
1325.8591661890287,1325.8591661890287,0.9991024054298452,0.00019527328622591803
1325.866110607544,1325.866110607544,0.9982736560757701,0.00019515810939066581
1325.8730550261532,1325.8730550261532,0.9975166458214858,0.00019503384957778397
1325.8799994448086,1325.8799994448086,0.9979341115722598,0.00019503239973879628
1325.8869438635454,1325.8869438635454,0.9987975118180987,0.0001950774969896724
1325.8938882823406,1325.8938882823406,1.0008871807477666,0.0001952746974357776
1325.900832701194,1325.900832701194,1.0022203543076909,0.00019540027798378153
1325.9077771201287,1325.9077771201287,1.0020464632979766,0.00019539754141947784
1325.9147215391217,1325.9147215391217,1.002881002437646,0.0001954519023491235
1325.9216659581612,1325.9216659581612,1.001774822518419,0.00019533108230653608
1325.9286103772945,1325.9286103772945,0.9995951682328099,0.00019511624658066765
1325.93555479645,1325.93555479645,0.9981487348495607,0.00019495318269424812
1325.9424992156996,1325.9424992156996,0.9972319353422898,0.00019483947270173768
1325.9494436349953,1325.9494436349953,0.9966796293379758,0.0001948002418588573
1325.9563880543492,1325.9563880543492,0.9992554371655104,0.00019508383722191116
1325.9641658041153,1325.9641658041153,0.9995888326116449,0.00019514231690287396
1325.9716657771467,1325.9716657771467,1.0007584402368912,0.0001952743374569824
1325.9786101966988,1325.9786101966988,1.0030265056191359,0.00019547478470309287
1325.985554616297,1325.985554616297,1.002776292610902,0.00019544614935206617
1325.9924990359536,1325.9924990359536,1.0029937766727257,0.0001954353374667847
1325.9994434556684,1325.9994434556684,0.9999646366557892,0.00019518104494416886
1326.0063878754297,1326.0063878754297,0.9975006502104588,0.0001949868607926008
1326.013332295273,1326.013332295273,0.9955519750179713,0.00019482946395146222
1326.020276715139,1326.020276715139,0.9976743611457237,0.00019505350724680553
1326.0272211350753,1326.0272211350753,1.0020437581070225,0.0001954796384527285
1326.034165555046,1326.034165555046,1.001951576771621,0.00019548409621616508
1326.0411099750863,1326.0411099750863,1.0005131538323593,0.00019533892926261605
1326.0480543951858,1326.0480543951858,0.99858686373209,0.0001951797641011723
1326.054998815308,1326.054998815308,0.999238140050031,0.00019527391467595172
1326.0619432354883,1326.0619432354883,1.000948576980143,0.0001954463983879091
1326.0688876557274,1326.0688876557274,1.0018101293174684,0.00019553000729404224
1326.075832076012,1326.075832076012,1.0014932948836988,0.00019547650114353955
1326.0827764963328,1326.0827764963328,1.0013642350813332,0.00019547618816201807
1326.089720916711,1326.089720916711,1.0003656365676774,0.00019541504924262717
1326.0966653371595,1326.0966653371595,0.9983050265128979,0.00019523881491997604
1326.1036097576311,1326.1036097576311,0.9966527903247654,0.00019506718118263258
1326.1105541781606,1326.1105541781606,0.9953694215205587,0.00019493126772008774
1326.1174985987136,1326.1174985987136,0.9994203802526332,0.00019526148094765403
1326.1244430193362,1326.1244430193362,1.003015640271543,0.00019555266937253983
1326.131387439983,1326.131387439983,1.0025750544940013,0.00019550091691986684
1326.138331860687,1326.138331860687,1.0017777912669301,0.00019541821417636565
1326.1452762814383,1326.1452762814383,0.9994219447544358,0.00019521011464735465
1326.152220702224,1326.152220702224,0.9999859240577897,0.00019525695375337195
1326.159165123056,1326.159165123056,1.0006029651465544,0.00019529531055505555
1326.1661095439354,1326.1661095439354,1.0011562543556276,0.0001953099096614162
1326.1730539648374,1326.1730539648374,1.0008659034784029,0.00019523471748017374
1326.1799983857982,1326.1799983857982,0.9988248484311567,0.00019505736300166925
1326.1869428068053,1326.1869428068053,0.9984407549715362,0.00019505796838035556
1326.1938872278351,1326.1938872278351,0.9964016041453834,0.00019489290024635723
1326.2008316489125,1326.2008316489125,0.9971559249130774,0.00019499067257553701
1326.207776070024,1326.207776070024,1.0007841042716517,0.00019534094005917873
1326.2147204911946,1326.2147204911946,1.0042205327936022,0.0001956765491217215
1326.2216649123877,1326.2216649123877,1.0049250343045357,0.00019573000185522403
1326.2286093335924,1326.2286093335924,1.0020768136604148,0.0001954749797599594
1326.2355537548788,1326.2355537548788,0.9985059382585806,0.00019515330266996423
1326.2424981761883,1326.2424981761883,0.9977662445374909,0.00019509288307963614
1326.2494425975333,1326.2494425975333,0.9962903306806924,0.00019492935486809204
1326.2563870189242,1326.2563870189242,0.9970840803654417,0.0001950037436856035
1326.2633314403276,1326.2633314403276,0.9999661528594157,0.0001952681435645422
1326.2702758617768,1326.2702758617768,1.001755595530686,0.00019541588542957262
1326.277220283261,1326.277220283261,1.0032812823466357,0.00019557774453655722
1326.2841647047921,1326.2841647047921,1.00098278419525,0.00019536521904037852
1326.2911091263463,1326.2911091263463,0.9988024637273687,0.00019515600829488885
1326.2980535479237,1326.2980535479237,0.9982681294076702,0.00019510362838495572
1326.3049979695477,1326.3049979695477,0.9998410109125648,0.00019522426021053408
1326.3119423911953,1326.3119423911953,1.0016790513375704,0.0001953919755708021
1326.3188868128775,1326.3188868128775,1.0021738707835817,0.00019545175234072623
1326.3258312345943,1326.3258312345943,1.0007223277530197,0.00019534403107930235
1326.332775656347,1326.332775656347,0.9990916789165674,0.0001952135639792657
1326.3397200781221,1326.3397200781221,0.9973310231782488,0.00019508538933142905
1326.3472200537035,1326.3472200537035,0.9977471099391515,0.00019514184532694225
1326.356386690539,1326.356386690539,0.9990255998845399,0.0001952430938735712
1326.3633311124074,1326.3633311124074,1.001072463650188,0.00019543849890081493
1326.3702755343227,1326.3702755343227,1.001992675396736,0.00019553273349850637
1326.3772199562611,1326.3772199562611,1.0015356803211546,0.00019552667025525238
1326.3841643782225,1326.3841643782225,1.0016229203216405,0.0001955706556053238
1326.391108800231,1326.391108800231,0.999379897040464,0.00019538070326164113
1326.3980532222624,1326.3980532222624,0.9985446664064244,0.00019529956037275716
1326.404997644317,1326.404997644317,0.9994870520049364,0.00019534856711146865
1326.4119420664072,1326.4119420664072,1.0002633025161536,0.000195398056466258
1326.4188864884968,1326.4188864884968,1.0001854695056793,0.00019538429471300487
1326.425830910633,1326.425830910633,0.9988621636268847,0.00019528495144479062
1326.4327753328157,1326.4327753328157,0.9978633401777568,0.00019523597898988486
1326.4397197549984,1326.4397197549984,0.9986480256364467,0.00019533125268808072
1326.4466641772165,1326.4466641772165,1.0012916449827227,0.00019557610539747426
1326.4536085994457,1326.4536085994457,1.002928515888351,0.00019570696656023417
1326.4605530217218,1326.4605530217218,1.003300201894875,0.00019573785340701902
1326.4674974440095,1326.4674974440095,1.002702402842307,0.00019568885802068381
1326.4744418663201,1326.4744418663201,0.9987777535775603,0.00019535609392168753
1326.4813862886663,1326.4813862886663,0.9956291252325377,0.0001951031194902721
1326.4883307110235,1326.4883307110235,0.9954310714135051,0.00019508132080842293
1326.4952751334044,1326.4952751334044,0.9993493666502975,0.0001954303064551691
1326.502219555808,1326.502219555808,1.0025522616919236,0.00019573397956654904
1326.5091639782358,1326.5091639782358,1.002941810806537,0.00019578449648186363
1326.516108400698,1326.516108400698,1.000775576067916,0.00019559978102536707
1326.5230528231718,1326.5230528231718,0.9993234503444608,0.00019549203052224534
1326.5299972456692,1326.5299972456692,0.9987343270548606,0.00019542846750205545
1326.536941668201,1326.536941668201,0.9992030646682236,0.0001954692958434887
1326.5438860907334,1326.5438860907334,1.0008910823151569,0.00019559716662814636
1326.5508305133121,1326.5508305133121,1.0002919906846064,0.00019556575768666122
1326.5577749358788,1326.5577749358788,1.00055707567433,0.00019562464164814476
1326.564719358481,1326.564719358481,1.0011187133352777,0.00019569636742867774
1326.571663781106,1326.571663781106,0.9996684659641334,0.00019558590608261976
1326.578608203743,1326.578608203743,0.9988873570724419,0.00019550926144101666
1326.585552626403,1326.585552626403,0.9989243515912207,0.00019550161493466048
1326.59249704911,1326.59249704911,0.9993070144583086,0.0001955568502031428
1326.5994414717698,1326.5994414717698,0.9999306670208613,0.0001956185356805828
1326.6063858945,1326.6063858945,1.0014551022074725,0.00019577982602703332
1326.613330317265,1326.613330317265,1.001120944918711,0.00019577033870699645
1326.6202747400064,1326.6202747400064,0.9995514204693773,0.0001956648925711399
1326.6272191627834,1326.6272191627834,0.9990564400513599,0.0001956355136461291
1326.634163585571,1326.634163585571,1.0008320342487655,0.0001957965114495449
1326.6411080083947,1326.6411080083947,1.0006891587488087,0.00019578582293143377
1326.6480524312176,1326.6480524312176,1.0002386071882192,0.00019570157592967846
1326.6549968540523,1326.6549968540523,0.9999052128154654,0.00019566477458990666
1326.661941276922,1326.661941276922,0.9990958845305089,0.00019556305540816438
1326.6688856997916,1326.6688856997916,0.9987399263050667,0.00019554209354714675
1326.6758301226848,1326.6758301226848,0.9981172361446173,0.00019546543892975276
1326.6827745455896,1326.6827745455896,0.9988190545410458,0.00019551455181368945
1326.6908300761988,1326.6908300761988,1.0020128045576826,0.00019575425136817765
1326.6980522760587,1326.6980522760587,1.00331421512369,0.00019585364321335932
1326.7049966990098,1326.7049966990098,1.0023922751599446,0.00019572848845833554
1326.7124966758254,1326.7124966758254,0.999476545042534,0.00019542472639012113
1326.7202744295726,1326.7202744295726,0.997106026956262,0.00019520943101340428
1326.727218852582,1326.727218852582,0.9983334754859394,0.0001953018531999985
1326.734163275591,1326.734163275591,1.000204364768138,0.00019545296071352383
1326.7411076986473,1326.7411076986473,0.999878800465385,0.00019537941185043665
1326.7480521216798,1326.7480521216798,1.0005664789898006,0.0001954121668489151
1326.7549965447474,1326.7549965447474,1.0012967256803966,0.0001954863567031193
1326.7619409678268,1326.7619409678268,1.0001670907029598,0.00019537376154821437
1326.7688853909058,1326.7688853909058,0.9981412639563711,0.00019521053785787518
1326.77582981402,1326.77582981402,0.9985004513525311,0.0001952081565365096
1326.7827742371228,1326.7827742371228,1.000735120649163,0.00019541678171170179
1326.78971866026,1326.78971866026,1.0020315169819545,0.00019554380365636347
1326.796663083386,1326.796663083386,1.003226483186713,0.00019568989612298954
1326.803607506547,1326.803607506547,1.0012463284348008,0.00019554581935391958
1326.810551929696,1326.810551929696,0.9986323856505906,0.00019531218832073417
1326.8174963528795,1326.8174963528795,0.9966784027637392,0.00019514612150587485
1326.8244407760753,1326.8244407760753,0.9977227441539332,0.00019523623146193626
1326.8313851992593,1326.8313851992593,0.9993674480491912,0.00019538236040175656
1326.838329622467,1326.838329622467,1.0009240808403383,0.0001955184808724782
1326.8452740456855,1326.8452740456855,1.0008537152499168,0.00019551320386253706
1326.8522184689161,1326.8522184689161,1.0005803863013878,0.00019552221721322663
1326.8591628921583,1326.8591628921583,1.0000502977138213,0.00019549948440978365
1326.8661073154128,1326.8661073154128,1.0011064414972337,0.00019556004274828175
1326.8730517386782,1326.8730517386782,1.001632049578149,0.0001955540807306708
1326.8799961619318,1326.8799961619318,1.0002607088641695,0.0001953761683551322
1326.8869405852324,1326.8869405852324,0.9992958408766877,0.00019524137067439572
1326.8938850085324,1326.8938850085324,0.9995222154043979,0.000195236629823597
1326.9008294318332,1326.9008294318332,0.9981941486861758,0.00019507629061193263
1326.9077738551337,1326.9077738551337,0.9973456442908575,0.00019496865724012068
1326.914718278434,1326.914718278434,0.9976402296893994,0.00019496403013760863
1326.9216627017577,1326.9216627017577,1.0020991703704651,0.00019536950148542538
1326.928607125093,1326.928607125093,1.003541490707007,0.00019546873602585357
1326.9355515484403,1326.9355515484403,1.0026788173619028,0.00019535770955103347
1326.942495971787,1326.942495971787,1.000872245735372,0.00019516344481001146
1326.9494403951458,1326.9494403951458,0.9996486267097733,0.00019501626259202674
1326.956384818516,1326.956384818516,0.999037793609024,0.00019496255273078128
1326.9633292418982,1326.9633292418982,0.9979099096559001,0.00019483117974519726
1326.9702736652685,1326.9702736652685,0.9977144477250913,0.00019482286494466107
1326.9772180886616,1326.9772180886616,1.0000478791980343,0.00019501469613786383
1326.9841625120557,1326.9841625120557,1.0021302325999881,0.00019518034319750485
1326.9911069354607,1326.9911069354607,1.0003550930643992,0.00019499862495977433
1326.998051358878,1326.998051358878,0.9985540799727083,0.0001947858389111876
1327.0049957822944,1327.0049957822944,0.9988058999856968,0.00019481883918735356
1327.0119402057112,1327.0119402057112,1.00012904716252,0.0001949354747559423
1327.0188846291512,1327.0188846291512,1.000303643865756,0.00019494809668064284
1327.0258290525915,1327.0258290525915,1.000992065695506,0.00019501103958469076
1327.0327734760435,1327.0327734760435,1.0031734122860865,0.00019518081390787603
1327.039717899483,1327.039717899483,1.0021904705526425,0.00019508130778009744
1327.0466623229354,1327.0466623229354,1.0006557608770212,0.00019495544667991118
1327.053606746387,1327.053606746387,0.9965815160092237,0.00019457460577244163
1327.0613845006699,1327.0613845006699,0.994145914864113,0.00019431534999099097
