time,time,flux,flux_err
1325.299588194238,1325.299588194238,1.000203780709956,0.0003418588462908805
1325.3079214366223,1325.3079214366223,1.00000353880712,0.00034186820944635533
1325.316254679284,1325.316254679284,1.0002423518770616,0.0003419217842962557
1325.323893485284,1325.323893485284,0.9995177854020296,0.0003121050651660137
1325.3308378545676,1325.3308378545676,0.9997556942639136,0.00031219205761305504
1325.337782224038,1325.337782224038,1.0001072753127749,0.0003123340704102783
1325.3447265936943,1325.3447265936943,0.9993774576555443,0.00031226554016339887
1325.3516709635137,1325.3516709635137,0.999656101219618,0.0003124113807225069
1325.3586153335248,1325.3586153335248,1.0006378816675998,0.00031262540608377996
1325.365559703711,1325.365559703711,1.0001585568301679,0.00031267353890466993
1325.3725040740653,1325.3725040740653,1.0002962564803384,0.00031278411752503363
1325.3794484445948,1325.3794484445948,1.0002113890304867,0.0003128693796765515
1325.3863928153046,1325.3863928153046,0.9999225313896851,0.00031295408096331293
1325.3933371861715,1325.3933371861715,0.9998925221051378,0.00031309831035212165
1325.400281557213,1325.400281557213,0.9994946965031085,0.000313154714166006
1325.4072259284294,1325.4072259284294,1.0005696070183019,0.0003133778020529941
1325.4141702998083,1325.4141702998083,0.9998171615443219,0.0003133821052559827
1325.4211146713565,1325.4211146713565,0.9999554106107116,0.0003135296298590798
1325.4280590430558,1325.4280590430558,1.0000298476589757,0.0003136407873747489
1325.4350034149297,1325.4350034149297,0.9998875833628855,0.0003137569502294907
1325.441947786955,1325.441947786955,0.9997517300789651,0.0003138101307098241
1325.4488921591492,1325.4488921591492,1.0000892426891055,0.0003139379612200082
1325.4558365314947,1325.4558365314947,0.9999171411068899,0.0003140289154207454
1325.4627809039912,1325.4627809039912,0.999876342782354,0.0003140995168517198
1325.4697252766512,1325.4697252766512,1.0000041900538206,0.00031421251798092407
1325.476669649462,1325.476669649462,1.0002959111962524,0.0003143451663050132
1325.4836140224302,1325.4836140224302,1.000296131355666,0.0003144335977115553
1325.4905583955442,1325.4905583955442,0.9994803925678261,0.00031446386915558975
1325.4975027688154,1325.4975027688154,1.0003007948627956,0.00031466197657369343
1325.5044471422318,1325.5044471422318,0.99977996455917,0.00031475174497728705
1325.5113915157824,1325.5113915157824,1.0000969426312005,0.00031489002322104874
1325.5183358894894,1325.5183358894894,1.000338542903719,0.0003150622386983065
1325.5252802633427,1325.5252802633427,1.0001442308733224,0.00031517390712583525
1325.5322246373294,1325.5322246373294,0.9999595615020732,0.0003152310575702419
1325.5391690114734,1325.5391690114734,1.0000297670548837,0.00031542956547213867
1325.5461133857457,1325.5461133857457,0.9995760495804753,0.00031544737358666513
1325.5530577601514,1325.5530577601514,1.0002527651029907,0.0003156654388593659
1325.5600021347032,1325.5600021347032,0.9995303433445354,0.0003157072467546625
1325.5669465093943,1325.5669465093943,0.9999072752359632,0.000315885398942162
1325.5738908842136,1325.5738908842136,1.0001525398803728,0.00031600846877190617
1325.580835259167,1325.580835259167,1.0001074769982812,0.00031612742634233245
1325.5877796342593,1325.5877796342593,1.0002567567589558,0.0003162086110164505
1325.5947240094745,1325.5947240094745,0.9999630858187857,0.00031626054570611263
1325.6016683848234,1325.6016683848234,0.999903074192839,0.000316312295422113
1325.6086127603007,1325.6086127603007,0.9997996750630209,0.000316368917567889
1325.6155571359059,1325.6155571359059,0.9998918874304842,0.0003164380022808953
1325.622501511633,1325.622501511633,1.0002303785881987,0.0003165377736759248
1325.629445887494,1325.629445887494,0.9998347150703394,0.0003164996795884147
1325.636390263466,1325.636390263466,1.000472871607731,0.0003166154314096298
1325.6433346395713,1325.6433346395713,1.0000756906341848,0.0003166187216080091
1325.6502790157879,1325.6502790157879,1.0004298606309394,0.0003166816291185218
1325.657223392138,1325.657223392138,0.9995218819601522,0.00031661139472077533
1325.6641677685986,1325.6641677685986,0.999394510273244,0.00031660709152035374
1325.6711121451756,1325.6711121451756,1.000345601368426,0.0003167889484940112
1325.678056521875,1325.678056521875,0.9995640151240304,0.000316694284774045
1325.6850008986735,1325.6850008986735,1.00006279236854,0.0003167900413776239
1325.6919452756058,1325.6919452756058,1.0006799357159386,0.0003169203669209261
1325.6988896526427,1325.6988896526427,0.9998234948910838,0.00031686237420740053
1325.7058340297847,1325.7058340297847,0.999639737137237,0.0003168854415926105
1325.7127784070483,1325.7127784070483,1.000377836505875,0.0003170260293292001
1325.7197227844172,1325.7197227844172,1.0000709410540702,0.0003170947939634914
1325.7266671618906,1325.7266671618906,0.9999632378292693,0.00031712266004523443
1325.7336115394805,1325.7336115394805,0.9997280162866475,0.0003171849120239133
1325.7405559171698,1325.7405559171698,1.0001384992383475,0.0003173186204179553
1325.747500294963,1325.747500294963,0.9999837480464873,0.0003173812930702752
1325.7544446728616,1325.7544446728616,0.9999074768966196,0.00031746871717167654
1325.761389050865,1325.761389050865,0.999473864076234,0.00031752918080451984
1325.768333428973,1325.768333428973,1.0002888628656685,0.00031770391859915054
1325.7752778071797,1325.7752778071797,1.0006090102749399,0.00031785204296070377
1325.7822221854917,1325.7822221854917,0.9997985075105277,0.00031786556806627704
1325.7891665638908,1325.7891665638908,0.9999856998665864,0.00031793519752108476
1325.7961109423886,1325.7961109423886,1.0000541311343063,0.00031803768818915396
1325.8030553209971,1325.8030553209971,0.9996054090419509,0.0003180522700376207
1325.8099996996875,1325.8099996996875,0.9997657412372153,0.00031815104140268176
1325.816944078482,1325.816944078482,1.0000198960020892,0.000318239364560609
1325.8238884573643,1325.8238884573643,1.0005056348423464,0.00031833990046304506
1325.8308328363453,1325.8308328363453,1.0002406654012717,0.00031837784734021666
1325.8377772154138,1325.8377772154138,0.999943972432695,0.00031838840056810805
1325.8447215945812,1325.8447215945812,1.0004719622510323,0.0003184942932865934
1325.8516659738295,1325.8516659738295,0.9998368928908248,0.00031842668364480544
1325.8586103531782,1325.8586103531782,0.9997457448919465,0.0003183933936534768
1325.8655547325955,1325.8655547325955,0.9993380051639574,0.0003183506168809284
1325.8724991121182,1325.8724991121182,0.99970949899465,0.00031831405424223336
1325.8794434917277,1325.8794434917277,1.0001192629063929,0.00031828566654673303
1325.8863878714133,1325.8863878714133,0.9998232805569927,0.00031822901049667987
1325.8933322511916,1325.8933322511916,1.0004310543904908,0.0003182514270365405
1325.9002766310462,1325.9002766310462,1.0004389514603311,0.00031816426206236303
1325.9072210109875,1325.9072210109875,0.9999083884109311,0.0003181001527831636
1325.9141653910046,1325.9141653910046,1.0005321907163733,0.00031812007387497
1325.9211097711145,1325.9211097711145,0.9999683551643441,0.00031806668853129555
1325.9280541513072,1325.9280541513072,0.9993373394636087,0.00031795999783658613
1325.9349985315685,1325.9349985315685,1.0000952167294757,0.00031803242334411946
1325.9419429119118,1325.9419429119118,1.0000983712262488,0.00031802023535910256
1325.9488872923364,1325.9488872923364,0.9998112919942127,0.00031800347602120067
1325.955831672831,1325.955831672831,1.0000956344354273,0.0003180404142044724
1325.9636093790928,1325.9636093790928,0.9998095386106822,0.000318015544054215
1325.9711093102087,1325.9711093102087,1.0002232318012472,0.00031802432513092606
1325.9780536909536,1325.9780536909536,0.9998596673043233,0.00031800636180025595
1325.9849980717681,1325.9849980717681,0.9998139796018061,0.0003180158793804658
1325.9919424526583,1325.9919424526583,0.9995995215115162,0.00031802047313981733
1325.9988868336186,1325.9988868336186,1.0001268761778408,0.0003180522881430283
1326.0058312146543,1326.0058312146543,0.9999173104035861,0.000318138823874827
1326.0127755957603,1326.0127755957603,1.0003792403254264,0.000318287825983922
1326.0197199769416,1326.0197199769416,1.0006296896486142,0.0003183523258963202
1326.0266643581874,1326.0266643581874,1.00013207261116,0.000318407569974473
1326.0336087394967,1326.0336087394967,1.000183093355692,0.0003184314990167786
1326.0405531208812,1326.0405531208812,0.9998957730891146,0.0003183805499166282
1326.0474975023308,1326.0474975023308,1.0000098701175029,0.0003184233838921974
1326.0544418838438,1326.0544418838438,0.9993161045774877,0.0003183337109612819
1326.0613862654325,1326.0613862654325,0.9995940171831321,0.00031841007078682056
1326.0683306470796,1326.0683306470796,0.9998182815532793,0.00031848922474303075
1326.0752750287902,1326.0752750287902,1.0001500694920487,0.0003185173084054595
1326.082219410566,1326.082219410566,1.000234366337675,0.0003185686341509172
1326.0891637924108,1326.0891637924108,1.0004544451018305,0.0003186447849277519
1326.096108174314,1326.096108174314,1.0001347236273284,0.00031859472853771286
1326.1030525562815,1326.1030525562815,0.9999574590647814,0.0003186100301297693
1326.1099969383063,1326.1099969383063,1.0002164651632868,0.00031862446172123236
1326.1169413203957,1326.1169413203957,1.0001097036114748,0.0003186303926501788
1326.123885702549,1326.123885702549,1.0000366755379981,0.00031862602819280125
1326.1308300847554,1326.1308300847554,0.9999690731423188,0.0003186721980692126
1326.1377744670249,1326.1377744670249,0.9995677953519453,0.00031862153922050803
1326.1447188493473,1326.1447188493473,0.9998155830061723,0.00031866659318322156
1326.151663231745,1326.151663231745,1.000090184770399,0.000318696291827822
1326.1586076141778,1326.1586076141778,1.000641787432274,0.0003187672836360095
1326.1655519966691,1326.1655519966691,0.9998852737451976,0.00031867876831807195
1326.1724963792237,1326.1724963792237,1.0003420430348569,0.0003187489531307681
1326.1794407618315,1326.1794407618315,0.999800674396881,0.00031864607871619395
1326.1863851444914,1326.1863851444914,0.9999860764751777,0.0003186718874764248
1326.1933295272206,1326.1933295272206,0.9995609741259044,0.00031861954915551476
1326.2002739099917,1326.2002739099917,1.0000037567306563,0.0003187030387381792
1326.2072182928257,1326.2072182928257,0.9995147855254469,0.00031862646094382447
1326.2141626756957,1326.2141626756957,1.0004389968327803,0.00031873086018071965
1326.2211070586231,1326.2211070586231,1.0000583825858267,0.00031867615444541777
1326.228051441603,1326.228051441603,1.0002529647626837,0.0003186908812557829
1326.234995824641,1326.234995824641,1.0004283184596052,0.00031875535337251104
1326.2419402077253,1326.2419402077253,0.9999110451132556,0.00031868976266094756
1326.248884590863,1326.248884590863,0.9995647656113281,0.0003185885305001003
1326.2558289740405,1326.2558289740405,0.9994748874427583,0.00031855858834855817
1326.2627733572772,1326.2627733572772,1.0003428617623542,0.00031867720837568174
1326.269717740554,1326.269717740554,1.0003927474355865,0.00031863373594695217
1326.276662123883,1326.276662123883,0.9997848799567339,0.00031857399805481235
1326.283606507259,1326.283606507259,0.9998905144893426,0.0003186054615548615
1326.290550890681,1326.290550890681,1.0002973406405822,0.00031863979667800184
1326.2974952741558,1326.2974952741558,0.9997717958357049,0.00031857169837081584
1326.3044396576656,1326.3044396576656,1.0004040044984845,0.00031858665961422017
1326.3113840412277,1326.3113840412277,0.9999130984528953,0.0003185562623522046
1326.3183284248364,1326.3183284248364,0.9994598741844989,0.00031851730342045064
1326.3252728084913,1326.3252728084913,0.9999729439196212,0.0003185892266748154
1326.332217192176,1326.332217192176,1.0002057547704455,0.0003186292769717165
1326.33916157593,1326.33916157593,1.0001149236819167,0.0003186551550035931
1326.3466615104167,1326.3466615104167,1.0001791453360007,0.0003187104767479002
1326.355828097083,1326.355828097083,1.0005338822602206,0.0003188515716929576
1326.3627724809594,1326.3627724809594,0.9997661682257662,0.00031876911695849345
1326.3697168648882,1326.3697168648882,0.9996304713405799,0.0003187407314225134
1326.376661248852,1326.376661248852,0.9996526079494688,0.00031879977736841826
1326.383605632862,1326.383605632862,0.9999429868783796,0.0003188704766283552
1326.3905500169133,1326.3905500169133,1.0000848347572253,0.0003189532030604565
1326.397494401005,1326.397494401005,1.0000626011636347,0.00031897790442736505
1326.4044387851259,1326.4044387851259,1.000210065044413,0.0003189899192203541
1326.4113831692994,1326.4113831692994,0.9997466817224762,0.00031901569497347945
1326.4183275535015,1326.4183275535015,1.0002248844447508,0.00031905935902897675
1326.4252719377505,1326.4252719377505,1.0000522607229276,0.0003190882846858924
1326.43221632204,1326.43221632204,1.0001231905917962,0.0003191202249475106
1326.4391607063585,1326.4391607063585,1.0002046006956908,0.0003191848375844617
1326.4461050907184,1326.4461050907184,0.999831483115811,0.0003191969812963415
1326.4530494751127,1326.4530494751127,0.9997093161157125,0.0003192048323499941
1326.459993859536,1326.459993859536,1.0001121992475879,0.0003193312531596233
1326.4669382440181,1326.4669382440181,1.0005192002852783,0.0003193794262260896
1326.4738826285113,1326.4738826285113,0.9995549599631856,0.00031928782256614787
1326.4808270130573,1326.4808270130573,0.9995174725715413,0.00031930873636531836
1326.4877713976261,1326.4877713976261,0.9999929007391299,0.0003193873722417825
1326.4947157822419,1326.4947157822419,0.999969911914435,0.00031936146015653326
1326.5016601668806,1326.5016601668806,0.999926867391336,0.00031939195671815905
1326.5086045515548,1326.5086045515548,1.0002174015362235,0.0003194487269030564
1326.5155489362749,1326.5155489362749,1.000114804439732,0.00031951073347962915
1326.5224933210127,1326.5224933210127,1.0002255444404502,0.0003195221369648655
1326.5294377057917,1326.5294377057917,0.9999990121249203,0.00031953515984189853
1326.536382090599,1326.536382090599,0.9998806700335588,0.00031955684723479347
1326.543326475436,1326.543326475436,1.000330999880606,0.00031966410580712824
1326.5502708603137,1326.5502708603137,1.0000284268395294,0.00031974033017224685
1326.5572152452144,1326.5572152452144,0.9999557535489151,0.00031976281597748926
1326.5641596301502,1326.5641596301502,0.9999948240021436,0.0003197555158525751
1326.5711040151207,1326.5711040151207,0.9997544925661435,0.00031975528427099527
1326.578048400109,1326.578048400109,0.9997891658759077,0.0003197703692327113
1326.5849927851377,1326.5849927851377,1.0001117909228199,0.00031982666182079467
1326.5919371702018,1326.5919371702018,0.9997995493626609,0.0003198270160465379
1326.5988815552887,1326.5988815552887,0.9998050869663757,0.0003198111659989792
1326.6058259404049,1326.6058259404049,0.9998463543195104,0.00031986009376185856
1326.6127703255447,1326.6127703255447,1.0005561642687677,0.0003199906128646219
1326.6197147107189,1326.6197147107189,1.0002034919786837,0.00031995100979050983
1326.6266590959226,1326.6266590959226,1.0000701333392894,0.00031990218213029907
1326.633603481149,1326.633603481149,0.9997705129686688,0.0003198861963363466
1326.6405478664053,1326.6405478664053,1.0001837736707941,0.000319937647751947
1326.6474922516902,1326.6474922516902,0.9995215945722921,0.0003198645329699292
1326.6544366369985,1326.6544366369985,0.9999616947652186,0.0003198413923491123
1326.6613810223419,1326.6613810223419,1.0002255708730208,0.0003198541419118873
1326.6683254077082,1326.6683254077082,0.9999419076185496,0.0003197969520594462
1326.675269793098,1326.675269793098,1.0002466463360293,0.00031980053938005773
1326.6822141785171,1326.6822141785171,1.0002531190127588,0.0003197374780461241
1326.6902696656277,1326.6902696656277,0.9998767930529603,0.00031965804486035405
1326.6974918265291,1326.6974918265291,1.00002979409067,0.00031961834769360896
1326.7044362120237,1326.7044362120237,0.9997007459400982,0.00031957813925367326
1326.7119361483908,1326.7119361483908,1.000161733393192,0.00031952395401017424
1326.719713860211,1326.719713860211,0.9997995104572691,0.0003194807396982713
1326.7266582457871,1326.7266582457871,1.00013796565783,0.0003194489998889951
1326.733602631392,1326.733602631392,0.9999104341550316,0.0003194137077885785
1326.740547017009,1326.740547017009,0.9998171036426925,0.00031938585090395314
1326.7474914026604,1326.7474914026604,1.0004374945601717,0.0003194094860865922
1326.7544357883355,1326.7544357883355,0.99933911325111,0.00031927362407289424
1326.7613801740222,1326.7613801740222,1.0002469768721438,0.0003193206274005688
1326.7683245597436,1326.7683245597436,1.0004108575274047,0.0003193081603231158
1326.7752689454942,1326.7752689454942,1.0000339395514897,0.0003192223705262677
1326.7822133312511,1326.7822133312511,0.9995608976868671,0.00031918820162232526
1326.7891577170249,1326.7891577170249,1.0002063047093912,0.00031924249290632195
1326.7961021028339,1326.7961021028339,0.9999104449223669,0.00031919601215372697
1326.8030464886604,1326.8030464886604,0.9996680071149268,0.00031922023596826093
1326.80999087451,1326.80999087451,1.0003701422768412,0.00031928085320296425
1326.8169352603766,1326.8169352603766,0.9999552200289002,0.00031921377865428704
1326.8238796462556,1326.8238796462556,1.0010913584626415,0.0003193396604308384
1326.830824032175,1326.830824032175,0.9999545118642846,0.0003192560742317918
1326.8377684181064,1326.8377684181064,0.9992735381331487,0.00031919414123285936
1326.8447128040548,1326.8447128040548,1.0000739269573875,0.0003192694746010874
1326.8516571900323,1326.8516571900323,1.0001517450815978,0.00031919624998869337
1326.8586015760159,1326.8586015760159,1.0004284469927902,0.000319231747643718
1326.8655459620231,1326.8655459620231,0.9998836704469685,0.0003190988131465399
1326.8724903480531,1326.8724903480531,0.999972754533672,0.0003190774359615832
1326.8794347341004,1326.8794347341004,0.9995087892736724,0.00031898299272204074
1326.8863791201657,1326.8863791201657,0.9996715723150876,0.0003189089679201297
1326.8933235062475,1326.8933235062475,1.0005514534088336,0.0003189204934372557
1326.900267892348,1326.900267892348,1.0003859893811726,0.00031878030833028384
1326.907212278471,1326.907212278471,0.9995151560949939,0.00031860017109730597
1326.9141566646117,1326.9141566646117,1.0001387758157079,0.00031856384009624876
1326.9211010507638,1326.9211010507638,0.9999094445145144,0.0003184643751170743
1326.9280454369396,1326.9280454369396,1.0002089892763644,0.0003183902053785813
1326.9349898231328,1326.9349898231328,1.0001684471145238,0.0003183553296944258
1326.9419342093372,1326.9419342093372,0.9999869210900183,0.0003181642205860849
1326.9488785955652,1326.9488785955652,0.999730138044068,0.00031805361669716865
1326.9558229818049,1326.9558229818049,0.9998289758341276,0.0003179925814087548
1326.9627673680566,1326.9627673680566,1.0004382468245132,0.00031797303102257257
1326.969711754337,1326.969711754337,0.999366831197906,0.00031777343519273497
1326.9766561406282,1326.9766561406282,0.9999734050794459,0.0003177816561286017
1326.9836005269324,1326.9836005269324,1.0004966378257372,0.0003177707103037206
1326.990544913259,1326.990544913259,1.0000218499104099,0.0003176493583920324
1326.9974892995983,1326.9974892995983,1.000052130029956,0.0003175940497475386
1327.0044336859423,1327.0044336859423,0.9998723227608904,0.0003176169826946087
1327.01137807231,1327.01137807231,0.999718133234461,0.0003175433122297867
1327.018322458689,1327.018322458689,1.0002161899480178,0.00031756921640864737
1327.0252668450917,1327.0252668450917,1.0002394096726073,0.0003175812227444784
1327.0322112315002,1327.0322112315002,1.000043470776855,0.00031756005646238846
1327.0391556179316,1327.0391556179316,1.0000363021880314,0.0003175545974964241
1327.0461000043697,1327.0461000043697,0.9999349171969115,0.00031754461137171184
1327.0530443908244,1327.0530443908244,0.9999030662339166,0.00031753121329921414
1327.0608221036634,1327.0608221036634,0.9996203765476078,0.00031752579020362474
