time,time,flux,flux_err
1410.9084015853234,1410.9084015853234,0.9998375217455161,0.0003069297910374172
1410.91604062729,1410.91604062729,0.9997148786631775,0.00028013211816546574
1410.9229852108965,1410.9229852108965,0.9999928392008595,0.0002801956829413917
1410.9299297946884,1410.9299297946884,1.0000310976468494,0.00028019600878142456
1410.9368743783411,1410.9368743783411,0.9999773380366637,0.0002801224026356858
1410.9438189620869,1410.9438189620869,1.0002815230650413,0.0002802156755194349
1410.9507635457862,1410.9507635457862,0.9999536990591353,0.00028014919130593826
1410.9577081295324,1410.9577081295324,1.0004902466579564,0.00028023644780005225
1410.966041629999,1410.966041629999,0.9998930526903754,0.00028003254504020664
1410.9821530643378,1410.9821530643378,0.9999340408370694,0.00028009845327676877
1410.9896532148655,1410.9896532148655,1.0001096794423314,0.0002801352531534022
1410.9993756321003,1410.9993756321003,0.9999763095221803,0.00028001180135892186
1411.0090980494285,1411.0090980494285,1.0007035314227992,0.000280240478201945
1411.016042633174,1411.016042633174,1.0002049522907535,0.0002801206612616742
1411.0229872169202,1411.0229872169202,0.9999365612115196,0.0002801236054756931
1411.0299318007594,1411.0299318007594,0.9996940262403561,0.00028008275448028095
1411.0368763845513,1411.0368763845513,0.9999911103500285,0.0002801033020270083
1411.0438209682509,1411.0438209682509,0.9997774423507998,0.00028010449450471
1411.0518766854198,1411.0518766854198,0.9994521832215838,0.0002800454581913594
1411.0590990526034,1411.0590990526034,0.9998007636852162,0.00028009867795644814
1411.0660436363025,1411.0660436363025,1.0003665596385687,0.0002801547491655959
1411.072988220048,1411.072988220048,1.0000022773465977,0.00028010210412547306
1411.0799328037945,1411.0799328037945,1.0004967741601596,0.0002801806426461559
1411.0868773874934,1411.0868773874934,1.0003684360698903,0.0002801289064418344
1411.0938219712393,1411.0938219712393,1.0002213197078582,0.00028015560753534715
1411.100766554939,1411.100766554939,0.9994608018246905,0.0002800979736201675
1411.1077111385448,1411.1077111385448,0.9999289515319869,0.0002801220173015607
1411.1146557223376,1411.1146557223376,0.999956353938679,0.00028012463144437246
1411.1216003059897,1411.1216003059897,0.9996595033585864,0.0002800990475748363
1411.128544889596,1411.128544889596,0.9997865625375486,0.0002800657825862264
1411.1354894732021,1411.1354894732021,0.9998025201731569,0.0002801256994516759
1411.1424340568078,1411.1424340568078,1.000595104511017,0.0002801892062006988
1411.1493786404149,1411.1493786404149,1.0000059922144429,0.00028014531279274394
1411.15632322402,1411.15632322402,1.000040069650952,0.0002800866328304587
1411.163267807627,1411.163267807627,1.0001386996854769,0.0002801694085583939
1411.1702123910468,1411.1702123910468,0.9999254201841387,0.0002800586656643415
1411.1771569746059,1411.1771569746059,0.9998938461853843,0.0002801201572297208
1411.18410155812,1411.18410155812,0.9997524190039865,0.0002800781214138821
1411.1910461415855,1411.1910461415855,1.000524385647922,0.00028019514360673144
1411.1979907250056,1411.1979907250056,0.9999056766400848,0.0002801515299373786
1411.2049353084255,1411.2049353084255,1.0000343545456098,0.00028015129741690227
1411.2118798918448,1411.2118798918448,0.9999002496605687,0.0002801192798821122
1411.218824475219,1411.218824475219,0.9998086709937735,0.00028010858072142965
1411.2257690585452,1411.2257690585452,1.000094273683474,0.00028015504882518736
1411.232713641919,1411.232713641919,0.9999913817445485,0.00028011372565495867
1411.2396582251527,1411.2396582251527,0.9998323568924065,0.00028009893634603966
1411.2466028084323,1411.2466028084323,0.9998525305614464,0.00028019884844272477
1411.253547391713,1411.253547391713,1.0003638056530952,0.0002802133519983991
1411.2604919748997,1411.2604919748997,0.9999714262012752,0.0002801517349948086
1411.2674365580872,1411.2674365580872,0.9997244694895151,0.00028010426673205993
1411.2743811412274,1411.2743811412274,1.0001255391355368,0.00028011736215981746
1411.281325724321,1411.281325724321,0.9999664743305768,0.0002800881344416623
1411.2882703074622,1411.2882703074622,1.0000410873109207,0.0002801014854334026
1411.295214890509,1411.295214890509,1.0002008167020708,0.00028015063720187086
1411.30215947351,1411.30215947351,1.0001137988326527,0.00028010155366738965
1411.309104056511,1411.309104056511,1.000204598325253,0.00028018395321803894
1411.3160486394647,1411.3160486394647,0.9998758893722469,0.00028011153080102313
1411.3229932223728,1411.3229932223728,1.0004280881007983,0.00028021366124112297
1411.3299378052336,1411.3299378052336,0.9998387700872409,0.00028012034838143326
1411.3368823880949,1411.3368823880949,0.999924102850447,0.0002801130564853532
1411.3438269709095,1411.3438269709095,1.000341706243866,0.00028021634852542295
1411.3507715536773,1411.3507715536773,0.999756404540317,0.0002801703546938421
1411.3577161364456,1411.3577161364456,0.999984760098053,0.00028017525587520874
1411.36466071912,1411.36466071912,1.0004292527960157,0.0002802080478669624
1411.3716053017954,1411.3716053017954,1.000201978648403,0.0002802079230678681
1411.3785498844231,1411.3785498844231,1.0003677358992857,0.0002802708807967592
1411.3854944669583,1411.3854944669583,0.9998637086838704,0.00028017281332448727
1411.3924390496334,1411.3924390496334,0.9994652523818859,0.00028011138858698636
1411.3993836320747,1411.3993836320747,0.9993635199833824,0.0002800929955547555
1411.4063282145175,1411.4063282145175,1.0002096792619366,0.00028023053781781255
1411.4132727969593,1411.4132727969593,1.000135505020472,0.0002802157540283567
1411.4202173794013,1411.4202173794013,1.0003564673147631,0.00028016331620319904
1411.4271619617036,1411.4271619617036,1.0003687722464678,0.0002802535697226962
1411.434106544052,1411.434106544052,0.9998427209040142,0.0002801593353033532
1411.441051126262,1411.441051126262,1.000228895022346,0.0002801438868754253
1411.4479957085173,1411.4479957085173,0.999697228685909,0.0002800943153046373
1411.4549402906796,1411.4549402906796,0.999906132185463,0.0002801850042704377
1411.4618848727962,1411.4618848727962,0.999621435600851,0.00028014150901771467
1411.4688294549583,1411.4688294549583,1.0000477031986232,0.00028013507901971193
1411.4757740369819,1411.4757740369819,1.0001933926033542,0.0002801743032523335
1411.4827186189577,1411.4827186189577,1.0002387155982457,0.00028017029629617336
1411.4896632009345,1411.4896632009345,1.0004296740093155,0.00028022829551070015
1411.4966077828176,1411.4966077828176,0.9998487890791207,0.000280219560057921
1411.5035523647002,1411.5035523647002,0.999799873100892,0.0002801397048337704
1411.5104969465374,1411.5104969465374,0.9993727410465917,0.00028009488285329757
1411.5174415282804,1411.5174415282804,1.000122411400538,0.0002801164503273298
1411.5243861100244,1411.5243861100244,1.0001542995696115,0.00028022051159325276
1411.5313306917212,1411.5313306917212,1.0001267331912074,0.0002802015893310895
1411.5382752733249,1411.5382752733249,1.0001496460192851,0.0002801372502512845
1411.5452198549292,1411.5452198549292,0.9997557864039381,0.00028006121401159107
1411.552164436486,1411.552164436486,1.0004366901337551,0.00028017980279217657
1411.5591090179973,1411.5591090179973,0.9997795218674461,0.00028012453157075093
1411.5660535994143,1411.5660535994143,1.0012856611893521,0.0002801596554222802
1411.5729981807854,1411.5729981807854,0.999682231095127,0.00028005121725002886
1411.5799427620632,1411.5799427620632,0.9999933036439591,0.0002800955406016576
1411.5868873433405,1411.5868873433405,0.9997730570062966,0.0002800794006182325
1411.5938319246193,1411.5938319246193,1.0004856577541381,0.00028019976338911827
1411.6007765058962,1411.6007765058962,1.000129168586789,0.0002801474405603703
1411.607721087035,1411.607721087035,0.9999418344253488,0.00028013923900846585
1411.6146656681267,1411.6146656681267,1.0002303399260213,0.00028016749442206655
1411.6216102491712,1411.6216102491712,1.00008089224989,0.0002801491752321023
1411.6285548301705,1411.6285548301705,1.0000020181883325,0.0002801669320271154
1411.6354994111216,1411.6354994111216,0.999758411577821,0.0002801475427832368
1411.6424439920272,1411.6424439920272,0.9993455874155416,0.0002801059298639612
1411.649388572886,1411.649388572886,1.0000092083767622,0.0002801749165993029
1411.6563331536513,1411.6563331536513,1.0006766080914622,0.000280289241773946
1411.6632777344173,1411.6632777344173,0.999525606914295,0.0002801472074783917
1411.6702223151358,1411.6702223151358,1.0002144366679169,0.00028022878075958544
1411.677166895716,1411.677166895716,0.9995305357160733,0.00028010081704259095
1411.6841114763415,1411.6841114763415,1.000540826066217,0.00028018927787637395
1411.6910560568278,1411.6910560568278,0.9995172700909467,0.00028009962862720337
1411.6980006373608,1411.6980006373608,1.0003509727786057,0.0002802159198995402
1411.7049452177537,1411.7049452177537,1.0001153090807298,0.0002801637441830822
1411.7118897981472,1411.7118897981472,1.0002833126577948,0.0002802077918004934
1411.7188343784467,1411.7188343784467,1.0002684742274865,0.000280236820704845
1411.725778958654,1411.725778958654,1.0000020042164999,0.0002801940898184709
1411.7327235390003,1411.7327235390003,0.9998542556385637,0.00028018081370304233
1411.7396681191137,1411.7396681191137,0.9995783227011664,0.00028013821623018223
1411.7466126992279,1411.7466126992279,1.000031925760102,0.000280157863907786
1411.753557279248,1411.753557279248,0.9994921330622791,0.00028011950264062536
1411.7605018592226,1411.7605018592226,0.9999253550552873,0.0002801955322687406
1411.7674464391496,1411.7674464391496,1.000421220190247,0.00028023357111795307
1411.7743910190306,1411.7743910190306,0.9999644566541723,0.0002801718573063577
1411.781335598865,1411.781335598865,1.0002829588697515,0.00028021748478526947
1411.7882801786523,1411.7882801786523,0.99978167359145,0.0002801066386156438
1411.7952247583944,1411.7952247583944,1.0002423836925083,0.0002801678328318498
1411.8021693380417,1411.8021693380417,1.0001606482268741,0.00028016946362550684
1411.8091139176436,1411.8091139176436,0.9994841885312933,0.0002800578368633333
1411.8160584971517,1411.8160584971517,0.9999746308828271,0.0002801402080041719
1411.8230030767063,1411.8230030767063,1.00040252408464,0.0002802060520879897
1411.8299476561222,1411.8299476561222,0.9999469469604412,0.0002801112965014699
1411.83689223549,1411.83689223549,0.999779717369645,0.0002800658255906444
1411.8438368148595,1411.8438368148595,1.0001934831451016,0.00028013590291514455
1411.8507813940882,1411.8507813940882,1.000112385538727,0.0002801471286536178
1411.857725973317,1411.857725973317,0.9996045440538847,0.0002800902225988227
1411.8646705524995,1411.8646705524995,0.9997046596715471,0.00028008405945442467
1411.8716151315418,1411.8716151315418,1.000188762151263,0.00028017103867671804
1411.8785597106782,1411.8785597106782,1.000365897241671,0.0002801426881469709
1411.8855042896273,1411.8855042896273,0.9999989153459417,0.00028018387189113664
1411.8924488685775,1411.8924488685775,1.0000308062485854,0.00028014179630150854
1411.8993934473867,1411.8993934473867,1.0000608625415484,0.00028016287370110705
1411.9063380262437,1411.9063380262437,1.0007969624283655,0.0002802430794297965
1411.9132826049604,1411.9132826049604,1.0002557091981872,0.000280160783003694
1411.9202271836302,1411.9202271836302,0.9994447487894409,0.00028005497300990964
1411.927171762301,1411.927171762301,0.9997010475599293,0.0002801363534380574
1411.9341163408774,1411.9341163408774,1.0000818647126022,0.0002802027368921922
1411.9410609194083,1411.9410609194083,1.000431283413817,0.0002802056377442741
1411.9480054978917,1411.9480054978917,0.9999046445115634,0.0002801142751175119
1411.9549500762823,1411.9549500762823,0.9996961494259434,0.00028015895663622734
1411.961894654627,1411.961894654627,1.0003784684710382,0.0002802014382726189
1411.968839232924,1411.968839232924,0.9999222156802855,0.0002801329148348219
1411.9757838111757,1411.9757838111757,0.9998567241119731,0.0002801234502171552
1411.9827283893333,1411.9827283893333,1.0000460695778952,0.00028015226470510266
1411.9896729674451,1411.9896729674451,1.0002739505091855,0.0002801661330091625
1411.99661754551,1411.99661754551,1.0000881578357217,0.0002801181289961029
1412.0035621234813,1412.0035621234813,0.9997527114695725,0.00028018014042481283
1412.0105067014067,1412.0105067014067,0.9999592996440935,0.0002801082350807423
1412.0174512792848,1412.0174512792848,1.0000009656985094,0.0002801236392605666
1412.0243958572105,1412.0243958572105,0.9998126960492982,0.00028013782296173865
1412.0313404349024,1412.0313404349024,1.0003698899818128,0.00028019036323448474
1412.038285012548,1412.038285012548,0.9994388413805195,0.00028010314706337745
1412.0452295902403,1412.0452295902403,1.0004807888734473,0.00028014842022150373
1412.052174167793,1412.052174167793,1.000397431770534,0.0002802054342195852
1412.059118745346,1412.059118745346,0.9998797611549752,0.0002801159354153104
1412.0660633227583,1412.0660633227583,0.9999596173903716,0.0002801536105504427
1412.073007900172,1412.073007900172,1.0004884740767883,0.0002802624986658121
1412.0799524775375,1412.0799524775375,0.9999113063138857,0.00028013429314465614
1412.0868970547642,1412.0868970547642,0.9998170678206183,0.000280122675767416
1412.093841631991,1412.093841631991,1.0001330714208463,0.00028016241387695314
1412.1007862091706,1412.1007862091706,0.9998817203060917,0.0002801586376784299
1412.1077307863047,1412.1077307863047,0.9997941927120045,0.0002801486442803164
1412.1146753633448,1412.1146753633448,1.0000050545922867,0.00028017315660507205
1412.121619940292,1412.121619940292,0.9997222156457021,0.0002801331786307871
1412.1285645172393,1412.1285645172393,1.0001426592260998,0.0002801893228915738
1412.1355090940935,1412.1355090940935,1.0000903320060994,0.00028012974459988755
1412.1424536709478,1412.1424536709478,0.9999982203588644,0.00028011107088950096
1412.1493982475686,1412.1493982475686,1.00057030307867,0.000280181378919185
1412.1563428243767,1412.1563428243767,1.0000702116137772,0.00028016289567443136
1412.1632874009974,1412.1632874009974,0.9998688139135152,0.0002801271248650534
1412.1702319774326,1412.1702319774326,1.0003869131473435,0.00028016043145756423
1412.1771765540072,1412.1771765540072,0.9999041185859678,0.0002801071848770892
1412.1841211304422,1412.1841211304422,0.9996616349428052,0.0002801155310330214
1412.1910657067842,1412.1910657067842,1.0002655649772165,0.0002801616244815512
1412.1980102831258,1412.1980102831258,0.9999616172930151,0.00028012566774032494
1412.2049548593754,1412.2049548593754,1.0000125887554945,0.00028014954656224657
1412.2118994355765,1412.2118994355765,1.0000742486485756,0.0002801780865275267
1412.218844011733,1412.218844011733,0.9997916345799988,0.0002800750282161622
1412.225788587795,1412.225788587795,0.9996728786859264,0.00028010731140386453
1412.232733163811,1412.232733163811,0.9999093753101833,0.0002801568616344514
1412.239677739734,1412.239677739734,1.0000757987219704,0.00028014670381209107
1412.2466223156093,1412.2466223156093,1.000351349876305,0.0002801694988937842
1412.2544002404948,1412.2544002404948,1.000245927848214,0.0002801918200946377
1412.2630115144805,1412.2630115144805,0.9999188288054672,0.00028003169444431556
1412.2730117034648,1412.2730117034648,1.0000939583620858,0.0002800946817341402
1412.2844008074012,1412.2844008074012,1.0001033198254254,0.00028005960878723697
1412.2924565150238,1412.2924565150238,1.000102490551753,0.0002800884067300851
1412.2994010904345,1412.2994010904345,0.9999601627296366,0.00028019355564387155
1412.3063456657055,1412.3063456657055,0.9995612399447781,0.00028010949809484386
1412.3132902410227,1412.3132902410227,0.9997870886219987,0.00028014393280277497
1412.3202348162936,1412.3202348162936,0.9998623124856365,0.0002801730431032035
1412.327179391471,1412.327179391471,0.999729446367428,0.0002801118619766633
1412.334123966556,1412.334123966556,1.0002590596795038,0.000280237032906357
1412.3410685416404,1412.3410685416404,1.000748327980407,0.0002802742369012089
1412.3480131166323,1412.3480131166323,1.000196358308063,0.000280123522825474
1412.3549576915304,1412.3549576915304,0.9998673520144019,0.00028011198473055436
1412.3619022663822,1412.3619022663822,1.0000183813341121,0.00028007338488385904
1412.368846841234,1412.368846841234,1.0000219946030622,0.00028011665132141814
1412.3757914159926,1412.3757914159926,0.9999358136701151,0.0002801637231314864
1412.3827359906584,1412.3827359906584,1.0001169433010821,0.00028018114642880995
1412.3896805652764,1412.3896805652764,1.0000456275681626,0.00028019410447012433
1412.3966251398497,1412.3966251398497,0.9999641357306374,0.00028019223251417563
1412.4035697143283,1412.4035697143283,0.9995303837750195,0.00028012831197280006
1412.4105142887147,1412.4105142887147,1.0000473900331008,0.000280133749277718
1412.4174588631943,1412.4174588631943,1.0005612549565428,0.00028012721218612926
1412.424403437533,1412.424403437533,0.999973575283532,0.00028021228794706843
1412.4313480117335,1412.4313480117335,1.0000856820118782,0.00028020007201712505
1412.4382925858863,1412.4382925858863,0.9996745949303045,0.0002801622781176167
1412.44523716004,1412.44523716004,0.9997916708962308,0.0002801068551417275
1412.4521817340997,1412.4521817340997,0.9999673604792368,0.00028015936925101056
1412.4591263081134,1412.4591263081134,1.0001912603075034,0.00028013194639161176
1412.4660708820336,1412.4660708820336,1.0001682088170147,0.0002801223107652405
1412.473015455908,1412.473015455908,1.0003536454598823,0.000280126350759856
1412.4799600297351,1412.4799600297351,1.0009490308145044,0.00028009984994508937
1412.4869046035153,1412.4869046035153,0.9998421093257466,0.0002801698628569874
1412.4938491771568,1412.4938491771568,1.000310168006021,0.000280186535241533
1412.5007937508442,1412.5007937508442,0.9995886300763284,0.00028006675682158667
1412.507738324393,1412.507738324393,0.9997957995569176,0.0002801403111541567
1412.5146828978936,1412.5146828978936,1.0000567364892685,0.0002801438975102514
1412.521627471302,1412.521627471302,1.0001323367891604,0.00028018120154787854
1412.5285720447102,1412.5285720447102,1.0000046630866783,0.0002802071148205166
1412.5355166180718,1412.5355166180718,0.9997494869498409,0.000280119375331955
1412.5424611912938,1412.5424611912938,1.0001705563829102,0.0002801964712897412
1412.5494057645622,1412.5494057645622,0.999949903833997,0.0002801666141889111
1412.5563503376914,1412.5563503376914,0.9999374241691958,0.00028017065959895786
1412.5632949107269,1412.5632949107269,1.0000270625645717,0.0002801601835351759
1412.570239483716,1412.570239483716,1.0004922930451035,0.0002802380980621845
1412.5771840566583,1412.5771840566583,1.0000720233127005,0.0002801640383267242
1412.584128629555,1412.584128629555,0.9995772166191752,0.0002801141856204666
1412.591073202404,1412.591073202404,0.9999294903002603,0.0002801584476831763
1412.59801777516,1412.59801777516,0.999881814984992,0.000280145833101928
1412.6049623478702,1412.6049623478702,0.9998153414015002,0.00028012683287994655
1412.6119069204863,1412.6119069204863,0.9999191111785859,0.00028011476603546876
1412.6188514931036,1412.6188514931036,1.0001899759888904,0.0002801415229522062
1412.6257960655798,1412.6257960655798,1.0001229259900222,0.00028008166073235235
1412.632740638057,1412.632740638057,1.0000869500576761,0.00028017803546153227
1412.6396852104408,1412.6396852104408,1.0001965111647988,0.0002801778113496233
1412.6466297827315,1412.6466297827315,0.9998999323499298,0.0002801467499626579
1412.653574355022,1412.653574355022,1.00019891126126,0.0002801734487856889
1412.660518927219,1412.660518927219,0.9998234238643956,0.0002801492529658417
1412.6674634993708,1412.6674634993708,0.9998414045187574,0.00028010853001639606
1412.6744080714748,1412.6744080714748,1.0001398107128383,0.000280148604238235
1412.681352643533,1412.681352643533,0.9994343665341312,0.00028002470491807007
1412.688297215497,1412.688297215497,1.0004640955111013,0.0002801777410366493
1412.6952417872758,1412.6952417872758,1.0000740997926472,0.00028015937186300527
