time,time,flux,flux_err
1683.361402054273,1683.361402054273,0.9999018610224443,0.0003162134319457323
1683.3697353789314,1683.3697353789314,1.0001854667479961,0.0003161327096827464
1683.3780687034348,1683.3780687034348,1.0003223288905245,0.000316077354206077
1683.3857075842552,1683.3857075842552,0.9996498772267135,0.0002885059578849709
1683.3926520210825,1683.3926520210825,0.9996960480348065,0.0002884714169831187
1683.3995964576304,1683.3995964576304,0.999646229480135,0.00028834136347011003
1683.406540894271,1683.406540894271,1.0002233178050661,0.00028849040374295007
1683.4134853307264,1683.4134853307264,1.0003783929599706,0.0002885373909958055
1683.420429767088,1683.420429767088,1.0001705437287387,0.00028852075010393676
1683.427374203356,1683.427374203356,1.0001783047925124,0.00028862907078027866
1683.4343186395315,1683.4343186395315,0.9993267360395517,0.0002883394595982887
1683.4412630755207,1683.4412630755207,0.9997908630438639,0.00028857188125289054
1683.448207511417,1683.448207511417,0.9997852515715037,0.00028843411172405065
1683.4551519473127,1683.4551519473127,1.0004088765690526,0.0002886410670160351
1683.4620963829293,1683.4620963829293,0.9999873600686836,0.0002884878746370206
1683.469040818639,1683.469040818639,1.0003760612302606,0.0002884929223139614
1683.4759852541629,1683.4759852541629,1.0000661628206933,0.0002884098272052466
1683.4829296895928,1683.4829296895928,1.0009607745799358,0.0002885741988758013
1683.4898741248367,1683.4898741248367,0.999325827086831,0.00028847598924927603
1683.4968185601742,1683.4968185601742,1.0002300961614954,0.0002885595972427309
1683.5037629953251,1683.5037629953251,0.9999448734372477,0.00028849700674696586
1683.5107074303828,1683.5107074303828,0.9997106108895272,0.0002885512986254544
1683.5176518653475,1683.5176518653475,0.9998358993740684,0.00028847108775373467
1683.524596300312,1683.524596300312,1.000347269060641,0.000288595824816802
1683.5315407350904,1683.5315407350904,0.9998215398158246,0.0002886901199807867
1683.5384851697759,1683.5384851697759,1.000218971074802,0.0002887113058209365
1683.545429604275,1683.545429604275,1.0001788662753983,0.000288679881993073
1683.5523740387737,1683.5523740387737,0.9997809990056143,0.00028868397172531314
1683.5607073601725,1683.5607073601725,0.9996575749920087,0.00028869927033624905
1683.5693184589516,1683.5693184589516,1.000120151163299,0.00028863936509649225
1683.57876288959,1683.57876288959,0.9998489300868172,0.0002884588557258676
1683.58598510119,1683.58598510119,0.9995131939250121,0.000288632737841628
1683.5940406447432,1683.5940406447432,0.9997250628288732,0.00028860913374787134
1683.6009850786836,1683.6009850786836,1.0000147806587787,0.000288546851413867
1683.607929512717,1683.607929512717,1.0007757785852487,0.0002886820124291706
1683.617096165417,1683.617096165417,1.0005580764422026,0.0002884304731363763
1683.6245961538382,1683.6245961538382,0.9996123498776788,0.0002886756199346621
1683.631540587592,1683.631540587592,1.0001232350768123,0.00028853311447788924
1683.6387627986326,1683.6387627986326,0.9994395160880771,0.00028839617016325947
1683.6468183415338,1683.6468183415338,0.9999653774548829,0.0002885997959641344
1683.6537627751015,1683.6537627751015,0.9996853393687675,0.00028840853021846655
1683.6607072084832,1683.6607072084832,1.0005426478359607,0.0002886920723992232
1683.6676516420507,1683.6676516420507,1.0007812247249956,0.0002885700214746254
1683.674596075339,1683.674596075339,0.9997433738303171,0.00028857824352312235
1683.6815405084405,1683.6815405084405,0.9999895233748889,0.0002886070008001756
1683.6884849417293,1683.6884849417293,0.9997605458506363,0.00028851439789256717
1683.6954293749245,1683.6954293749245,1.0000870501296142,0.00028856282115243914
1683.7023738079333,1683.7023738079333,0.9999156959245991,0.00028861427907658137
1683.7093182410354,1683.7093182410354,0.9999317960340021,0.0002885185923179581
1683.7162626740442,1683.7162626740442,0.9999516745734471,0.0002885893072267058
1683.723207106867,1683.723207106867,1.00006131297462,0.0002885152663792561
1683.7301515397824,1683.7301515397824,0.9998034361427752,0.0002884433280879511
1683.7370959725117,1683.7370959725117,0.9999043266076958,0.0002885207579121405
1683.7440404053345,1683.7440404053345,0.9998116972750919,0.0002883251186709047
1683.7509848380646,1683.7509848380646,0.999985032998541,0.0002885161151309287
1683.7579292707007,1683.7579292707007,1.000521106893154,0.0002885165959800336
1683.7648737032437,1683.7648737032437,0.999951694752425,0.0002884894037554823
1683.77181813588,1683.77181813588,1.0000782934405095,0.00028848276146512853
1683.7787625684232,1683.7787625684232,1.0000978861564322,0.0002885291464391442
1683.7857070007801,1683.7857070007801,0.9998486210394976,0.0002885740061869706
1683.7926514333235,1683.7926514333235,1.0001337078556842,0.00028853936110232223
1683.7995958654942,1683.7995958654942,0.9996126118862676,0.0002885546146479517
1683.8065402979441,1683.8065402979441,0.9999665169562817,0.0002884689004728679
1683.8134847303015,1683.8134847303015,1.0001934497483915,0.0002884666918165319
1683.820429162472,1683.820429162472,1.0001201808737057,0.000288561872293317
1683.8273735946423,1683.8273735946423,1.0001694109254005,0.0002885759492263616
1683.8343180268134,1683.8343180268134,1.0001299457867596,0.0002886374123568614
1683.8412624589841,1683.8412624589841,0.9997835618090424,0.0002883694694576536
1683.8482068906892,1683.8482068906892,0.9998160388022107,0.00028856794325859676
1683.85515132286,1683.85515132286,0.9999217550770153,0.0002884398336172951
1683.8620957548442,1683.8620957548442,1.0000245493868085,0.00028844302627807644
1683.8690401867357,1683.8690401867357,1.0002162663819782,0.0002886191351416822
1683.8759846185337,1683.8759846185337,0.99974867371819,0.0002884118260776729
1683.8829290504248,1683.8829290504248,1.0000631023907853,0.0002885196763745161
1683.8898734822228,1683.8898734822228,0.9997956692477933,0.0002882545390597604
1683.9004290184705,1683.9004290184705,1.0006118692462882,0.00028843716288490896
1683.9093178910905,1683.9093178910905,0.9994868793535641,0.00028831098364080147
1683.9162623226089,1683.9162623226089,0.999739247061402,0.00028837256408182575
1683.9232067542205,1683.9232067542205,1.0001816111586348,0.0002884868435569294
1683.9301511858328,1683.9301511858328,1.0004700373515691,0.00028846354629763244
1683.9370956173516,1683.9370956173516,0.9995351369232701,0.0002883761151731174
1683.9440400488704,1683.9440400488704,0.9999917149671372,0.0002885615506961668
1683.9509844802956,1683.9509844802956,1.000097267770726,0.00028839511352462177
1683.9579289117216,1683.9579289117216,1.000412760630558,0.0002885371250785088
1683.9648733430543,1683.9648733430543,1.0003333683145095,0.0002884901964508884
1683.9718177744794,1683.9718177744794,0.9996083382114402,0.0002884305801778953
1683.9787622058125,1683.9787622058125,0.9999943867881138,0.000288448069049011
1683.9857066370519,1683.9857066370519,0.9997504179391417,0.0002884448511710805
1683.9926510682913,1683.9926510682913,0.9998805797896393,0.00028859246256557466
1683.9995954995302,1683.9995954995302,0.9993892489921967,0.00028848467414830666
1684.0065399306768,1684.0065399306768,0.9998826734848736,0.0002884549084654674
1684.013484361823,1684.013484361823,1.0003338902102912,0.0002884476556565186
1684.0204287929694,1684.0204287929694,1.0003229545971322,0.00028846119201926486
1684.0273732240225,1684.0273732240225,1.000281045593323,0.00028848788490825716
1684.0343176550753,1684.0343176550753,1.000675113742413,0.0002885550690903241
1684.0412620860352,1684.0412620860352,0.9999164771862674,0.00028846650808191766
1684.0482065170886,1684.0482065170886,0.9993266954336469,0.00028845053299617925
1684.0562620569162,1684.0562620569162,0.999657386656828,0.000288338814480747
1684.06348426507,1684.06348426507,1.0004113782662696,0.0002887546608587049
1684.0704286959367,1684.0704286959367,0.9999855774857226,0.00028823999953618584
1684.077373126804,1684.077373126804,1.0002923651621087,0.0002885928223408166
1684.0843175575774,1684.0843175575774,1.0000188726932595,0.00028851461948010146
1684.0912619884443,1684.0912619884443,0.9994665104143241,0.0002884182184274782
1684.0982064192176,1684.0982064192176,1.000253423756757,0.00028849640286384787
1684.105150849899,1684.105150849899,0.9996866158908091,0.00028836972513798104
1684.112095280579,1684.112095280579,1.0000646295191349,0.0002884882698716668
1684.1190397111664,1684.1190397111664,0.9998819621514372,0.00028839899420259995
1684.1259841418473,1684.1259841418473,0.9997248310140009,0.00028841558611041225
1684.1329285724346,1684.1329285724346,1.0001906078811558,0.00028855035832861086
1684.139873003022,1684.139873003022,1.0000682038822195,0.0002885908370156207
1684.1468174337028,1684.1468174337028,0.9996265510272375,0.00028866629212052523
1684.1537618641037,1684.1537618641037,1.0000186109653606,0.00028873325998763423
1684.160706294691,1684.160706294691,1.0003210304751637,0.0002887142683915062
1684.1676507250927,1684.1676507250927,1.0007841939933246,0.00028864741011666454
1684.1745951554938,1684.1745951554938,1.0000283694937262,0.00028866786308799007
1684.1815395858946,1684.1815395858946,0.9999705756472075,0.00028881289833987086
1684.1884840163889,1684.1884840163889,0.9997907569922377,0.0002888789916112187
1684.1954284466974,1684.1954284466974,0.9999009443114029,0.0002886417555201837
1684.202372877005,1684.202372877005,1.0000752499482393,0.0002886829000571889
1684.209317307313,1684.209317307313,1.0004083245661635,0.0002887660563821028
1684.216261737621,1684.216261737621,0.9998010310484389,0.00028876745189250177
1684.2232061678365,1684.2232061678365,1.00056805218503,0.0002890321858140451
1684.2301505981443,1684.2301505981443,0.9996215229794514,0.00028874706214082683
1684.2370950282661,1684.2370950282661,0.9998731683818706,0.0002888586467857593
1684.2440394583878,1684.2440394583878,1.0005054512565525,0.0002889628985657007
1684.2509838886028,1684.2509838886028,0.9998764831187659,0.00028887326501766963
1684.2579283187247,1684.2579283187247,0.9994632496010812,0.0002888703160135495
1684.2648727487533,1684.2648727487533,1.000175307297257,0.00028900150856115385
1684.2718171788747,1684.2718171788747,1.0001956748481367,0.00028902030734751405
1684.2787616089038,1684.2787616089038,0.999836301690198,0.00028895978052244874
1684.2857060388392,1684.2857060388392,1.0007110831502555,0.00028880057569481503
1684.2926504690543,1684.2926504690543,0.9995785936588615,0.0002889030846988293
1684.2995948988962,1684.2995948988962,1.0002071129865713,0.00028893715265194774
1684.3065393287386,1684.3065393287386,1.0004773054235978,0.0002888573146539888
1684.3134837585817,1684.3134837585817,0.9995104261545726,0.0002889114352212719
1684.3204281886096,1684.3204281886096,1.0002001853250007,0.00028904233315286563
1684.3273726187315,1684.3273726187315,1.0001055969992307,0.00028907336048649514
1684.3343170485737,1684.3343170485737,1.0001625397035387,0.00028903001694105827
1684.3412614783235,1684.3412614783235,0.9997218542603912,0.0002891291656299911
1684.3482059077935,1684.3482059077935,0.999815427187424,0.00028900785084567943
1684.3551503376355,1684.3551503376355,1.0001227088273401,0.0002890737194061369
1684.3620947674779,1684.3620947674779,0.9998137850386792,0.00028916635390648364
1684.3690391973203,1684.3690391973203,1.0005100981325725,0.0002891132440823202
1684.3759836269764,1684.3759836269764,1.0001349281689196,0.0002890909569554207
1684.3829280565394,1684.3829280565394,0.9997701066552667,0.00028907665742251116
1684.3898724863816,1684.3898724863816,0.9996827676463468,0.00028918696991781667
1684.3968169158518,1684.3968169158518,0.9999792433590642,0.00028907770657302524
1684.4037613456014,1684.4037613456014,1.0002511276214487,0.00028927642371884635
1684.410705775071,1684.410705775071,1.0002193665311077,0.000289131146471351
1684.4176502047267,1684.4176502047267,0.9997728961982375,0.0002893421921075046
1684.4245946341969,1684.4245946341969,1.000206091925391,0.00028920080873683773
1684.4315390637598,1684.4315390637598,0.9997974980744468,0.0002889895125433818
1684.4384834932293,1684.4384834932293,0.999812946605654,0.0002890994455276889
1684.4454279227928,1684.4454279227928,1.0001278652527812,0.00028918858633268847
1684.4523723521695,1684.4523723521695,1.0000123956390161,0.0002891036391568834
1684.4593167815462,1684.4593167815462,0.9998779354079066,0.00028921625916605333
1684.4662612110162,1684.4662612110162,1.0000683799482302,0.0002893315768372137
1684.4732056403925,1684.4732056403925,0.9998103629006021,0.0002893860738006699
1684.4801500697693,1684.4801500697693,1.0001017951159703,0.0002892158707794692
1684.487094499146,1684.487094499146,0.9998665619737128,0.00028919492068953757
1684.4940389284297,1684.4940389284297,1.0004140080622543,0.00028927984288150556
1684.5009833577133,1684.5009833577133,0.9999634596326763,0.0002892719118215537
1684.5079277869968,1684.5079277869968,1.0005313929845734,0.0002892261759193462
1684.5148722162808,1684.5148722162808,0.9995268794577667,0.0002892065482885816
1684.5218166454713,1684.5218166454713,0.9997337177112687,0.0002893151223402409
1684.5287610746614,1684.5287610746614,0.9997994218166051,0.00028938267149292667
1684.535705503945,1684.535705503945,1.0002901838304394,0.00028940649859968105
1684.5426499330424,1684.5426499330424,0.9997849038978469,0.0002893210151833787
1684.549594362233,1684.549594362233,0.9997281627838699,0.00028944252619387655
1684.556538791237,1684.556538791237,1.0004468777938764,0.00028955740853642156
1684.5634832204275,1684.5634832204275,1.0002058372924576,0.0002895932968037917
1684.5704276495253,1684.5704276495253,0.9999404085363736,0.0002895395153814845
1684.5773720786224,1684.5773720786224,1.0002170458558428,0.0002895549616465224
1684.5843165075335,1684.5843165075335,1.0000568500756586,0.0002894484512747811
1684.5912609366303,1684.5912609366303,0.9998626830427579,0.0002896395853360811
1684.5982053656348,1684.5982053656348,1.0000715264577695,0.000289618375815316
1684.605149794546,1684.605149794546,0.9995056435720955,0.0002894787308405763
1684.6120942235502,1684.6120942235502,0.9998026601365118,0.00028960235019906774
1684.6190386524609,1684.6190386524609,1.0001296834587299,0.00028962124983729863
1684.6259830813724,1684.6259830813724,1.0007906823692354,0.00028987434401103816
1684.6329275102835,1684.6329275102835,0.9999127558964588,0.0002897991875005703
1684.639871939194,1684.639871939194,0.9999661814716891,0.00028976461330517945
1684.6468163680122,1684.6468163680122,0.9996828775109554,0.0002897341480627703
1684.6537607967373,1684.6537607967373,0.9995983613717145,0.00028961418053980207
1684.6607052256484,1684.6607052256484,0.9997061873172155,0.0002896668001191668
1684.6676496543728,1684.6676496543728,1.0002011128710497,0.00028966224813124184
1684.674594083191,1684.674594083191,0.9998646944220866,0.0002898198797298077
1684.681538511916,1684.681538511916,0.9999941116979434,0.0002896503091218231
1684.6884829406408,1684.6884829406408,1.0004034768467425,0.00028976185157509807
1684.6954273692722,1684.6954273692722,1.0007110089552425,0.00028979638287990474
1684.7023717979969,1684.7023717979969,0.9996643183988494,0.00028971119072045284
1684.709316226629,1684.709316226629,0.9999170441775173,0.00028973114161537914
1684.7162606553534,1684.7162606553534,0.9999521304142384,0.0002896861724552489
1684.7232050839852,1684.7232050839852,1.0002417794766578,0.00028968314805122395
1684.7301495125237,1684.7301495125237,0.9994360984289298,0.00028973594964511244
1684.7370939411558,1684.7370939411558,1.0000357312299764,0.00028977620221514464
1684.744038369694,1684.744038369694,0.9999068552612547,0.00028976850033096766
1684.7509827982326,1684.7509827982326,1.0001987527263183,0.00028971747394013415
1684.7579272266776,1684.7579272266776,1.0001060421711785,0.0002897944392472961
1684.7648716552164,1684.7648716552164,0.9994084471778285,0.0002896918471677565
1684.771816083755,1684.771816083755,1.0006048161363106,0.0002898744816357247
1684.7787605122005,1684.7787605122005,0.999814307247884,0.0002897836531684762
1684.7857049406455,1684.7857049406455,0.9998715680993101,0.0002896844991572198
1684.7926493689986,1684.7926493689986,1.0000973094087293,0.00028976997369280493
1684.7995937974435,1684.7995937974435,1.0002735651801686,0.0002898675007096536
1684.806538225796,1684.806538225796,1.0003385988370115,0.0002899511474684135
1684.8134826541477,1684.8134826541477,1.000082487407648,0.0002900085897722331
1684.8204270824076,1684.8204270824076,0.9997176736446193,0.00028995542477162765
1684.8273715107596,1684.8273715107596,1.0001591965633119,0.00028997848648083915
1684.8343159390188,1684.8343159390188,0.9998262232084739,0.00028991131206182057
1684.841260367278,1684.841260367278,0.9992541599746367,0.00028992958664426953
1684.84820479563,1684.84820479563,0.9997804744569295,0.0002899611712254799
1684.8551492238898,1684.8551492238898,1.0002209131434965,0.00029007195480847993
1684.8620936520554,1684.8620936520554,0.9998736242141737,0.0002901535534683569
1684.8690380802211,1684.8690380802211,1.0001140520381868,0.00029016414633335004
1684.8759825084803,1684.8759825084803,1.0002874724528446,0.0002900901955743954
1684.8829269365535,1684.8829269365535,1.0000365811574379,0.00029011987263106623
1684.8898713647195,1684.8898713647195,1.0002739208193039,0.00029006075016778295
1684.8968157928853,1684.8968157928853,0.9993054242736396,0.0002896938007050667
1684.9037602209585,1684.9037602209585,0.9998324691131998,0.0002899572655297914
1684.910704649031,1684.910704649031,1.000082833831861,0.0002899539801821296
1684.9176490770108,1684.9176490770108,1.000373979870594,0.000289994795115053
1684.9245935050835,1684.9245935050835,0.9998883879430671,0.0002900959811620809
1684.9315379330637,1684.9315379330637,0.9997606302547245,0.0002897713981617438
1684.9384823611367,1684.9384823611367,0.9997396693262413,0.0002898211656804167
1684.9454267890228,1684.9454267890228,0.9997790694283084,0.000289871417788212
1684.952371217003,1684.952371217003,1.0004680398929466,0.0002899146693079618
1684.9593156449828,1684.9593156449828,1.0002568074361007,0.00028986090225531334
1684.966260072869,1684.966260072869,1.000325982436315,0.0002898483390233485
1684.9732045007556,1684.9732045007556,0.9999636806297119,0.00028985571309472915
1684.9801489286424,1684.9801489286424,0.999966280942602,0.0002897621205034488
1684.9870933564362,1684.9870933564362,1.0001817117129337,0.0002896989456897859
1684.9940377844155,1684.9940377844155,0.999846230693364,0.0002898288330011066
1685.000982212116,1685.000982212116,0.9998957932368896,0.0002898029588882773
1685.0079266399098,1685.0079266399098,0.9995657241399233,0.0002896695005235022
1685.0148710677029,1685.0148710677029,1.0000817851455601,0.0002899477678301245
1685.0218154954032,1685.0218154954032,1.0001366833424723,0.0002897118786949292
1685.0287599231965,1685.0287599231965,0.9998582602879665,0.00028966955570302385
1685.035704350897,1685.035704350897,1.000017798205155,0.00028974335775273864
1685.0426487784111,1685.0426487784111,1.0002310661255032,0.0002897107004504234
1685.049593206391,1685.049593206391,1.0000483041211523,0.0002898239283729968
1685.056537633905,1685.056537633905,1.0001057640807713,0.00028973102658216734
1685.063482061419,1685.063482061419,1.0000434854767073,0.0002898273647221141
1685.0704264889332,1685.0704264889332,0.9996628084118118,0.0002898012442121832
1685.077370916913,1685.077370916913,1.0000265724672932,0.00028979969262051496
1685.0843153444268,1685.0843153444268,1.0003548902487274,0.00028971895535612224
1685.0912597719416,1685.0912597719416,0.999757521830723,0.00028981544973653313
1685.0982041994553,1685.0982041994553,0.9997300274187169,0.00028967958551804056
1685.1051486269694,1685.1051486269694,0.999641200916605,0.00028970436831693625
1685.1120930544832,1685.1120930544832,1.000318317435362,0.0002897564439621606
1685.1190374819973,1685.1190374819973,0.9999588382663814,0.00028984197167312265
1685.1259819093254,1685.1259819093254,1.0004982992835538,0.00028992141118102196
1685.1329263365599,1685.1329263365599,0.9997367170648566,0.0002899534484293293
