time,time,flux,flux_err
1354.11807660885,1354.11807660885,1.0010796222628773,0.0010644613752169995
1354.1261787106225,1354.1261787106225,0.9998041434894456,0.0009713651746945497
1354.1331233692442,1354.1331233692442,0.9988334834357909,0.0009715983420528578
1354.1400680276802,1354.1400680276802,1.0004361684417007,0.0009714648490154389
1354.1470126859297,1354.1470126859297,0.9998525465727756,0.0009714251557187694
1354.1539573441792,1354.1539573441792,0.9981143437657056,0.0009710346693226702
1354.1609020020562,1354.1609020020562,1.00098023783357,0.0009714976093600699
1354.1678466600267,1354.1678466600267,0.9998705050198611,0.0009714381956025961
1354.1747913176243,1354.1747913176243,0.9992863378189434,0.0009709748835107681
1354.1817359752222,1354.1817359752222,1.0016730564088974,0.0009713494442139175
1354.1886806325401,1354.1886806325401,1.0007983302551078,0.0009710803426950865
1354.1956252899517,1354.1956252899517,1.0002225605218413,0.0009710232487994838
1354.2025699468973,1354.2025699468973,0.9992322466146228,0.0009707952005392426
1354.2095146038432,1354.2095146038432,0.9993661842641904,0.0009705505419684952
1354.2164592607887,1354.2164592607887,0.9992061666892494,0.0009703245748563978
1354.223403917362,1354.223403917362,1.000657456150497,0.0009707020460376586
1354.230348573935,1354.230348573935,0.9981444041152686,0.000969556328057335
1354.2372932303224,1354.2372932303224,1.002481756057609,0.0009702675365843811
1354.244237886523,1354.244237886523,1.000106637347066,0.0009697471732584529
1354.2511825426304,1354.2511825426304,0.9989890817153025,0.0009696055095491845
1354.2581271986448,1354.2581271986448,0.9993497050942602,0.0009692731749839838
1354.2650718543798,1354.2650718543798,1.0000817279180643,0.0009692822047263801
1354.2720165100218,1354.2720165100218,1.003316023476118,0.0009699487245483392
1354.2789611655705,1354.2789611655705,1.000602099075252,0.0009697162988250541
1354.2859058209326,1354.2859058209326,0.999206710960434,0.0009690295465616224
1354.2928504762021,1354.2928504762021,1.0002091318091542,0.0009693046408580473
1354.299795131285,1354.299795131285,0.9985857286618195,0.0009688964868322906
1354.306739786182,1354.306739786182,1.0000417728296116,0.000969184272951336
1354.313684440986,1354.313684440986,1.000837776212115,0.0009693541332582526
1354.3206290958829,1354.3206290958829,0.9995106078269913,0.0009686407689218638
1354.3275737500346,1354.3275737500346,1.0005656818661162,0.0009688535318229752
1354.3345184046518,1354.3345184046518,1.000837376024868,0.0009689038085112357
1354.3414630588036,1354.3414630588036,0.9999575278502586,0.00096846206810612
1354.3484077128624,1354.3484077128624,0.99954313648428,0.0009680071688591568
1354.3553523669207,1354.3553523669207,1.0010597655983942,0.0009686342352309889
1354.3622970207932,1354.3622970207932,0.9994112370165865,0.0009679297063458654
1354.3692416743863,1354.3692416743863,0.9996340293058811,0.0009679875218828725
1354.3761863280724,1354.3761863280724,1.0008671446261102,0.0009681584754134386
1354.3831309813863,1354.3831309813863,0.9993707938794527,0.0009678614412075636
1354.3900756346998,1354.3900756346998,1.0004826844069983,0.0009680419172798683
1354.3970202878268,1354.3970202878268,0.9995564396911014,0.0009675671752511002
1354.403964940861,1354.403964940861,1.0001267684315418,0.0009675242591352488
1354.4109095937088,1354.4109095937088,0.9990510620907553,0.0009670877243943112
1354.4178542464638,1354.4178542464638,1.0006815004728762,0.0009673794548761628
1354.4247988990323,1354.4247988990323,0.9996334806942295,0.0009673086971190663
1354.4317435516004,1354.4317435516004,0.9977603862857176,0.0009668144037394561
1354.4386882038898,1354.4386882038898,1.0023677418625696,0.0009676169377359859
1354.4456328561787,1354.4456328561787,1.0025003608766245,0.0009676412060389723
1354.4525775080024,1354.4525775080024,0.9991336849970487,0.0009666771699486686
1354.4595221601055,1354.4595221601055,0.9999256262425454,0.0009669347502517146
1354.4664668118357,1354.4664668118357,0.9986284150411258,0.00096638805578285
1354.473411463566,1354.473411463566,0.9988970344270282,0.0009661108960289762
1354.4803561151102,1354.4803561151102,1.0015323280536004,0.0009671172853129354
1354.4873007664678,1354.4873007664678,0.9995803738502363,0.0009663995281489169
1354.4942454178258,1354.4942454178258,0.9993223976911769,0.0009665187446491743
1354.5011900689974,1354.5011900689974,1.0002236582359187,0.0009667224388553901
1354.508134719889,1354.508134719889,1.0009002574665349,0.000966802831881311
1354.515079370875,1354.515079370875,1.000201657565982,0.0009664903665698015
1354.5220240215806,1354.5220240215806,0.9999213902947751,0.0009667000399277212
1354.5289686722867,1354.5289686722867,0.9998213779628387,0.0009665541327373772
1354.5359133228062,1354.5359133228062,1.0003110010929297,0.0009665971223206338
1354.5428579732325,1354.5428579732325,0.999190841794225,0.0009663810775543235
1354.5498026233795,1354.5498026233795,1.0002854609992544,0.0009667019551131771
1354.556747273713,1354.556747273713,1.0002678045331188,0.0009669488910646878
1354.5636919236736,1354.5636919236736,0.9994136305887078,0.000966430552394987
1354.5706365736346,1354.5706365736346,1.0000469142501536,0.0009665933606586078
1354.5775812231295,1354.5775812231295,0.998724060195799,0.0009661493838093518
1354.5845258729044,1354.5845258729044,1.0016101153246635,0.0009667845645047732
1354.5914705223997,1354.5914705223997,0.9995048869774923,0.0009663526545464429
1354.5984151718017,1354.5984151718017,1.0001191695007634,0.0009660226126460093
1354.6053598209244,1354.6053598209244,1.000383250001022,0.0009664548930200473
1354.6123044701399,1354.6123044701399,1.0002639188979354,0.0009661528868646294
1354.6192491191691,1354.6192491191691,1.0007570257452136,0.0009662844624271861
1354.6261937681058,1354.6261937681058,0.9999489244552642,0.0009662216377112395
1354.6331384168557,1354.6331384168557,0.9987770552749853,0.0009655407223102651
1354.6400830655125,1354.6400830655125,0.9988926745358053,0.0009656035138238022
1354.6470277140766,1354.6470277140766,1.0010508728327199,0.0009657518423189827
1354.653972362454,1354.653972362454,0.9999735876757427,0.000965700885607193
1354.6609170107388,1354.6609170107388,1.000178358963659,0.0009657342648761632
1354.6678616589302,1354.6678616589302,0.9993161727997457,0.0009654674053578445
1354.6748063070281,1354.6748063070281,1.0000139747512236,0.0009657012316567985
1354.681750954847,1354.681750954847,1.0013903832553446,0.0009658878406135118
1354.6886956028518,1354.6886956028518,1.0007813323733141,0.0009656988906291755
1354.6956402505775,1354.6956402505775,0.9982585930645618,0.0009646310073142872
1354.70258489821,1354.70258489821,0.9999311386499361,0.0009652650904198995
1354.709529545377,1354.709529545377,0.9991758816982497,0.0009648204298078826
1354.7164741929164,1354.7164741929164,0.9999704158655934,0.0009651127568241899
1354.7234188400832,1354.7234188400832,1.0012297401761465,0.0009657752528208907
1354.73036348725,1354.73036348725,1.0004137831445432,0.0009652827890610433
1354.737308134231,1354.737308134231,1.0006619430102959,0.0009647892307726034
1354.7442527810251,1354.7442527810251,0.99940853467103,0.0009645789345115334
1354.7511974279125,1354.7511974279125,0.9996786113300062,0.0009647615215297034
1354.7581420745207,1354.7581420745207,0.9990745879551337,0.0009641892576174574
1354.7650867212215,1354.7650867212215,0.999077409635477,0.000964345328436903
1354.7720313675504,1354.7720313675504,1.001192198115061,0.0009643919252953999
1354.778976013879,1354.778976013879,0.9999409003082921,0.0009645372566931688
1354.7859206600215,1354.7859206600215,1.0000297284470225,0.0009641569519277932
1354.7928653060706,1354.7928653060706,1.00074562113427,0.0009643573390254095
1354.799809952213,1354.799809952213,0.9995622272081837,0.000963736914560891
1354.8067545979832,1354.8067545979832,1.0008230213542437,0.0009643053770688551
1354.813699243753,1354.813699243753,0.9988815740023403,0.0009634910256577209
1354.8206438893367,1354.8206438893367,0.9998276142649842,0.0009638773480157056
1354.8275885351063,1354.8275885351063,1.0008919619224037,0.0009638987842292611
1354.8345331804107,1354.8345331804107,1.000319080675352,0.0009639413760695563
1354.841477825715,1354.841477825715,0.9994816183001072,0.0009638507972462882
1354.8484224710191,1354.8484224710191,1.0004055508080298,0.0009641709849766966
1354.8553671159507,1354.8553671159507,1.0004470802190784,0.0009641557050789496
1354.862311761069,1354.862311761069,0.9996818845430884,0.0009642532291483542
1354.8692564059074,1354.8692564059074,1.0003732477315797,0.0009644854495265652
1354.8762010506528,1354.8762010506528,0.9995777509389432,0.0009644162469216903
1354.8831456953983,1354.8831456953983,0.9991072245734383,0.0009640865679999474
1354.890090339864,1354.890090339864,0.9997587889076073,0.0009641695333865994
1354.89703498433,1354.89703498433,0.9995930017818424,0.0009640774223260276
1354.9039796287032,1354.9039796287032,0.999966828742512,0.0009642355261772851
1354.9109242729826,1354.9109242729826,1.0017751193436208,0.0009648241467998251
1354.9178689170762,1354.9178689170762,1.0003104096548263,0.0009641467207300889
1354.9248135610765,1354.9248135610765,1.0002202159221316,0.0009644065545961544
1354.931758204984,1354.931758204984,1.0006530766921773,0.0009640918136964114
1354.9398139917673,1354.9398139917673,0.9996557794842612,0.0009634613567955031
1354.9470364212073,1354.9470364212073,0.999545332776691,0.0009634588341958837
1354.9539810648353,1354.9539810648353,0.999716703727346,0.0009637355302493246
1354.96092570837,1354.96092570837,0.9998293276478115,0.0009638857803791542
1354.9678703516252,1354.9678703516252,1.0016263173626676,0.0009642970763992547
1354.9748149950665,1354.9748149950665,0.9997192355006564,0.0009636242423112578
1354.9817596380428,1354.9817596380428,0.9988127678036616,0.0009631553236711402
1354.9887042810187,1354.9887042810187,1.0001420310906,0.0009637765486047708
1354.9956489239944,1354.9956489239944,1.0000823043769316,0.0009633929985793961
1355.0025935669705,1355.0025935669705,0.9991218524968914,0.000963362555121448
1355.009538209853,1355.009538209853,1.0003098871696425,0.0009636499697548888
1355.0164828524569,1355.0164828524569,1.0003421549449223,0.0009631715096076285
1355.0234274950599,1355.0234274950599,1.0014928057060821,0.0009637554633417665
1355.0303721374771,1355.0303721374771,1.000559607559261,0.0009635876265253489
1355.0373167798014,1355.0373167798014,0.9989105352021614,0.0009632993801770566
1355.044261422032,1355.044261422032,0.9995055323885051,0.0009632789379063082
1355.051206064263,1355.051206064263,0.9996683340170585,0.0009635241618381798
1355.0581507063075,1355.0581507063075,0.9994198453974761,0.0009634594965283539
1355.065095348259,1355.065095348259,1.0009795788323799,0.0009636622099468412
1355.0720399901177,1355.0720399901177,1.0001228838857585,0.000963649518147513
1355.0789846318826,1355.0789846318826,0.9996988354737975,0.000963184966372628
1355.085929273461,1355.085929273461,0.9997249241149131,0.0009631499565285933
1355.0928739151334,1355.0928739151334,0.9983062497047644,0.0009627372305428666
1355.099818556526,1355.099818556526,1.0017551497934636,0.0009634772627200008
1355.1067631979186,1355.1067631979186,0.999683485516116,0.0009625571373101851
1355.1137078391253,1355.1137078391253,1.0002630015023244,0.0009629905681044239
1355.1206524803315,1355.1206524803315,1.0012121233759284,0.0009633889611212237
1355.1275971214448,1355.1275971214448,0.9987659394775413,0.0009627222773303544
1355.134541762372,1355.134541762372,1.0000180638955873,0.000962973714600193
1355.1414864032054,1355.1414864032054,1.000597729686974,0.0009632408583874804
1355.1484310438534,1355.1484310438534,0.9980405643824348,0.0009625196734467879
1355.155375684501,1355.155375684501,1.0003941862042958,0.0009629334719395488
1355.1623203251484,1355.1623203251484,1.0005897028917716,0.0009632436475044638
1355.1692649657962,1355.1692649657962,0.9994178380411732,0.0009627775793807433
1355.1762096060713,1355.1762096060713,0.9994895112251754,0.0009630405967050558
1355.1831542464397,1355.1831542464397,0.9994648291320161,0.0009628231759790145
1355.1900988866216,1355.1900988866216,1.0000253447006617,0.0009631034985069177
1355.19704352671,1355.19704352671,1.0011817895981316,0.0009631786750806106
1355.203988166706,1355.203988166706,1.000292264650684,0.0009629433431166543
1355.2109328066085,1355.2109328066085,1.0006120780714685,0.0009629546239271339
1355.2178774464178,1355.2178774464178,0.99854715320485,0.0009619680946285093
1355.2248220862275,1355.2248220862275,0.9996119765710135,0.0009627721228778301
1355.2317667258503,1355.2317667258503,1.0013057210917042,0.0009631991390726934
1355.2387113653806,1355.2387113653806,1.0001881259791703,0.0009628236255670669
1355.2456560049106,1355.2456560049106,0.9999007931216658,0.0009626461224568533
1355.252600644161,1355.252600644161,0.9993073868121737,0.0009626693029394804
1355.259545283412,1355.259545283412,0.9996124230901369,0.0009628216325356419
1355.2664899225695,1355.2664899225695,0.9997259158807648,0.0009625481981696618
1355.2734345617268,1355.2734345617268,0.9988224872333713,0.000962169499165263
1355.2803792006048,1355.2803792006048,1.0016580147195548,0.0009629259223525569
1355.287323839483,1355.287323839483,0.9992758228223678,0.0009622143828850361
1355.2942684783613,1355.2942684783613,1.0013318100844608,0.0009628982928597544
1355.3012131171458,1355.3012131171458,1.0005006768766245,0.0009626182822915996
1355.3081577556513,1355.3081577556513,1.000576228676885,0.0009625271840869611
1355.3151023942505,1355.3151023942505,1.0005758584494537,0.0009624902700073494
1355.3220470325696,1355.3220470325696,1.001138412454512,0.0009626622297566738
1355.328991670889,1355.328991670889,0.9984271229123987,0.0009621027596605532
1355.336491880274,1355.336491880274,0.9982689861386331,0.0009618556044535588
1355.3442698750982,1355.3442698750982,1.0002237931944649,0.0009624346250294731
1355.3512145130453,1355.3512145130453,1.0005402248106507,0.0009623708898719297
1355.358159150992,1355.358159150992,0.9984121805799019,0.0009618795211301268
1355.3651037889388,1355.3651037889388,1.0005122037474627,0.0009623912392651151
1355.3720484266992,1355.3720484266992,1.001770156459822,0.0009626614778592216
1355.3789930643666,1355.3789930643666,1.001174302504546,0.0009625165442107076
1355.385937702034,1355.385937702034,0.9980444837787253,0.0009615881731127012
1355.3928823395152,1355.3928823395152,1.002269499405501,0.0009627704196183562
1355.4006603333155,1355.4006603333155,0.9992865222880161,0.0009619797660400496
1355.4081605417684,1355.4081605417684,1.0003765709763233,0.0009621964757878818
1355.4151051789704,1355.4151051789704,0.9989567514040928,0.0009621471353778062
1355.422049816079,1355.422049816079,0.998180808400041,0.0009618255049346384
1355.4289944531874,1355.4289944531874,0.9996765869512727,0.0009620248372325644
1355.43593909011,1355.43593909011,1.001082771247121,0.0009626594705422961
1355.442883727032,1355.442883727032,0.9992759288755615,0.0009621046158404586
1355.4498283638613,1355.4498283638613,0.9996164772363059,0.0009621633893500487
1355.4567730005047,1355.4567730005047,1.0006943972340145,0.0009623016842288262
1355.4637176371475,1355.4637176371475,0.9989111303548022,0.0009617522130601347
1355.4706622736971,1355.4706622736971,1.0007365310810634,0.000962235949092723
1355.477606910154,1355.477606910154,1.0006473194089804,0.000962216869497713
1355.4845515464244,1355.4845515464244,1.0002779162891835,0.0009618782404847316
1355.491496182881,1355.491496182881,1.00050354619398,0.0009619840897061631
1355.498440818872,1355.498440818872,1.0006876152701363,0.0009617151442364651
1355.5053854548628,1355.5053854548628,0.9989623012794662,0.0009613558253888293
1355.5123300908538,1355.5123300908538,1.00005809033313,0.000961626595446501
1355.519274726845,1355.519274726845,0.9993021234363599,0.0009616657747725753
1355.5262193628357,1355.5262193628357,1.0015396739813665,0.000961973142499999
1355.5331639986405,1355.5331639986405,1.0002851993481972,0.0009620554389506569
1355.5401086343522,1355.5401086343522,0.9990373804080811,0.0009618279353411444
1355.5470532698773,1355.5470532698773,1.0009698687357877,0.0009620103204178689
1355.5539979054029,1355.5539979054029,0.9999900907298857,0.0009619307064505972
1355.560942540742,1355.560942540742,0.9992823023630317,0.000961619621203639
1355.5678871761743,1355.5678871761743,0.999394762758836,0.000961776691172408
1355.5748318113272,1355.5748318113272,0.9987163421700085,0.0009615999712675996
1355.5817764465733,1355.5817764465733,0.9991753685267369,0.0009619473987624912
1355.5887210816327,1355.5887210816327,1.0013020082085413,0.0009621238205325151
1355.5956657165993,1355.5956657165993,1.000597981109892,0.0009622146044892208
1355.602610351659,1355.602610351659,0.9996688275193911,0.000962132394230626
1355.6095549864392,1355.6095549864392,1.0004200153203007,0.0009622759020172049
1355.6164996211264,1355.6164996211264,0.9990646682603194,0.0009613945445030525
1355.6234442558132,1355.6234442558132,0.9995030943836284,0.0009616471441944432
1355.6303888904074,1355.6303888904074,1.0000964175052196,0.0009616949094304281
1355.6373335249086,1355.6373335249086,1.0023717430549208,0.0009623546771146596
1355.6442781593162,1355.6442781593162,0.9978084101163022,0.0009611729897254572
1355.651222793631,1355.651222793631,1.0004668554175324,0.0009619177784772005
1355.6581674278525,1355.6581674278525,0.9993652910275028,0.0009614586095574367
1355.6651120620738,1355.6651120620738,0.9997279639167317,0.0009614367102678092
1355.6720566962022,1355.6720566962022,1.0003146112590002,0.0009617832987921035
1355.679001330144,1355.679001330144,1.0014457538483943,0.0009617571533045202
1355.6859459640864,1355.6859459640864,0.9994862384423435,0.0009612008877439026
1355.692890597749,1355.692890597749,0.9994179273691003,0.0009612650587298378
1355.6998352318776,1355.6998352318776,1.0004731411312928,0.0009614979052115556
1355.7067798655403,1355.7067798655403,1.0006604287936518,0.0009616656991619166
1355.7137244989235,1355.7137244989235,0.9994362918051245,0.0009614093165567765
1355.7206691324,1355.7206691324,0.9994383119659824,0.0009612576310654528
1355.7276137659696,1355.7276137659696,0.9998678259032365,0.0009611981698882646
1355.7345583992596,1355.7345583992596,1.0006014279635989,0.000961737595598681
1355.7415030325496,1355.7415030325496,1.0004885972846256,0.0009619390811004014
1355.7495588070396,1355.7495588070396,1.0005719135967528,0.000961786962481565
1355.7567812253972,1355.7567812253972,0.9991123306573593,0.0009613648632446585
1355.7637258585012,1355.7637258585012,0.998971545039676,0.0009615640278248964
1355.7706704913257,1355.7706704913257,1.000175688233868,0.0009622449358274736
1355.777615124243,1355.777615124243,1.000645261560183,0.0009620940103930942
1355.7845597570677,1355.7845597570677,0.9989991033634364,0.0009613493714157142
1355.791504389706,1355.791504389706,1.000089487131066,0.0009618106098737509
1355.7984490223444,1355.7984490223444,1.0000769416017699,0.0009619529027324136
1355.8053936547963,1355.8053936547963,1.0011220493428836,0.0009618961534101367
1355.8123382873412,1355.8123382873412,1.000654538690472,0.0009618565904743604
1355.8192829197003,1355.8192829197003,0.9994024801294523,0.0009616243799658072
1355.826227551966,1355.826227551966,0.9995057473837295,0.0009614070172308056
1355.833172184232,1355.833172184232,0.9996429732671934,0.0009613695880945928
1355.8401168163114,1355.8401168163114,1.0002291744037872,0.0009612920344683945
1355.8470614484836,1355.8470614484836,0.9990531312047963,0.0009611150821999566
1355.854006080377,1355.854006080377,1.0012971217361155,0.0009617808897036449
1355.86095071227,1355.86095071227,0.9990619354661492,0.0009611582098012336
1355.8678953441631,1355.8678953441631,1.0005190573934124,0.0009615468562996692
1355.8748399758704,1355.8748399758704,1.0001681809794953,0.000961580623170345
1355.8817846074844,1355.8817846074844,0.999992182624586,0.0009614925846804356
1355.888729239098,1355.888729239098,1.0006185189037198,0.0009616979334129531
