time,time,flux,flux_err
1468.280644977277,1468.280644977277,1.000001659265943,4.9457574667741545e-05
1468.2889783635194,1468.2889783635194,0.9999916837988359,4.945655380576525e-05
1468.2966173006287,1468.2966173006287,0.9999424602339528,4.514480473275497e-05
1468.3035617889157,1468.3035617889157,0.9999863363920658,4.514611260243768e-05
1468.3105062768304,1468.3105062768304,1.0000535575277836,4.514823820002013e-05
1468.3174507648378,1468.3174507648378,1.0000169543197925,4.514612633439513e-05
1468.3243952527516,1468.3243952527516,1.0000376285747294,4.514603140078298e-05
1468.331339740387,1468.331339740387,1.0000119705605284,4.514622001596439e-05
1468.338284228022,1468.338284228022,1.000026623766594,4.5147173022084324e-05
1468.345228715471,1468.345228715471,0.9999255655285056,4.5143356212994266e-05
1468.3521732028262,1468.3521732028262,1.0000436853922081,4.514411156262983e-05
1468.3591176899954,1468.3591176899954,1.0000277087476779,4.514595511626115e-05
1468.3660621772585,1468.3660621772585,1.0000723598922794,4.514524700092528e-05
1468.3730066642415,1468.3730066642415,1.0000428984828509,4.514494368260829e-05
1468.3818956072068,1468.3818956072068,1.000011006184211,4.5143601557521526e-05
1468.3966179189588,1468.3966179189588,1.0000393416847844,4.514250458555713e-05
1468.4035624053836,1468.4035624053836,1.0000227585896408,4.514184502604805e-05
1468.4105068918082,1468.4105068918082,1.000015498181113,4.5136284853155166e-05
1468.4174513779524,1468.4174513779524,0.9998986898113389,4.514036429069413e-05
1468.424395864004,1468.424395864004,1.00003686166924,4.5142998241162266e-05
1468.4313403500564,1468.4313403500564,0.9999306996660773,4.5139517857055526e-05
1468.4382848359214,1468.4382848359214,1.0000636613226594,4.514155720532087e-05
1468.4452293216007,1468.4452293216007,1.0000184784555688,4.5142682363938475e-05
1468.452173807187,1468.452173807187,1.0000222218357817,4.514196075682195e-05
1468.459118292773,1468.459118292773,1.000102448047586,4.51432595731385e-05
1468.4660627780797,1468.4660627780797,0.9999414052915585,4.513936341490525e-05
1468.4730072633865,1468.4730072633865,0.9999774089270879,4.513664137213452e-05
1468.479951748414,1468.479951748414,0.9999070602670284,4.5140158895405004e-05
1468.4868962335338,1468.4868962335338,0.9999760379271985,4.513670714683188e-05
1468.4938407181894,1468.4938407181894,1.0000883863192416,4.514364594442192e-05
1468.5007852033098,1468.5007852033098,0.9999752389166143,4.514048703344046e-05
1468.5077296879645,1468.5077296879645,1.000128789904732,4.51449655556879e-05
1468.5146741721533,1468.5146741721533,1.0000147112607245,4.513851645475037e-05
1468.5216186568082,1468.5216186568082,0.9999839296976546,4.514047547943715e-05
1468.528563140997,1468.528563140997,0.999972127108264,4.513949999566267e-05
1468.5355076251865,1468.5355076251865,1.0000172983395532,4.513918335711942e-05
1468.5424521091893,1468.5424521091893,0.9999209480175686,4.5137414423984345e-05
1468.549396593192,1468.549396593192,0.9999769913162133,4.5138124817052805e-05
1468.5563410770087,1468.5563410770087,0.9999835602280959,4.513964389874849e-05
1468.5632855606393,1468.5632855606393,0.9999702315231808,4.5140416571296695e-05
1468.5702300442692,1468.5702300442692,1.0000847576454683,4.514226048395482e-05
1468.5771745276202,1468.5771745276202,1.0000818190160956,4.514214787843393e-05
1468.584119011064,1468.584119011064,0.9999802099714573,4.514060147150947e-05
1468.5910634943218,1468.5910634943218,1.0000111110102623,4.5141855658760216e-05
1468.5980079773935,1468.5980079773935,1.0001756304176266,4.51444256046554e-05
1468.604952460372,1468.604952460372,1.0000361709125398,4.514020832097454e-05
1468.611896943257,1468.611896943257,0.9998554715460639,4.513591785346673e-05
1468.618841425956,1468.618841425956,0.999946351015452,4.5138948538042023e-05
1468.625785908469,1468.625785908469,0.9999956126464833,4.513918730233939e-05
1468.6327303912615,1468.6327303912615,0.9999666420265368,4.514231351437284e-05
1468.6396748735874,1468.6396748735874,1.0000723796283935,4.514440811564525e-05
1468.6466193559138,1468.6466193559138,1.0000076659161568,4.51400484667727e-05
1468.6535638377748,1468.6535638377748,0.9999143511143883,4.514021425426481e-05
1468.660508319915,1468.660508319915,0.9999969838468553,4.5140586675175974e-05
1468.667452801869,1468.667452801869,1.0000020622656158,4.5140922512973826e-05
1468.6743972836364,1468.6743972836364,0.999994897420747,4.514053689282899e-05
1468.681341765311,1468.681341765311,1.0000191702065522,4.513793441795269e-05
1468.6882862468924,1468.6882862468924,1.000055209622509,4.514312081129081e-05
1468.6952307282875,1468.6952307282875,0.999940129221717,4.513792803402991e-05
1468.7021752094965,1468.7021752094965,1.000017310093852,4.513832909104345e-05
1468.7091196907982,1468.7091196907982,1.000065854619843,4.5139450867650726e-05
1468.716064171821,1468.716064171821,0.9999845496303701,4.513886835686211e-05
1468.7230086528436,1468.7230086528436,1.000036908172014,4.513879800008393e-05
1468.7299531337733,1468.7299531337733,0.9999751560374659,4.5138666009430244e-05
1468.7368976143305,1468.7368976143305,0.9998952950658188,4.5135984745947804e-05
1468.7438420950732,1468.7438420950732,1.000023675938841,4.5139374052461046e-05
1468.750786575444,1468.750786575444,0.9999912736487883,4.513687941164582e-05
1468.7577310559077,1468.7577310559077,1.0000311137410696,4.513909376690038e-05
1468.7646755360925,1468.7646755360925,0.9999768851323136,4.513722475017954e-05
1468.77162001637,1468.77162001637,0.999965178911963,4.5135781562006066e-05
1468.7785644963678,1468.7785644963678,1.0000811218542043,4.513931449205251e-05
1468.785508976273,1468.785508976273,1.000024807384817,4.51400071664863e-05
1468.7924534558988,1468.7924534558988,0.9999586343133122,4.513615867301267e-05
1468.7993979356174,1468.7993979356174,1.0000493885640664,4.513907392674658e-05
1468.8063424151499,1468.8063424151499,1.0000263214379774,4.514008837553362e-05
1468.813286894589,1468.813286894589,0.9999630201355275,4.5139377479684937e-05
1468.8202313738425,1468.8202313738425,0.9999432183330056,4.513901033917246e-05
1468.8271758530955,1468.8271758530955,1.0000418804671714,4.5138225257643376e-05
1468.8341203321627,1468.8341203321627,1.0000123032972872,4.5139791180565306e-05
1468.841064811136,1468.841064811136,0.9999482709886134,4.513739192125912e-05
1468.8480092899233,1468.8480092899233,1.0000288032136118,4.514163409679199e-05
1468.8549537687109,1468.8549537687109,0.9999887098661702,4.514078721575531e-05
1468.8618982473122,1468.8618982473122,1.0000325358459201,4.5142251826458404e-05
1468.8688427258205,1468.8688427258205,0.9999784445779067,4.514106550952117e-05
1468.875787204142,1468.875787204142,0.9999436790863936,4.5139911920589974e-05
1468.8827316824636,1468.8827316824636,1.000077077213947,4.514578443508653e-05
1468.889676160506,1468.889676160506,0.9999806263124509,4.514231274390453e-05
1468.896620638642,1468.896620638642,0.9999262851914252,4.5141724166435205e-05
1468.9035651163117,1468.9035651163117,1.0000573813458278,4.5141658750789744e-05
1468.9105095943537,1468.9105095943537,1.0000066048495746,4.5145041990937016e-05
1468.9174540720235,1468.9174540720235,0.9999627914373029,4.514291480701965e-05
1468.9243985493213,1468.9243985493213,1.0000152001642038,4.514429887550045e-05
1468.931343026898,1468.931343026898,0.9999811041275676,4.513910986733557e-05
1468.9382875041952,1468.9382875041952,0.9999970196433638,4.5140298284001426e-05
1468.9452319813995,1468.9452319813995,1.0000494028021834,4.514218924915803e-05
1468.952176458417,1468.952176458417,0.9999760617039802,4.513918738047119e-05
1468.9593987145422,1468.9593987145422,1.0000239621707738,4.514341246567455e-05
1468.9674543076148,1468.9674543076148,1.0000154861975843,4.5142927907541815e-05
1468.9743987843528,1468.9743987843528,1.0000574265393776,4.5144400617389536e-05
1468.9813432609985,1468.9813432609985,0.9999790299469437,4.514338095652185e-05
1468.9882877374575,1468.9882877374575,0.9999731880032348,4.514066053151859e-05
1468.9952322137306,1468.9952322137306,0.9999572485669711,4.5141446065207775e-05
1469.0021766900038,1469.0021766900038,1.0000815086557824,4.5142559770647155e-05
1469.00912116609,1469.00912116609,0.9999779690231623,4.5136731887513596e-05
1469.0160656421765,1469.0160656421765,0.9998788783798277,4.513822528027474e-05
1469.0230101179836,1469.0230101179836,0.9999952076105594,4.5141572015477554e-05
1469.0299545937912,1469.0299545937912,0.9999767537470063,4.514125647598125e-05
1469.0368990694121,1469.0368990694121,0.999964916359952,4.5137990206877985e-05
1469.0438435449398,1469.0438435449398,1.00010246127075,4.5140855258787705e-05
1469.0507880205605,1469.0507880205605,0.9999686359200414,4.513826107184613e-05
1469.0577324958092,1469.0577324958092,1.0001440761974958,4.5142905549996e-05
1469.0646769707785,1469.0646769707785,1.0000526901616547,4.514117545306692e-05
1469.071621446027,1469.071621446027,1.0000006916439776,4.5140641719700177e-05
1469.0785659209027,1469.0785659209027,0.9999418028258533,4.51396118411549e-05
1469.0855103957788,1469.0855103957788,0.9999112614602182,4.5139608090567994e-05
1469.092454870468,1469.092454870468,1.0000072955951735,4.514086266510871e-05
1469.0993993451577,1469.0993993451577,0.9999635697535695,4.51422963929573e-05
1469.1063438195679,1469.1063438195679,0.9999147769111442,4.5137829135942804e-05
1469.1132882938853,1469.1132882938853,1.0000808841410402,4.514166413883534e-05
1469.1202327682954,1469.1202327682954,1.0000683432285506,4.514290269772847e-05
1469.127177242333,1469.127177242333,1.0000385768163853,4.513867863680292e-05
1469.1341217163708,1469.1341217163708,0.999928581745633,4.5141964027452945e-05
1469.141066190222,1469.141066190222,1.0001322030727757,4.514042626179815e-05
1469.1480106640743,1469.1480106640743,1.0001264792344593,4.514372042973921e-05
1469.1549551377386,1469.1549551377386,0.9999333743543888,4.514088389236605e-05
1469.1618996113107,1469.1618996113107,0.9999926209127603,4.51420835170045e-05
1469.1688440847897,1469.1688440847897,0.9999491574142801,4.514188867659154e-05
1469.1757885580823,1469.1757885580823,1.0000487682275239,4.514011033183652e-05
1469.1827330312822,1469.1827330312822,0.9999964713230124,4.514202174807788e-05
1469.1896775045748,1469.1896775045748,0.9999971986444198,4.5140561843806564e-05
1469.1966219774945,1469.1966219774945,1.000076245224818,4.514170474037263e-05
1469.2035664501352,1469.2035664501352,0.9999627715878251,4.5140099719484967e-05
1469.2105109230556,1469.2105109230556,1.000000905951996,4.5141310705857575e-05
1469.2174553956033,1469.2174553956033,0.9999162314000571,4.514194938497407e-05
1469.2243998681504,1469.2243998681504,1.0000375152885763,4.514472953812562e-05
1469.2313443406051,1469.2313443406051,1.0000616437930996,4.514317096410277e-05
1469.2382888128732,1469.2382888128732,1.000037813701357,4.5144379800681655e-05
1469.2452332850485,1469.2452332850485,0.9999732487965913,4.5142563331602797e-05
1469.2521777571305,1469.2521777571305,1.000020408867026,4.51431388471062e-05
1469.259122229026,1469.259122229026,0.9999558551409813,4.514321300894882e-05
1469.2660667008283,1469.2660667008283,0.9999693260013398,4.514064426096409e-05
1469.2730111725377,1469.2730111725377,0.9999987483385888,4.5141046980204375e-05
1469.2799556441546,1469.2799556441546,0.9999054991941329,4.5139979312542886e-05
1469.2869001155843,1469.2869001155843,1.0000574012188865,4.514449127343929e-05
1469.2938445870143,1469.2938445870143,1.0000830923769297,4.514590995802354e-05
1469.3007890582578,1469.3007890582578,0.9999803892917265,4.514133152266438e-05
1469.3077335294083,1469.3077335294083,0.9999971865108517,4.514179111459829e-05
1469.314678000373,1469.314678000373,0.9999686828112353,4.5142169509552807e-05
1469.3216224713374,1469.3216224713374,0.9999363051040451,4.514150846285837e-05
1469.328566942022,1469.328566942022,1.0001457699833243,4.514613946563214e-05
1469.3355114127069,1469.3355114127069,0.9999844788218146,4.5143288346422177e-05
1469.3424558833917,1469.3424558833917,0.9999955414608847,4.5142627165892715e-05
1469.3494003537046,1469.3494003537046,0.9998884916901047,4.51414200251059e-05
1469.35634482411,1469.35634482411,1.0000150441997886,4.514490019883598e-05
1469.3632892943292,1469.3632892943292,1.0000606177373506,4.514730292627422e-05
1469.3702337644556,1469.3702337644556,0.9999599697591677,4.514355328127477e-05
1469.3771782343022,1469.3771782343022,1.0000399350294333,4.5144240121347787e-05
1469.3841227042421,1469.3841227042421,1.0000864731605574,4.5143119105895e-05
1469.391067173996,1469.391067173996,0.9998913666690175,4.5139313109735936e-05
1469.3980116436564,1469.3980116436564,0.9999948266545722,4.5143452899620914e-05
1469.4049561131305,1469.4049561131305,1.000032376366872,4.5142154424577925e-05
1469.4119005826044,1469.4119005826044,0.9999147802367834,4.513948779119711e-05
1469.4188450518925,1469.4188450518925,0.9999685297724754,4.514401065038444e-05
1469.4257895210874,1469.4257895210874,1.0000169866683242,4.5144121543106946e-05
1469.432733990096,1469.432733990096,1.0001033277032718,4.514664779260081e-05
1469.4396784590112,1469.4396784590112,1.0000509245098836,4.514269410563154e-05
1469.4466229278337,1469.4466229278337,1.0000067589042119,4.514192167016091e-05
1469.453567396656,1469.453567396656,0.9999625576248619,4.5141267235531156e-05
1469.4605118651057,1469.4605118651057,0.9998966253752775,4.5140259781465e-05
1469.4674563338351,1469.4674563338351,1.0001037098247807,4.514585240612705e-05
1469.474400802192,1469.474400802192,0.9999265326759431,4.5143297727035054e-05
1469.4813452702688,1469.4813452702688,1.0000135773767034,4.5142227830281654e-05
1469.488289738439,1469.488289738439,0.9999980926862856,4.514417598163572e-05
1469.495234206423,1469.495234206423,1.0000717766440246,4.514671852683061e-05
1469.5021786744078,1469.5021786744078,0.9999802825864827,4.514397242728358e-05
1469.5091231422055,1469.5091231422055,0.999960696429954,4.5143082173047126e-05
1469.516067609817,1469.516067609817,0.9999814390534685,4.514307947925625e-05
1469.5230120774281,1469.5230120774281,1.000005686304219,4.514492714337278e-05
1469.529956544947,1469.529956544947,0.9999902726970525,4.514417695719682e-05
1469.5369010121863,1469.5369010121863,1.000050055904581,4.51453543395123e-05
1469.5438454796117,1469.5438454796117,0.999928164889399,4.513984496251629e-05
1469.5507899465708,1469.5507899465708,1.000052117758432,4.514421979581126e-05
1469.5577344136236,1469.5577344136236,1.0000204680358626,4.514511054440673e-05
1469.564678880397,1469.564678880397,0.9999864817770305,4.5143495158727e-05
1469.5716233472638,1469.5716233472638,1.0000453938314293,4.514478064141313e-05
1469.578567813851,1469.578567813851,1.000029634882661,4.5144046445124466e-05
1469.5855122804376,1469.5855122804376,0.999997913776243,4.5144294036877806e-05
1469.5924567469324,1469.5924567469324,0.9999655498385838,4.51437243077861e-05
1469.5994012131462,1469.5994012131462,1.000038407493141,4.514359694424406e-05
1469.6063456795473,1469.6063456795473,0.9999607343841529,4.5144186596447956e-05
1469.6132901455758,1469.6132901455758,1.0000093693948962,4.514430608226348e-05
1469.620234611604,1469.620234611604,0.9999455359752105,4.514328478894341e-05
1469.6271790772598,1469.6271790772598,1.0000105613889567,4.514396489799413e-05
1469.6341235431019,1469.6341235431019,1.0001313620382308,4.5146750892967154e-05
1469.6410680086644,1469.6410680086644,1.000008177285864,4.514403271670106e-05
1469.6480124742272,1469.6480124742272,1.0000096317133333,4.514184744596119e-05
1469.6549569396038,1469.6549569396038,0.9999652879119214,4.5142225781885954e-05
1469.6619014047942,1469.6619014047942,1.0000091666975846,4.514288956722626e-05
1469.668845870077,1469.668845870077,0.9999106567376069,4.5143314078697076e-05
1469.6757903350808,1469.6757903350808,0.9999865419134316,4.514467748394676e-05
1469.682734800178,1469.682734800178,0.9999360345867616,4.5142419790701104e-05
1469.6896792649027,1469.6896792649027,1.0000163074695272,4.514503489895187e-05
1469.6966237296272,1469.6966237296272,1.000073956059902,4.5145925842527456e-05
1469.7035681941652,1469.7035681941652,1.0000321977685211,4.514385286144492e-05
1469.7105126587035,1469.7105126587035,1.0000824908592099,4.5146885203395764e-05
1469.717457123148,1469.717457123148,1.0000693186883158,4.5144221123961284e-05
1469.7244015873143,1469.7244015873143,0.9998556886342337,4.514198283637422e-05
1469.73134605148,1469.73134605148,0.9999282373859973,4.514432749264741e-05
1469.7382905154595,1469.7382905154595,1.0000167007037328,4.5144873298205405e-05
1469.7452349795317,1469.7452349795317,0.9999736431080221,4.5144673914393955e-05
1469.7521794433248,1469.7521794433248,1.000018775214875,4.514592810337329e-05
1469.7591239070252,1469.7591239070252,1.0000602240970924,4.514652061992772e-05
1469.766068370632,1469.766068370632,1.0000064372784334,4.5144397768279476e-05
1469.7730128339597,1469.7730128339597,0.9999741914513003,4.5143486069433683e-05
1469.7799572973804,1469.7799572973804,1.000022172536904,4.514634008004743e-05
1469.7869017606145,1469.7869017606145,0.9999672425092438,4.514448584178357e-05
1469.7938462237557,1469.7938462237557,1.000000941567805,4.514531798848201e-05
1469.8007906867106,1469.8007906867106,0.9999879363874926,4.5144697674002825e-05
1469.8077351496656,1469.8077351496656,0.9999908570481081,4.5145972330254874e-05
1469.8146796124347,1469.8146796124347,1.0000884014074052,4.514336266374612e-05
1469.8216240751099,1469.8216240751099,0.9999112285467435,4.5141321296273e-05
1469.828568537599,1469.828568537599,1.000009595915712,4.514591714483369e-05
1469.8355130000884,1469.8355130000884,0.9999763975203313,4.5143957827463724e-05
1469.8424574623914,1469.8424574623914,0.9999985813557624,4.514487605850478e-05
1469.8494019246948,1469.8494019246948,1.0001513202426275,4.514590560865702e-05
1469.8563463867188,1469.8563463867188,0.9999669441854377,4.5144895394658497e-05
1469.8632908487416,1469.8632908487416,1.0000339974769061,4.514609474032385e-05
1469.8702353106723,1469.8702353106723,0.9999534025147145,4.5146086955482885e-05
1469.8771797723234,1469.8771797723234,0.9999069116108299,4.51433467399819e-05
1469.8841242340677,1469.8841242340677,0.9999576100212767,4.514541452646193e-05
1469.8910686954398,1469.8910686954398,1.0000130173156099,4.514712602066426e-05
1469.8980131568114,1469.8980131568114,0.9999269736182954,4.514514368344209e-05
1469.9049576181828,1469.9049576181828,1.00010471147435,4.514937878242051e-05
1469.9119020795547,1469.9119020795547,1.0000471346677762,4.514811278073804e-05
1469.9188465405541,1469.9188465405541,1.0000785462427364,4.514801257055386e-05
1469.9257910015533,1469.9257910015533,0.9999719266804583,4.514748238568088e-05
1469.9327354624595,1469.9327354624595,0.9999499329799241,4.514590530896528e-05
1469.939679923179,1469.939679923179,0.9999143977084008,4.514509405741525e-05
1469.9466243838058,1469.9466243838058,1.0000808460742951,4.5148821214354326e-05
1469.9535688443393,1469.9535688443393,0.9999977826989965,4.514643104387596e-05
1469.9605133047796,1469.9605133047796,1.000029361261604,4.514764964649325e-05
1469.9674577650342,1469.9674577650342,0.9999571445221844,4.514491801531615e-05
1469.9744022252878,1469.9744022252878,0.9999814987881755,4.5146609114095816e-05
1469.9813466852625,1469.9813466852625,1.0001435509533194,4.514946464113485e-05
1469.9882911452373,1469.9882911452373,0.9999648336810345,4.514475274028889e-05
1469.9952356051188,1469.9952356051188,1.0000384684187793,4.514770080036916e-05
1470.0021800648146,1470.0021800648146,0.9999822142979153,4.514704586313717e-05
1470.0091245244166,1470.0091245244166,1.0000077008238148,4.5146458337962816e-05
1470.0160689839258,1470.0160689839258,0.9999758370022604,4.514728228489201e-05
1470.0230134433416,1470.0230134433416,1.000008022618852,4.5145992419653254e-05
1470.0299579025711,1470.0299579025711,1.000082955553502,4.514744012203763e-05
1470.0369023618944,1470.0369023618944,0.9999169737676985,4.514556147607091e-05
1470.0438468209375,1470.0438468209375,1.000024329851915,4.514665248209447e-05
1470.0507912797946,1470.0507912797946,0.9999855404073943,4.5145426985990485e-05
