time,time,flux,flux_err
1325.2991234128906,1325.2991234128906,1.0000577842798493,0.0004481177086933211
1325.3074566861703,1325.3074566861703,1.0000439393160938,0.0004482427397309614
1325.3150955202595,1325.3150955202595,0.9999361569068285,0.0004092610025664494
1325.322039915098,1325.322039915098,1.0006711216879023,0.0004094661556119634
1325.3289843101325,1325.3289843101325,0.9994761131578231,0.000409401209825205
1325.3359287053654,1325.3359287053654,0.9997590730128769,0.0004095659224114161
1325.342873100787,1325.342873100787,0.9997729039679657,0.00040970965001072663
1325.349817496401,1325.349817496401,1.0001157301955075,0.000409929156916019
1325.3567618922073,1325.3567618922073,1.000010240372158,0.0004100944943403663
1325.3637062882008,1325.3637062882008,0.9999870731139057,0.0004103028479990267
1325.370650684381,1325.370650684381,0.9997787577389907,0.0004104398939175415
1325.3775950807442,1325.3775950807442,1.0005085138108416,0.00041078982945013076
1325.3845394772911,1325.3845394772911,1.0000737473530363,0.00041090015694255657
1325.3914838740213,1325.3914838740213,0.9996607117323792,0.0004110813225951135
1325.3984282709314,1325.3984282709314,1.0004922487746217,0.00041130888012093966
1325.4053726680186,1325.4053726680186,0.9997828946657984,0.0004114495131790095
1325.4123170652822,1325.4123170652822,1.0000671858357277,0.0004117310489869328
1325.4192614627198,1325.4192614627198,0.9998082300045272,0.0004117461537077861
1325.4262058603315,1325.4262058603315,1.0000336615382346,0.0004119349109967808
1325.4331502581151,1325.4331502581151,0.9990222676929117,0.0004119352055242536
1325.4400946560695,1325.4400946560695,0.9997550762602065,0.0004122649290875631
1325.447039054192,1325.447039054192,1.0007139777178837,0.0004126276241549139
1325.453983452479,1325.453983452479,1.000091265710801,0.0004126505035108263
1325.4609278509333,1325.4609278509333,1.000454299128614,0.00041286481456485934
1325.4678722495505,1325.4678722495505,1.0001978824622326,0.0004130146967393273
1325.4748166483284,1325.4748166483284,1.000075569471896,0.0004131498770505839
1325.481761047269,1325.481761047269,1.0001106001592965,0.00041338490502574704
1325.4887054463668,1325.4887054463668,0.9997135383876421,0.0004135267304990173
1325.4956498456215,1325.4956498456215,0.9996933146418474,0.0004137393383354487
1325.5025942450334,1325.5025942450334,0.9997800362992887,0.000414004832106723
1325.5095386445971,1325.5095386445971,1.0000871642916889,0.00041434971413666246
1325.516483044316,1325.516483044316,1.0002621385352857,0.00041456229653382554
1325.5234274441832,1325.5234274441832,1.000076745186314,0.0004147018341660847
1325.5303718442005,1325.5303718442005,0.999931563648712,0.0004149391027119113
1325.537316244368,1325.537316244368,0.9998592837676711,0.0004151515845400644
1325.5442606446793,1325.5442606446793,0.9997180908389373,0.0004153267149740656
1325.5512050451375,1325.5512050451375,0.9996907815988209,0.0004155134791276424
1325.5581494457385,1325.5581494457385,1.000318033242949,0.0004158393187689593
1325.5650938464821,1325.5650938464821,1.0002182079428876,0.00041602356689322974
1325.5720382473621,1325.5720382473621,0.9999676939679265,0.0004162547656527178
1325.5789826483854,1325.5789826483854,1.0003864381273186,0.00041642014837110195
1325.5859270495478,1325.5859270495478,0.9998029917757993,0.00041652609710137665
1325.592871450844,1325.592871450844,1.0000023679628485,0.00041664067724207066
1325.599815852276,1325.599815852276,0.9998680227684076,0.0004168002762687034
1325.6067602538385,1325.6067602538385,1.0000940773927716,0.0004169275381506267
1325.6137046555382,1325.6137046555382,0.9997628046075497,0.00041695762708522926
1325.6206490573659,1325.6206490573659,0.9997709553577352,0.0004170809759836976
1325.6275934593218,1325.6275934593218,1.000835447426605,0.0004173116653737374
1325.6345378614083,1325.6345378614083,1.0004154042847009,0.00041734002149760864
1325.6414822636202,1325.6414822636202,1.00011339087697,0.0004172616395043304
1325.6484266659568,1325.6484266659568,1.0001392027174252,0.00041731268143058
1325.655371068419,1325.655371068419,0.9996129771562252,0.00041727634769248587
1325.6623154710046,1325.6623154710046,0.9996040861478395,0.00041727762235526056
1325.6692598737116,1325.6692598737116,0.9995406682684289,0.00041728403706388676
1325.6762042765372,1325.6762042765372,1.0002244384695294,0.00041741797505048735
1325.6831486794827,1325.6831486794827,1.000263828823018,0.00041738029547852757
1325.6900930825454,1325.6900930825454,0.9998282363707991,0.00041742810659732793
1325.6970374857235,1325.6970374857235,1.000454627224323,0.000417635082296127
1325.703981889018,1325.703981889018,1.0005431600025045,0.0004175976612599409
1325.710926292426,1325.710926292426,0.9995304248850342,0.00041755100078689567
1325.7178706959462,1325.7178706959462,1.000196287384736,0.0004177723300958073
1325.7248150995779,1325.7248150995779,0.9994570691276264,0.0004176707214601463
1325.7317595033207,1325.7317595033207,1.000200330245069,0.00041795044992834604
1325.738703907174,1325.738703907174,1.0005892939195387,0.00041811655563260075
1325.7456483111332,1325.7456483111332,0.9998910014714344,0.0004181668014205129
1325.7525927152005,1325.7525927152005,0.9992234751831504,0.00041815687227241124
1325.759537119374,1325.759537119374,0.9996093062459991,0.0004183756726044819
1325.7664815236503,1325.7664815236503,1.0002620164574125,0.0004185958600823822
1325.773425928032,1325.773425928032,1.0002805272129436,0.00041872031914203607
1325.7803703325167,1325.7803703325167,1.0002471484069932,0.00041887147103152907
1325.7873147371008,1325.7873147371008,0.9997210909663448,0.0004188356582140002
1325.7942591417848,1325.7942591417848,1.0003079175607283,0.00041900588409978754
1325.8012035465722,1325.8012035465722,0.9999305878399605,0.00041908280124236037
1325.8081479514547,1325.8081479514547,1.0002966016410872,0.00041914238609799874
1325.8150923564322,1325.8150923564322,1.0001412678493726,0.00041930990732428453
1325.8220367615097,1325.8220367615097,0.9995264465024425,0.00041919762688795296
1325.8289811666798,1325.8289811666798,1.000002170855541,0.00041929882029730027
1325.8359255719447,1325.8359255719447,0.9995293183277107,0.0004192762612712004
1325.8428699773056,1325.8428699773056,1.0000821815945553,0.0004194118075558326
1325.8498143827549,1325.8498143827549,1.000749482740374,0.0004194730600530303
1325.8567587882949,1325.8567587882949,0.9997647655353404,0.0004193317864925941
1325.8637031939293,1325.8637031939293,0.999429166986648,0.00041917439248996096
1325.8706475996494,1325.8706475996494,1.0002501466194933,0.00041916518218952604
1325.8775920054586,1325.8775920054586,1.0001782957560827,0.0004190542831771636
1325.8845364113536,1325.8845364113536,0.9998288217285853,0.00041887380427508013
1325.8914808173374,1325.8914808173374,1.0004435242918468,0.0004189059266109183
1325.8984252234036,1325.8984252234036,0.9993200215525281,0.00041867197929052163
1325.9053696295591,1325.9053696295591,1.0003512776844254,0.00041870104001964206
1325.9123140357929,1325.9123140357929,1.0000058659092688,0.00041860270637740347
1325.9192584421126,1325.9192584421126,1.0002197945196587,0.00041856265261730924
1325.926202848514,1325.926202848514,0.9998102905117481,0.00041849716384161366
1325.9331472549966,1325.9331472549966,1.0001935908809734,0.00041851310048531736
1325.9400916615596,1325.9400916615596,1.0002649796282181,0.0004184735537547944
1325.9470360681994,1325.9470360681994,0.9993209487807775,0.0004182691848274047
1325.9539804749195,1325.9539804749195,1.000647055746312,0.0004185082782599436
1325.9614804342657,1325.9614804342657,0.9997379321890444,0.0004182757611906073
1325.9692581699753,1325.9692581699753,0.999834397968792,0.0004182635793449388
1325.9762025769412,1325.9762025769412,0.9994156227875752,0.00041828018314107776
1325.9831469839826,1325.9831469839826,1.0000995130410817,0.00041834621968135654
1325.9900913910956,1325.9900913910956,0.9997666115063245,0.0004183759067425588
1325.9970357982857,1325.9970357982857,1.0006284316331553,0.0004185262238302934
1326.003980205544,1326.003980205544,1.0000403273092502,0.0004185666354988572
1326.0109246128766,1326.0109246128766,1.000632389379231,0.0004187953782791992
1326.0178690202806,1326.0178690202806,1.0000747917672792,0.00041878973840289593
1326.0248134277558,1326.0248134277558,1.0007497872189954,0.0004190489162006427
1326.031757835298,1326.031757835298,0.9990260013327059,0.00041884468281791384
1326.0387022429113,1326.0387022429113,0.9995002109469997,0.0004189065727496338
1326.0456466505934,1326.0456466505934,0.9993925885887048,0.00041883134590708427
1326.0525910583403,1326.0525910583403,0.9996003957067391,0.000418828253964847
1326.0595354661564,1326.0595354661564,0.9999820197219723,0.00041896421087895245
1326.066479874036,1326.066479874036,1.0005893277510758,0.0004191107009784953
1326.0734242819824,1326.0734242819824,1.0003307848896457,0.00041917074516976743
1326.0803686899953,1326.0803686899953,1.000851590672759,0.00041919214111756434
1326.0873130980697,1326.0873130980697,1.000004794791905,0.00041909156183568016
1326.0942575062074,1326.0942575062074,0.9996002161935801,0.00041901664925814803
1326.1012019144086,1326.1012019144086,0.9996148688976889,0.00041904069075602006
1326.1081463226724,1326.1081463226724,1.0000053134975062,0.0004191303097759519
1326.1150907309961,1326.1150907309961,1.0003411295552684,0.0004191333347796614
1326.1220351393806,1326.1220351393806,0.9995730761192322,0.0004190946129088573
1326.1289795478265,1326.1289795478265,0.9992752577132068,0.00041905800489106914
1326.1359239563321,1326.1359239563321,1.000272076651162,0.0004192123210443444
1326.1428683648944,1326.1428683648944,1.0005744453630505,0.00041927097821265445
1326.1498127735165,1326.1498127735165,1.0003202455579443,0.0004191770307756429
1326.1567571821947,1326.1567571821947,0.9998658089877207,0.000419172467212676
1326.1637015909307,1326.1637015909307,1.000650136571568,0.00041923255286688076
1326.1706459997238,1326.1706459997238,0.9999224236620569,0.0004190244759993757
1326.1775904085714,1326.1775904085714,0.9995535695445813,0.00041907952758153623
1326.1845348174743,1326.1845348174743,0.9993379032996934,0.0004189792756111864
1326.191479226432,1326.191479226432,0.9993342869388682,0.000418917040239683
1326.1984236354442,1326.1984236354442,1.0007112089176209,0.0004192364851075692
1326.2053680445097,1326.2053680445097,0.9999477819523683,0.0004190795605471799
1326.2123124536283,1326.2123124536283,1.0003917674762677,0.00041911115008162845
1326.2192568627986,1326.2192568627986,1.000240260049907,0.00041903283017498763
1326.2262012720198,1326.2262012720198,1.0002179684842905,0.0004190200347288834
1326.2331456812924,1326.2331456812924,0.9996965221550708,0.0004189940775900638
1326.2400900906184,1326.2400900906184,1.0003020250279548,0.00041905938264776195
1326.2470344999929,1326.2470344999929,0.9999045056917113,0.0004189254995908039
1326.2539789094167,1326.2539789094167,0.999721048816717,0.00041895407856914845
1326.2609233188914,1326.2609233188914,0.9995369215005236,0.0004189154545481682
1326.2678677284125,1326.2678677284125,1.0000876188404042,0.0004190588819844101
1326.274812137983,1326.274812137983,1.0007033923924844,0.00041911710816803463
1326.2817565476007,1326.2817565476007,1.0001624100131954,0.0004190093362936707
1326.2887009572685,1326.2887009572685,0.9996635724690627,0.0004189426739806168
1326.2956453669774,1326.2956453669774,0.9997392658424061,0.0004189419040104346
1326.302589776737,1326.302589776737,1.0000489988353731,0.0004189798522914119
1326.3095341865412,1326.3095341865412,0.9999523735559471,0.0004190499619520495
1326.3164785963884,1326.3164785963884,0.9995666059478424,0.0004189285440610438
1326.3234230062817,1326.3234230062817,1.0003645043356062,0.0004190526345198435
1326.3303674162212,1326.3303674162212,0.999766344886617,0.0004189567213836798
1326.3373118262018,1326.3373118262018,0.9999416880422789,0.00041910015632405894
1326.344256236228,1326.344256236228,1.0000050401550389,0.0004190593505419538
1326.353978410333,1326.353978410333,1.00054838091274,0.0004192645922806712
1326.3609228204607,1326.3609228204607,1.0003776017506172,0.0004192706101718605
1326.3678672306312,1326.3678672306312,0.9998597940736073,0.0004191514461532534
1326.37481164084,1326.37481164084,1.0002164420455244,0.00041929605348963
1326.3817560510938,1326.3817560510938,1.0000086045395604,0.0004193329038959014
1326.3887004613848,1326.3887004613848,0.9992121868851713,0.0004191961012318311
1326.3956448717163,1326.3956448717163,0.9997771583030512,0.0004193913655261162
1326.4025892820907,1326.4025892820907,1.000495417801872,0.00041955223477215393
1326.4095336924997,1326.4095336924997,0.9997048246050252,0.00041947467430191593
1326.4164781029508,1326.4164781029508,0.9999135829322189,0.00041954799195444267
1326.4234225134394,1326.4234225134394,1.000333837710573,0.0004196871728623739
1326.4303669239662,1326.4303669239662,0.999656859092868,0.00041957773762345854
1326.4373113345307,1326.4373113345307,1.0003377406360952,0.00041969817771807494
1326.444255745132,1326.444255745132,1.0002482466115896,0.00041979737673618215
1326.4512001557707,1326.4512001557707,0.9998156680390057,0.0004196697173074323
1326.4581445664458,1326.4581445664458,0.9999488273426771,0.00041979596891233924
1326.4650889771588,1326.4650889771588,1.000189967797948,0.0004198577690164336
1326.4720333879068,1326.4720333879068,0.9995172086893678,0.0004198607610347772
1326.4789777986882,1326.4789777986882,1.00035790722383,0.00042003735292850137
1326.485922209506,1326.485922209506,1.0000681782309926,0.00042003450536811146
1326.4928666203573,1326.4928666203573,0.999824628671389,0.00042004570747243157
1326.4998110312451,1326.4998110312451,0.999738812082615,0.00042012564382027707
1326.5067554421657,1326.5067554421657,1.0000564189538856,0.00042012120251137873
1326.5136998531207,1326.5136998531207,0.9998322936559667,0.0004201868436300773
1326.5206442641088,1326.5206442641088,1.0007118178140817,0.00042042954872220954
1326.5275886751292,1326.5275886751292,0.9998841396510638,0.00042042253954365514
1326.5345330861794,1326.5345330861794,1.0000688939119573,0.0004204405243508331
1326.5414774972664,1326.5414774972664,0.999925848745522,0.0004205091610046655
1326.548421908384,1326.548421908384,1.0008964655915622,0.00042079256859598233
1326.5553663195337,1326.5553663195337,0.9995870484592804,0.0004206708765767156
1326.5623107307124,1326.5623107307124,0.9998804512279247,0.0004207495955694084
1326.5692551419245,1326.5692551419245,0.9999935344090488,0.00042072595342033356
1326.5761995531632,1326.5761995531632,0.9999997129671293,0.000420829295393191
1326.5831439644357,1326.5831439644357,0.9992177115465992,0.0004206933895699578
1326.590088375737,1326.590088375737,1.0007606723134765,0.00042100932092364814
1326.5970327870687,1326.5970327870687,1.0001717533337693,0.00042090019214909463
1326.6039771984308,1326.6039771984308,1.0001815875365965,0.0004209531534347913
1326.610921609819,1326.610921609819,0.9997033371999366,0.000420867072591814
1326.617866021239,1326.617866021239,0.9994407677489436,0.0004208558885381114
1326.624810432684,1326.624810432684,0.999969449881639,0.0004209525436195814
1326.631754844161,1326.631754844161,1.000323789471811,0.0004209379130433354
1326.6386992556627,1326.6386992556627,1.0003468917608098,0.00042100766181586973
1326.6456436671922,1326.6456436671922,0.9998831990477622,0.00042086382525016936
1326.6525880787524,1326.6525880787524,1.0001839648628337,0.00042091053483606506
1326.6595324903358,1326.6595324903358,1.0005273119843223,0.00042088518634075535
1326.6664769019476,1326.6664769019476,0.9996914762904954,0.00042070980290652286
1326.6734213135865,1326.6734213135865,0.9998878209270876,0.00042066588140608383
1326.6803657252497,1326.6803657252497,0.9995880559820085,0.00042062620771706827
1326.6881434663455,1326.6881434663455,1.0001361164763873,0.0004206901509570079
1326.6956434310025,1326.6956434310025,0.9995407808493848,0.000420479417562838
1326.7025878427455,1326.7025878427455,0.9999530095233087,0.0004204989511590809
1326.709810030989,1326.709810030989,1.0001401592222767,0.00042039233221632624
1326.7178655486746,1326.7178655486746,1.0008502088843785,0.0004204930874165444
1326.724809960501,1326.724809960501,0.9999167795944072,0.0004202805961701215
1326.7317543723477,1326.7317543723477,0.9994092647098766,0.0004202195921562798
1326.7386987842206,1326.7386987842206,1.0002174052223232,0.0004202213545537369
1326.7456431961184,1326.7456431961184,0.9997912251021605,0.00042004077634217663
1326.7525876080367,1326.7525876080367,1.0004122974093128,0.00042014574371607
1326.7595320199816,1326.7595320199816,0.9994676645610129,0.0004199917450485365
1326.7664764319472,1326.7664764319472,1.000100554751317,0.0004200774017269245
1326.7734208439354,1326.7734208439354,1.0003646916756614,0.00042007114804994936
1326.7803652559478,1326.7803652559478,1.0005238906061467,0.00042016322883927363
1326.7873096679778,1326.7873096679778,0.9999067312354623,0.0004200652321683666
1326.7942540800325,1326.7942540800325,0.9994882933615653,0.0004199867194034965
1326.8011984921118,1326.8011984921118,0.9998860621003663,0.0004200336401671384
1326.808142904209,1326.808142904209,0.9992528448730422,0.00041997152166809923
1326.8150873163302,1326.8150873163302,0.999317005697252,0.000419998289543427
1326.8220317284681,1326.8220317284681,1.0001307901430923,0.00042009536811439253
1326.8289761406304,1326.8289761406304,1.0002864730860523,0.0004200092021576338
1326.8359205528118,1326.8359205528118,1.000363051155445,0.0004200945453455468
1326.8428649650136,1326.8428649650136,0.9998119203170326,0.00041999133523383395
1326.8498093772387,1326.8498093772387,1.0007745544818212,0.0004201367181237749
1326.8567537894794,1326.8567537894794,0.9998767130430863,0.00042000399260038975
1326.863698201741,1326.863698201741,1.000294248914082,0.0004198596168092362
1326.8706426140243,1326.8706426140243,0.9997205517098132,0.0004197524245791973
1326.8775870263248,1326.8775870263248,0.9997429512788131,0.0004197017059945729
1326.8845314386442,1326.8845314386442,1.000107504089754,0.0004196159434220779
1326.8914758509814,1326.8914758509814,0.9990213222587192,0.0004193858913187822
1326.8984202633387,1326.8984202633387,1.0000742754257828,0.0004193509074823065
1326.905364675718,1326.905364675718,0.9993831433704361,0.00041912652959771857
1326.91230908811,1326.91230908811,1.0012364666945397,0.0004192030152902746
1326.91925350052,1326.91925350052,1.00001434816907,0.00041884797713417606
1326.9261979129517,1326.9261979129517,0.9997058570956172,0.00041868988522428957
1326.9331423253982,1326.9331423253982,1.0007652819538049,0.00041871417869584386
1326.9400867378645,1326.9400867378645,0.9997638545832604,0.00041845872056628315
1326.9470311503455,1326.9470311503455,1.000365372959587,0.00041847918799458054
1326.9539755628455,1326.9539755628455,1.000050357537295,0.00041822328589199786
1326.960919975363,1326.960919975363,0.9997183448973714,0.0004181082638495573
1326.9678643878965,1326.9678643878965,0.999617764716248,0.00041804832429904765
1326.9748088004442,1326.9748088004442,0.9997541921522796,0.00041796222088974716
1326.9817532130103,1326.9817532130103,0.9998072785047153,0.0004178808023824291
1326.9886976255914,1326.9886976255914,0.9998247506342312,0.0004177627760672088
1326.9956420381907,1326.9956420381907,1.0001147107754191,0.00041782032457530143
1327.0025864508025,1327.0025864508025,1.0006707141057252,0.0004178794707405834
1327.0095308634304,1327.0095308634304,1.0001297798605537,0.0004176954994276531
1327.0164752760775,1327.0164752760775,0.999970093706392,0.0004176377800320778
1327.0234196887363,1327.0234196887363,0.9997323060521885,0.00041757218297269706
1327.0303641014111,1327.0303641014111,0.9997093823195611,0.0004176449889729367
1327.0373085141014,1327.0373085141014,0.9998921554916247,0.0004175311004154629
1327.0442529268053,1327.0442529268053,1.0002377691893494,0.0004176193987081971
1327.0511973395264,1327.0511973395264,0.9998858179126471,0.0004175221864916985
1327.058697305278,1327.058697305278,1.0001413179176364,0.0004176309451464952
