time,time,flux,flux_err
1385.9576248046806,1385.9576248046806,1.0018778445128607,0.002189787344636374
1385.9659580757468,1385.9659580757468,0.9984575766713051,0.0021886660469525405
1385.9735969074118,1385.9735969074118,1.0010249101652744,0.001998737475837539
1385.9805412997696,1385.9805412997696,0.9987212830842271,0.0019975935547376492
1385.9874856920349,1385.9874856920349,1.0000131690340663,0.001998351728467937
1385.9944300842067,1385.9944300842067,1.0017217556882003,0.0019989646117031658
1386.0013744762846,1386.0013744762846,0.9988126788730014,0.0019975936502981666
1386.0083188682709,1386.0083188682709,0.9996015644856255,0.0019978376440070796
1386.0152632600702,1386.0152632600702,0.9976816648549158,0.001998062575013056
1386.022207651869,1386.022207651869,1.0008351911128064,0.001998602362083833
1386.0291520435753,1386.0291520435753,0.9999887800193046,0.0019979828730379737
1386.0360964353752,1386.0360964353752,1.0007571139712599,0.001996535026030533
1386.0430408268944,1386.0430408268944,0.9995656835376746,0.0019962375080692404
1386.0499852181351,1386.0499852181351,0.9996434031222098,0.001996713928207847
1386.056929609469,1386.056929609469,1.0005616429427195,0.0019961921957488376
1386.0638740008023,1386.0638740008023,1.0010916853879135,0.0019960132204725556
1386.0708183919494,1386.0708183919494,1.0010403092957127,0.0019966987545451654
1386.0777627830043,1386.0777627830043,1.001441327736544,0.0019966760029745127
1386.084707173965,1386.084707173965,1.0028078987715072,0.0019969954067674484
1386.0916515649258,1386.0916515649258,0.9964882677828681,0.001995461356094888
1386.0985959556078,1386.0985959556078,1.000082101758817,0.0019978949865905853
1386.1055403463827,1386.1055403463827,0.9986848222010755,0.0019983895479326022
1386.1124847369706,1386.1124847369706,1.0007753438031692,0.001999839430603863
1386.11942912756,1386.11942912756,0.9992514331456105,0.0020000018220317608
1386.1263735180553,1386.1263735180553,0.9996959692322849,0.0020007567260581357
1386.133317908364,1386.133317908364,0.9975315620214007,0.002000229415091377
1386.1402622985802,1386.1402622985802,1.0013352576393904,0.0020013002954391576
1386.1472066887968,1386.1472066887968,0.9993097315891799,0.0020009678175456173
1386.1541510788259,1386.1541510788259,1.00169230295228,0.0019992635601448388
1386.161095468949,1386.161095468949,1.0004573262472332,0.0019983152203140804
1386.1680398586998,1386.1680398586998,0.9986463103155838,0.001998708182274181
1386.174984248636,1386.174984248636,0.9991798560091926,0.0019978821265514888
1386.181928638293,1386.181928638293,1.0014323026657381,0.0019980830516417984
1386.1888730279509,1386.1888730279509,1.0018929267230747,0.0019977741365209646
1386.1958174175147,1386.1958174175147,1.0015553404537811,0.001996911668139559
1386.2027618069853,1386.2027618069853,0.99758276668934,0.0019968709564450364
1386.2097061963636,1386.2097061963636,1.0004751536704628,0.001998494350028791
1386.2166505855553,1386.2166505855553,1.0005598620100158,0.0019976079370171438
1386.223594974746,1386.223594974746,0.9982216399270349,0.00199753941766327
1386.2305393639385,1386.2305393639385,1.0005588905135276,0.001998897653390795
1386.237483752944,1386.237483752944,1.0007085440093335,0.0019987557842346534
1386.2444281418552,1386.2444281418552,0.9994411596139106,0.001999316661204527
1386.2513725306749,1386.2513725306749,0.9984023457674823,0.00199917189873689
1386.258316919494,1386.258316919494,1.0013296452832379,0.0019997167059169246
1386.2652613081266,1386.2652613081266,0.9979164386232335,0.001998738420691399
1386.2722056966663,1386.2722056966663,1.0021289032450593,0.0019999254843908265
1386.2791500852063,1386.2791500852063,1.0009491254096188,0.0019997027803487014
1386.2860944735596,1386.2860944735596,0.9980190473940116,0.001997309165046082
1386.2930388619122,1386.2930388619122,0.9990084287455945,0.0019988784254318078
1386.2999832501732,1386.2999832501732,1.0019217048671798,0.001999762320050897
1386.3069276381543,1386.3069276381543,1.0002542548136852,0.001997526899324571
1386.3138720262273,1386.3138720262273,1.000308223158508,0.001998005309462439
1386.3208164142088,1386.3208164142088,1.0003984618277153,0.001998001305357224
1386.3277608020967,1386.3277608020967,0.9994833890568833,0.001997187838254186
1386.3347051898904,1386.3347051898904,0.9986815182236806,0.001997169205270763
1386.3416495776858,1386.3416495776858,1.000749710893244,0.0019976349068566487
1386.3485939652014,1386.3485939652014,0.9995432270765843,0.0019974729874172453
1386.3555383527162,1386.3555383527162,0.9994931049070243,0.0019961409692845736
1386.362482740138,1386.362482740138,1.0025038710764833,0.001999716719664302
1386.3699826784164,1386.3699826784164,0.9994604299403829,0.001998542003087161
1386.3777603921687,1386.3777603921687,0.9985169147004374,0.0019985672928462235
1386.384704779311,1386.384704779311,1.0012368636481028,0.0019987966554023016
1386.3916491664543,1386.3916491664543,1.0005730387094556,0.0019993822392510813
1386.3985935535043,1386.3985935535043,0.9995465948349176,0.0019988361832530793
1386.4055379403665,1386.4055379403665,0.99833681148838,0.0019985900996446733
1386.41248232723,1386.41248232723,1.0007734999800437,0.0019988873975877617
1386.4194267138146,1386.4194267138146,0.9984364489550994,0.0019986269886003464
1386.4263711004908,1386.4263711004908,1.00176910503714,0.0019996803927724424
1386.4333154869819,1386.4333154869819,1.0005721603513047,0.0020003255967905387
1386.4402598734728,1386.4402598734728,0.998096103175342,0.001998579160510498
1386.4472042598702,1386.4472042598702,1.0018302748111123,0.0019998957059370005
1386.4541486461746,1386.4541486461746,1.0009551159127983,0.002000365725178476
1386.4610930322933,1386.4610930322933,1.0000377282330133,0.0019990141232118746
1386.4680374184113,1386.4680374184113,0.9970164374232404,0.001997738397346761
1386.474981804436,1386.474981804436,0.9989973537912921,0.001997087497351703
1386.481926190368,1386.481926190368,0.999218698302234,0.0019965257495905653
1386.4888705763008,1386.4888705763008,0.9981242768950978,0.0019962618961701715
1386.4958149620456,1386.4958149620456,1.0007458416573773,0.0019982784929591913
1386.5027593476984,1386.5027593476984,1.0017442144710904,0.001999777154414887
1386.5097037332582,1386.5097037332582,1.0019167037377659,0.002001158056039082
1386.5166481188176,1386.5166481188176,1.0059610475326337,0.0020046740609256444
1386.5235925041902,1386.5235925041902,1.0007499541322733,0.002003827990554626
1386.5305368896572,1386.5305368896572,1.0035481568214037,0.002007189143887606
1386.537481274751,1386.537481274751,1.0029903242678944,0.0020094592948891924
1386.5444256600304,1386.5444256600304,0.9965534670672218,0.0020096864072808806
1386.5513700450313,1386.5513700450313,0.9919244768392732,0.002011016816228269
1386.5583144300322,1386.5583144300322,0.9944441278010313,0.0020130506100794975
1386.5655365903203,1386.5655365903203,0.9954601261058682,0.0020151505279674834
1386.573592076847,1386.573592076847,0.9974312931231599,0.00201567370468265
1386.5805364613825,1386.5805364613825,0.9935578383973638,0.002017338602868904
1386.587480845917,1386.587480845917,0.9984032486993073,0.0020200039398442214
1386.5944252304519,1386.5944252304519,0.9978865079640116,0.002017574949072644
1386.601369614987,1386.601369614987,0.9958394074762043,0.0020130461355722445
1386.6083139995221,1386.6083139995221,0.9948559531254224,0.002011042888659113
1386.6152583836842,1386.6152583836842,1.0009630919091084,0.0020104691875052023
1386.62220276794,1386.62220276794,1.0029140090117852,0.0020092327798517536
1386.6291471521029,1386.6291471521029,1.0041869702244122,0.0020083755016027534
1386.6360915360783,1386.6360915360783,1.002399619541054,0.0020051939273300783
1386.643035920055,1386.643035920055,1.0005957668583771,0.002002127396427707
1386.6499803039385,1386.6499803039385,0.9982848107394693,0.002000753488512102
1386.6569246877275,1386.6569246877275,1.0022126513278509,0.0020003725148988612
1386.6638690714249,1386.6638690714249,0.9988045423470702,0.0019978580431792518
1386.6708134550286,1386.6708134550286,0.997476302934824,0.001998082852564487
1386.677757838446,1386.677757838446,0.9993431628738172,0.0019985789874610795
1386.684702222049,1386.684702222049,1.000990952165007,0.0019999686215239195
1386.6916466053738,1386.6916466053738,1.0019799662190112,0.0020009203087892097
1386.6985909886052,1386.6985909886052,1.0002040730879218,0.002000380510913141
1386.7055353717421,1386.7055353717421,0.9974610101473915,0.0019997614803748394
1386.7124797548804,1386.7124797548804,0.9979379075336331,0.001999730743313434
1386.7194241379261,1386.7194241379261,1.0025885065553173,0.0020015623283054663
1386.7263685208775,1386.7263685208775,1.0011342773370324,0.002000338718835675
1386.7333129036426,1386.7333129036426,0.9991885169064869,0.0019988636432224914
1386.7402572864085,1386.7402572864085,0.9991168677184158,0.001999684175421553
1386.747201669174,1386.747201669174,1.0034668844441272,0.0020007164902837047
1386.7541460517527,1386.7541460517527,0.9985281716037768,0.0019994816227832234
1386.7610904341461,1386.7610904341461,0.9990027780616455,0.0019997718572040855
1386.7680348167255,1386.7680348167255,1.0010268654428813,0.0019998623629271144
1386.7752569743134,1386.7752569743134,1.002707358866109,0.001999837327838835
1386.783312457673,1386.783312457673,1.0002596414286515,0.001999179991242369
1386.79025683988,1386.79025683988,0.9993120094518666,0.001999257639139806
1386.7972012219936,1386.7972012219936,0.9991044243611708,0.0019986290856508345
1386.8041456038272,1386.8041456038272,0.9987602846360849,0.001998111503014352
1386.811089985848,1386.811089985848,1.0002848076221984,0.001998775052423344
1386.8180343676825,1386.8180343676825,1.0024384184970183,0.0019995048312011496
1386.8249787493294,1386.8249787493294,1.0022919709089302,0.001999629234330994
1386.831923131071,1386.831923131071,0.9975211444761627,0.0019985343963724186
1386.8388675126262,1386.8388675126262,1.001979252644904,0.0020007263170933277
1386.8458118940873,1386.8458118940873,1.0011229135421487,0.0020006374429436193
1386.8527562754557,1386.8527562754557,0.9992965573727121,0.002000428647697064
1386.8597006568243,1386.8597006568243,1.0024553420716726,0.0020014400885479166
1386.8666450380072,1386.8666450380072,0.9984073538608731,0.0020000684378360645
1386.8735894192816,1386.8735894192816,0.9971472637991079,0.0020005858711167977
1386.880533800278,1386.880533800278,0.9998163116038846,0.0020016104440327633
1386.8874781812742,1386.8874781812742,0.9997911769723977,0.0020021314375914738
1386.8944225621765,1386.8944225621765,1.0002740275289614,0.0020022339008911776
1386.901366942986,1386.901366942986,1.0011504140104772,0.002002130291623591
1386.9083113237034,1386.9083113237034,0.9994621340823595,0.0020026313657737966
1386.91525570442,1386.91525570442,1.0015627107058238,0.00200214569882158
1386.9222000848563,1386.9222000848563,1.0004637078479885,0.002000637938763271
1386.9291444654802,1386.9291444654802,0.9990044078571139,0.0020001224257379146
1386.9360888458245,1386.9360888458245,0.997374411181928,0.0019992687687551323
1386.943033226075,1386.943033226075,1.001252119950368,0.0020012563999111006
1386.9499776064192,1386.9499776064192,0.9985273216944499,0.0019993635857291302
1386.9569219864838,1386.9569219864838,1.0005231162383352,0.0020010676808449373
1386.963866366642,1386.963866366642,1.0002426033406002,0.0020003562874664703
1386.9708107465196,1386.9708107465196,1.0011186262865897,0.0020008262841658014
1386.9777551263985,1386.9777551263985,1.0024554309984317,0.0020012139559146495
1386.9855328318629,1386.9855328318629,1.0008949311414566,0.0020005509179585263
1386.9930327620375,1386.9930327620375,0.9981847953905376,0.0019991970875350997
1386.9999771415435,1386.9999771415435,1.0009194595062736,0.0020011877967853016
1387.0069215211429,1387.0069215211429,0.9980751748964545,0.002000022336963127
1387.0138659006482,1387.0138659006482,1.000419041346292,0.002001169907573259
1387.0208102800611,1387.0208102800611,0.999527158824308,0.0020015422736168395
1387.0277546593811,1387.0277546593811,0.9992878100343079,0.002001895284785271
1387.0346990386074,1387.0346990386074,0.9997830209090406,0.002001709256864143
1387.04164341774,1387.04164341774,1.000228581637289,0.0020018146142558096
1387.0485877967806,1387.0485877967806,1.0006816427297924,0.0020018856905725897
1387.0555321757283,1387.0555321757283,1.0004303998747444,0.0020022785740677292
1387.062476554675,1387.062476554675,0.9979835758595769,0.0020005056751683523
1387.0694209334356,1387.0694209334356,0.9985784301714448,0.0020011458392165367
1387.0763653121967,1387.0763653121967,1.003565631887977,0.0020029745851898985
1387.0833096908648,1387.0833096908648,1.0017403894360837,0.002002283929977706
1387.0902540694383,1387.0902540694383,0.9990122978834718,0.0020011116367937678
1387.0971984479202,1387.0971984479202,0.9988468314796227,0.0020000912861615613
1387.1041428264016,1387.1041428264016,0.9983879277360501,0.0020003839374409583
1387.111087204697,1387.111087204697,1.0014989674857708,0.0020016378003908835
1387.1180315828983,1387.1180315828983,0.9974586330730716,0.0020002658516058364
1387.1249759610077,1387.1249759610077,1.0016216128807276,0.002001443630474355
1387.131920339117,1387.131920339117,1.001527972960563,0.0020026110253603914
1387.138864717132,1387.138864717132,1.0026623981735865,0.0020033462507380406
1387.1458090950546,1387.1458090950546,0.9984406432481746,0.0020011694123676796
1387.1527534727916,1387.1527534727916,1.000000904689966,0.002001645363232047
1387.159697850714,1387.159697850714,0.9982847978705471,0.002000736262353393
1387.1666422283567,1387.1666422283567,0.9985293774338535,0.002000760542610153
1387.1735866059073,1387.1735866059073,0.9989334662866144,0.002001759796786597
1387.1805309834576,1387.1805309834576,1.0006540663981915,0.0020011023037010633
1387.187475360914,1387.187475360914,1.0030676038039021,0.002002672038186464
1387.1944197380915,1387.1944197380915,0.9986464163613201,0.0020015447305654385
1387.2013641154558,1387.2013641154558,1.0000834042674789,0.0020020344805113484
1387.2083084926335,1387.2083084926335,0.9986602119103116,0.0020018029174147622
1387.215252869717,1387.215252869717,1.0016642143056143,0.002002784049461379
1387.2221972467087,1387.2221972467087,0.9990625491338776,0.002001295224262278
1387.2291416237006,1387.2291416237006,1.0035804280158185,0.0020032318551628783
1387.236086000505,1387.236086000505,0.9980944194038,0.0020019226731910833
1387.2430303773103,1387.2430303773103,0.9989669348954754,0.002002031281215272
1387.249974754022,1387.249974754022,0.9995755699296568,0.002003172380122543
1387.256919130548,1387.256919130548,0.9999096343647391,0.002002562850914556
1387.2638635071662,1387.2638635071662,1.0004530240336262,0.002002747277463574
1387.270807883599,1387.270807883599,0.9985824902488065,0.0020025328686909356
1387.2777522599386,1387.2777522599386,1.000471307574894,0.0020018492998484737
1387.2846966362779,1387.2846966362779,1.001400714171278,0.00200327093971987
1387.2916410124303,1387.2916410124303,0.9989765351116127,0.0020012705621744215
1387.2985853885841,1387.2985853885841,0.9996276136817187,0.00200170811316242
1387.3055297646442,1387.3055297646442,0.9999223805936728,0.0020018462881998484
1387.31330746573,1387.31330746573,1.0034471194269101,0.0020027708458644515
1387.3219184917502,1387.3219184917502,1.0006164226279701,0.0020014869477163384
1387.3291406426335,1387.3291406426335,0.9966419554122254,0.002000833484738609
1387.3369183433474,1387.3369183433474,0.9995869973647323,0.002001864843950354
1387.3444182689589,1387.3444182689589,1.0000247645847105,0.0020028703012654834
1387.351640419563,1387.351640419563,1.000597628405775,0.0020030380649618427
1387.3596958949133,1387.3596958949133,0.9995519515607881,0.0020026608049553618
1387.3666402703207,1387.3666402703207,1.0009118494175706,0.002003719532804723
1387.3735846458223,1387.3735846458223,1.0011396492567237,0.0020034764065814904
1387.380529020765,1387.380529020765,1.000875745848386,0.0020035883008637837
1387.3874733957998,1387.3874733957998,0.9992598599691185,0.0020041185181397096
1387.3944177710216,1387.3944177710216,0.9988221730868947,0.0020037739576074165
1387.4013621457782,1387.4013621457782,1.0004758621261503,0.0020047743378746037
1387.408306520721,1387.408306520721,0.9987091160339343,0.0020046440755619034
1387.4152508954758,1387.4152508954758,1.0000269473304582,0.0020055884530543427
1387.4221952702324,1387.4221952702324,1.000094737648644,0.0020054114439616824
1387.429139644803,1387.429139644803,0.9998865750104695,0.002004815853546842
1387.4360840193724,1387.4360840193724,1.0011748062501558,0.002005715864089773
1387.443028393849,1387.443028393849,0.9985338657995261,0.0020043502590850163
1387.4499727681396,1387.4499727681396,0.9995010677403078,0.002003506328427943
1387.4569171424305,1387.4569171424305,0.9999250706369894,0.0020031626594756774
1387.463861516627,1387.463861516627,1.0005507745641986,0.002003669459418934
1387.4708058909177,1387.4708058909177,1.0008169839380328,0.0020042412752123177
1387.477750264929,1387.477750264929,1.002524787286791,0.002004534257558882
1387.484694638754,1387.484694638754,0.9989578141638876,0.002002458126910927
1387.4916390127642,1387.4916390127642,0.9994689795307604,0.0020034766151987835
1387.4985833865896,1387.4985833865896,1.0006739149571018,0.002003705101864001
1387.5055277603217,1387.5055277603217,0.9990082861963445,0.0020025802910849898
1387.5124721339598,1387.5124721339598,0.998316011862744,0.0020029398934044837
1387.519416507505,1387.519416507505,0.9988751941019048,0.002003413759210405
1387.5263608810506,1387.5263608810506,1.0020205421858226,0.00200376971609758
1387.5333052544104,1387.5333052544104,0.9990109107022533,0.0020031513196535184
1387.5402496277688,1387.5402496277688,1.0001403871863555,0.0020034397851488557
1387.547194001035,1387.547194001035,1.0009983128958688,0.0020033477926385723
1387.5541383741152,1387.5541383741152,1.001116938350757,0.002003209156457947
1387.5610827474743,1387.5610827474743,1.0021160544466556,0.0020030575210263765
1387.5680271203669,1387.5680271203669,0.9967304432302111,0.0020011515466617303
1387.574971493261,1387.574971493261,0.9989903918827154,0.0020022705768703982
1387.5819158661545,1387.5819158661545,0.9994477887136268,0.002002304333018453
1387.5888602390482,1387.5888602390482,1.002663889549006,0.0020044004756521673
1387.5958046115684,1387.5958046115684,1.0004665335898408,0.0020039131486851523
1387.602748984369,1387.602748984369,0.9990072854900921,0.0020027470115732055
1387.6096933567974,1387.6096933567974,0.9993699956042079,0.002003997808726774
1387.616637729318,1387.616637729318,1.0001315717352677,0.002003175973651139
1387.6235821017451,1387.6235821017451,0.9986809822537838,0.0020014563410007073
1387.6305264739876,1387.6305264739876,1.0010266074982823,0.0020010490268122056
1387.6374708462295,1387.6374708462295,0.9978455521480288,0.0020009834928491808
1387.644415218284,1387.644415218284,1.0008009712898234,0.002002195886575719
1387.6513595904325,1387.6513595904325,1.0005859213283461,0.0020013961447721287
1387.658303962488,1387.658303962488,0.9991290509143449,0.002001065972281784
1387.6652483343573,1387.6652483343573,1.0044592728049306,0.0020016510101785365
1387.6721927062258,1387.6721927062258,0.9994429116127976,0.0019999431053841854
1387.6791370779088,1387.6791370779088,1.0000442825773717,0.002000114246951489
1387.686081449685,1387.686081449685,0.998081677822461,0.0019994930173193827
1387.693025821181,1387.693025821181,0.9997030382204013,0.00200049176327552
1387.6999701927705,1387.6999701927705,0.996524121335684,0.0019997347200200136
1387.7069145642677,1387.7069145642677,1.0030188253070857,0.002002179087875499
1387.7138589355777,1387.7138589355777,0.9996317109592322,0.0020011123619003077
1387.7208033068878,1387.7208033068878,1.0005380459812145,0.002002772166656789
1387.7277476781046,1387.7277476781046,0.99962642973689,0.0020019821891071564
1387.7346920492291,1387.7346920492291,1.0008021566560406,0.0020041074584165202
1387.7416364202604,1387.7416364202604,0.999919396664567,0.0020041618863602937
