time,time,flux,flux_err
1354.1162627684546,1354.1162627684546,1.0000301782083778,0.00016910558272657203
1354.1250593200657,1354.1250593200657,1.0000492101567489,0.00016911579313131015
1354.1333928952843,1354.1333928952843,0.9998032842549619,0.00016910954531993428
1354.1417264705033,1354.1417264705033,1.0001152328032876,0.00016913138793024307
1354.1493655810984,1354.1493655810984,1.0000780577371982,0.0001543933735437563
1354.1563102270543,1354.1563102270543,1.0000520593650024,0.00015439504355959513
1354.1632548730104,1354.1632548730104,0.9998584601430164,0.00015437098548462845
1354.1701995189667,1354.1701995189667,1.0000737820724896,0.0001543922648309021
1354.1771441649228,1354.1771441649228,0.9998724276313707,0.00015438263598515126
1354.1840888107859,1354.1840888107859,1.0001019644719085,0.00015440032194160067
1354.1910334566953,1354.1910334566953,0.9999330356331202,0.00015438560786361463
1354.1979781025584,1354.1979781025584,1.0000897490171585,0.00015439463750884926
1354.204922748468,1354.204922748468,1.0000949493474027,0.00015439888420721142
1354.2118673942377,1354.2118673942377,0.9999222785368383,0.00015438838910054807
1354.2188120401008,1354.2188120401008,0.9999875050791791,0.000154384096913739
1354.2257566858705,1354.2257566858705,0.9999402585502792,0.00015438216714578712
1354.2327013316403,1354.2327013316403,0.9999465899317773,0.0001543797278862499
1354.2396459773638,1354.2396459773638,0.9999801244668479,0.00015438573013429492
1354.246590623134,1354.246590623134,0.9999205651356515,0.0001543803787766222
1354.2535352688105,1354.2535352688105,1.0001509407294564,0.00015439509863611565
1354.2604799145333,1354.2604799145333,1.0000428705077353,0.0001543788417429156
1354.2674245601174,1354.2674245601174,1.000010276664876,0.00015437850904691965
1354.2743692057938,1354.2743692057938,0.999978874309063,0.00015437588628759464
1354.2813138513777,1354.2813138513777,1.0001458084015329,0.00015438812084899806
1354.2882584969611,1354.2882584969611,0.99984733580579,0.00015435932541072554
1354.295203142498,1354.295203142498,1.000084030547731,0.00015437951516913644
1354.3021477879888,1354.3021477879888,0.9998552557876106,0.00015436077809134508
1354.3090924334792,1354.3090924334792,1.0000972371905958,0.00015437754179356203
1354.3160370789697,1354.3160370789697,0.99988118693731,0.00015435706061927605
1354.3229817243669,1354.3229817243669,1.0001075744145393,0.00015437283881847172
1354.3299263698107,1354.3299263698107,0.99989907812416,0.00015436026289423934
1354.3368710151153,1354.3368710151153,1.0000148292365125,0.00015437516229470537
1354.3438156604193,1354.3438156604193,1.0001737306485934,0.00015438755849289147
1354.3507603057233,1354.3507603057233,0.9999418614124762,0.00015435900434978208
1354.3577049510277,1354.3577049510277,0.9999786146594986,0.0001543667581396945
1354.364649596332,1354.364649596332,0.99995903018963,0.00015435781808443612
1354.3715942414497,1354.3715942414497,1.000039371634837,0.0001543587959827713
1354.3785388867077,1354.3785388867077,0.9999087290083233,0.00015435591668486068
1354.3854835317786,1354.3854835317786,0.9998622764707852,0.0001543541420714252
1354.3924281768968,1354.3924281768968,1.0002278174292532,0.0001543772310110551
1354.399372821968,1354.399372821968,0.9998503080673157,0.00015434054483296706
1354.4063174670396,1354.4063174670396,1.0002628939764455,0.00015438148042708284
1354.4132621119716,1354.4132621119716,0.999844277641761,0.00015435500043951099
1354.420206756996,1354.420206756996,0.9998967737031139,0.00015435008758585256
1354.4271514018812,1354.4271514018812,1.000112357160995,0.00015437139958476338
1354.4340960467662,1354.4340960467662,1.0001348755064632,0.0001543766724849352
1354.4410406916045,1354.4410406916045,0.9998607260834216,0.0001543584091531165
1354.4479853364433,1354.4479853364433,0.9997658448338586,0.00015434013784734982
1354.454929981189,1354.454929981189,1.000163195871366,0.00015436263374357648
1354.4618746259807,1354.4618746259807,1.0000971968477506,0.00015436373620637378
1354.4688192705867,1354.4688192705867,0.9998984991951512,0.00015435575964789218
1354.4757639152851,1354.4757639152851,1.0000005113195698,0.00015436545339192858
1354.482708559891,1354.482708559891,1.000063595295968,0.00015436830845066645
1354.4896532044968,1354.4896532044968,0.9999002592235551,0.00015435194645407765
1354.496597849056,1354.496597849056,1.000068986135743,0.00015436810855679132
1354.503542493522,1354.503542493522,1.0001888411323834,0.0001543797393109922
1354.5104871379879,1354.5104871379879,0.9999738676048537,0.00015436407293411303
1354.5174317824071,1354.5174317824071,0.9999748793475257,0.00015437276300924523
1354.5243764267802,1354.5243764267802,1.0000163919922755,0.00015437852526083138
1354.5313210711065,1354.5313210711065,0.9998170729276691,0.0001543615376721176
1354.5382657154328,1354.5382657154328,1.000002335514813,0.0001543668032639253
1354.54521035962,1354.54521035962,1.000081387071336,0.00015437634595515608
1354.5521550039455,1354.5521550039455,0.9999447442498424,0.0001543712107014141
1354.5590996480864,1354.5590996480864,0.9999447686905795,0.0001543700978829922
1354.5660442922258,1354.5660442922258,0.9998919566783808,0.00015435924367859766
1354.572988936226,1354.572988936226,1.0001609058538197,0.0001543846358778965
1354.5799335802733,1354.5799335802733,1.0000068891857516,0.00015435436752702606
1354.5868782242735,1354.5868782242735,1.0000873155096541,0.0001543714560698676
1354.5938228682273,1354.5938228682273,1.000056942648089,0.00015436878917521581
1354.6007675121348,1354.6007675121348,1.0000779940661708,0.00015436293982566462
1354.607712155995,1354.607712155995,0.9997408227004684,0.00015434640145687743
1354.6146567998094,1354.6146567998094,1.000109173667051,0.00015437600438547556
1354.6216014435765,1354.6216014435765,1.0000115026112648,0.00015436395288030702
1354.6285460872975,1354.6285460872975,1.000083141243619,0.00015436848218398845
1354.6354907309724,1354.6354907309724,1.0001624000498652,0.0001543769078818598
1354.6424353746002,1354.6424353746002,0.9999377523017563,0.00015436016697395
1354.6493800182277,1354.6493800182277,0.9999234585992974,0.00015435555895434037
1354.6563246617625,1354.6563246617625,1.0000384791603145,0.00015436504820136153
1354.6632693052507,1354.6632693052507,1.0002285539428957,0.00015438817588999163
1354.6702139486924,1354.6702139486924,0.9999174982677607,0.0001543669266298006
1354.6771585920874,1354.6771585920874,0.9998873396688042,0.0001543638687298952
1354.6841032354819,1354.6841032354819,0.9997913047058862,0.00015435418541241984
1354.6910478787843,1354.6910478787843,1.000068867633821,0.00015438161470235804
1354.6979925220858,1354.6979925220858,0.9999166814377268,0.0001543777176066556
1354.7049371652947,1354.7049371652947,1.0002189994206692,0.00015439201975950073
1354.711881808457,1354.711881808457,0.999891144819322,0.00015436870264177316
1354.718826451619,1354.718826451619,1.0002131414691984,0.0001543930939904747
1354.7257710946417,1354.7257710946417,1.0000241170333535,0.0001543820595466249
1354.7327157376174,1354.7327157376174,0.9999875174417742,0.00015437831425480124
1354.7396603805933,1354.7396603805933,0.9998907822911598,0.00015437352283791299
1354.7466050235691,1354.7466050235691,0.9999301833636638,0.00015438021526288764
1354.7535496665453,1354.7535496665453,0.9999228412083496,0.00015438068308461925
1354.7604943093345,1354.7604943093345,0.9999074666952584,0.0001543799203432337
1354.7674389521246,1354.7674389521246,1.0001396867891559,0.00015439174657053137
1354.7743835948672,1354.7743835948672,0.9999661161407778,0.0001543900125070764
1354.7813282376108,1354.7813282376108,1.000034469890244,0.0001543988668912401
1354.788272880214,1354.788272880214,1.0001140094458365,0.00015440109595239978
1354.7952175228636,1354.7952175228636,0.9999556597850379,0.00015438737068847113
1354.8021621653743,1354.8021621653743,1.000170208508824,0.00015439588885003062
1354.8091068078843,1354.8091068078843,0.9999024462869158,0.00015437211917932974
1354.8160514503481,1354.8160514503481,1.0000567933016602,0.00015437832469550854
1354.8229960927652,1354.8229960927652,0.9998379837471243,0.00015436356770669207
1354.8299407351358,1354.8299407351358,1.000008106085594,0.00015437786564255414
1354.8368853774136,1354.8368853774136,1.0000618217685096,0.00015439323568820724
1354.8438300196437,1354.8438300196437,1.0000344258811105,0.00015438443617524607
1354.8507746618748,1354.8507746618748,1.0001301831160785,0.00015438641273992455
1354.8577193040592,1354.8577193040592,1.0000854814764453,0.00015438854323871452
1354.8646639461504,1354.8646639461504,1.0001772872581387,0.00015438240433271396
1354.871608588195,1354.871608588195,0.9997945215835389,0.0001543627341046602
1354.8785532302395,1354.8785532302395,0.9999467178697994,0.0001543712811105876
1354.8854978721442,1354.8854978721442,0.9999930131126531,0.0001543742422452616
1354.8924425141427,1354.8924425141427,0.9999723332905457,0.00015438193636009475
1354.899387156001,1354.899387156001,0.9999424701796608,0.0001543831186078985
1354.906331797812,1354.906331797812,1.0001631660783852,0.00015439392880061
1354.9132764395777,1354.9132764395777,1.000086387906149,0.00015438939679775183
1354.920221081203,1354.920221081203,0.9995461919910301,0.00015434842294739925
1354.927165722875,1354.927165722875,1.0002017604520692,0.00015439777320521014
1354.9346659358457,1354.9346659358457,1.0000303255316645,0.00015437972235450776
1354.9424439343954,1354.9424439343954,0.9999100486947695,0.00015437107359136224
1354.9493885758814,1354.9493885758814,1.00016482287349,0.00015439055644109943
1354.9563332173207,1354.9563332173207,1.0000300147942351,0.00015437558998084895
1354.9632778587131,1354.9632778587131,1.000188212532573,0.000154396408286318
1354.9702225000594,1354.9702225000594,0.9999789227017534,0.00015437382693634212
1354.977167141359,1354.977167141359,0.9997974196663666,0.00015437027746278964
1354.9841117826586,1354.9841117826586,1.0000918468806372,0.000154382944374166
1354.9910564237716,1354.9910564237716,0.9995580146248152,0.00015434142685138855
1354.998001064978,1354.998001064978,0.9996500872672899,0.00015436199840847598
1355.0049457060445,1355.0049457060445,1.0002147322083268,0.00015438883356330954
1355.0118903471116,1355.0118903471116,1.0003412720690694,0.0001544069353571137
1355.018834988085,1355.018834988085,0.9998545317321282,0.00015437124203662302
1355.0257796290123,1355.0257796290123,0.99999716367456,0.00015437449859836416
1355.032724269939,1355.032724269939,1.0001408128173563,0.00015438849748574014
1355.0396689108195,1355.0396689108195,0.9998997755554153,0.00015436978224051104
1355.0466135515603,1355.0466135515603,0.9998641482015216,0.00015437070136993064
1355.0535581923475,1355.0535581923475,0.999769209157883,0.00015436149490766004
1355.060502832995,1355.060502832995,1.000243491935621,0.00015439024413514826
1355.067447473643,1355.067447473643,1.0000450817312672,0.00015437806432136225
1355.07439211429,1355.07439211429,1.0001051004958719,0.00015439368229125313
1355.081336754705,1355.081336754705,1.0003181961534913,0.00015440018527098314
1355.0882813952594,1355.0882813952594,0.9997105141580095,0.00015435364080892898
1355.0952260356742,1355.0952260356742,0.9996858302969235,0.00015435695257864378
1355.1021706760428,1355.1021706760428,1.0001762020234233,0.00015440237894472878
1355.109115316364,1355.109115316364,1.0002795954857435,0.00015440586663202912
1355.1160599566394,1355.1160599566394,0.9998732909145461,0.00015438468636509473
1355.1230045968678,1355.1230045968678,0.9999231077543161,0.00015439039495337813
1355.1299492370963,1355.1299492370963,0.9998551645153494,0.0001543806184254724
1355.1368938771388,1355.1368938771388,1.000087515953632,0.0001543874900274608
1355.1438385172273,1355.1438385172273,0.9998687329818005,0.0001543814681161631
1355.1507831572696,1355.1507831572696,0.9998771734424228,0.00015438358123538083
1355.1577277972651,1355.1577277972651,1.0001707380520417,0.00015440252715926377
1355.1646724372144,1355.1646724372144,1.0002006776646968,0.00015440039458020424
1355.1716170770706,1355.1716170770706,1.0000050785382983,0.0001543985615727122
1355.17856171688,1355.17856171688,1.000277192900898,0.0001544181450084269
1355.1855063566427,1355.1855063566427,0.9997424671765996,0.00015438033415078253
1355.1924509963594,1355.1924509963594,0.9999166091294314,0.0001543908343296162
1355.1993956359822,1355.1993956359822,1.0000560586400495,0.00015440139906214523
1355.2063402756517,1355.2063402756517,0.9997815300414633,0.00015438773168921193
1355.2132849151355,1355.2132849151355,0.9999269546238889,0.0001543914576079729
1355.220229554619,1355.220229554619,1.000172597236751,0.00015441190336817133
1355.2271741941022,1355.2271741941022,1.0001070160926515,0.00015440249343614726
1355.234118833586,1355.234118833586,0.9999003284354988,0.00015439816533458292
1355.2410634728828,1355.2410634728828,0.9999992843232668,0.00015440800620492313
1355.2480081122267,1355.2480081122267,1.0001699489578992,0.00015440827481759086
1355.2549527514773,1355.2549527514773,0.9999426203253557,0.00015439979815304983
1355.2618973906815,1355.2618973906815,0.9997953020699655,0.0001543884585805116
1355.2688420297923,1355.2688420297923,1.0002892738098363,0.00015442648557061268
1355.2757866689499,1355.2757866689499,0.999757846688117,0.00015438035705218678
1355.2827313079677,1355.2827313079677,0.9999400232529669,0.0001544010095270182
1355.289675946939,1355.289675946939,1.0000852007238314,0.0001544076983109635
1355.2966205858634,1355.2966205858634,1.0001183757421848,0.00015439952533987544
1355.3035652247418,1355.3035652247418,0.9999870063087805,0.00015439511220988577
1355.31050986362,1355.31050986362,1.000071903789567,0.00015439134637939335
1355.3174545024044,1355.3174545024044,0.9997814519970035,0.00015437828733093201
1355.3243991411432,1355.3243991411432,0.9998173364009333,0.0001543694302249112
1355.331343779835,1355.331343779835,1.0001738644745568,0.00015440573333772535
1355.3396773461905,1355.3396773461905,1.0002824793897074,0.000154403220102253
1355.3466219847428,1355.3466219847428,0.9999465769662681,0.0001543721294213917
1355.3535666232951,1355.3535666232951,0.9999350357842334,0.00015438372868969955
1355.3605112617074,1355.3605112617074,0.9999962327557151,0.0001543892648949074
1355.367455900213,1355.367455900213,1.0001502452074602,0.0001544022299594754
1355.3744005385788,1355.3744005385788,0.999862795790236,0.0001543807823884808
1355.3813451768983,1355.3813451768983,0.9998598974178163,0.0001543778980143966
1355.3882898151242,1355.3882898151242,1.0000783896125804,0.00015440032800988226
1355.3955122388365,1355.3955122388365,1.0000116466384295,0.00015439368129640382
1355.403568019101,1355.403568019101,0.9999185664339659,0.0001543808631131105
1355.4105126572338,1355.4105126572338,1.0000587603506041,0.0001544069967351136
1355.4174572952738,1355.4174572952738,1.0000213762779415,0.00015440393908989103
1355.4244019332207,1355.4244019332207,0.9999479856696164,0.0001543934170184631
1355.4313465711675,1355.4313465711675,1.0000105497826592,0.00015439704516377552
1355.4382912091144,1355.4382912091144,1.0000472207277111,0.00015438879122873174
1355.4452358469214,1355.4452358469214,1.0001958525832364,0.00015441211603801807
1355.4521804847282,1355.4521804847282,0.9998252503707861,0.0001543873541544214
1355.459125122489,1355.459125122489,0.9997786103218012,0.0001543701891465963
1355.4660697601562,1355.4660697601562,0.9998890936303673,0.00015439277315056017
1355.4730143977772,1355.4730143977772,1.0002710574948919,0.0001544031927295361
1355.4799590353516,1355.4799590353516,0.9999688892798559,0.0001543937212833015
1355.4869036729256,1355.4869036729256,1.0002453894165648,0.0001544153789734845
1355.493848310407,1355.493848310407,1.0002183147905426,0.00015441349673524422
1355.5007929478413,1355.5007929478413,1.0000465243173482,0.0001543913784962535
1355.5077375852293,1355.5077375852293,0.9999324601549251,0.00015438677117019173
1355.5146822225706,1355.5146822225706,1.0001069447324524,0.00015439342857165317
1355.5216268597724,1355.5216268597724,1.0000654280206869,0.00015440509020797248
1355.5285714970673,1355.5285714970673,0.9995620076558769,0.00015437203556420838
1355.5355161343155,1355.5355161343155,1.000020144853467,0.00015440669572625132
1355.5424607713776,1355.5424607713776,0.9999048398380106,0.000154381017379108
1355.549405408393,1355.549405408393,1.0000138526564961,0.0001543957631130782
1355.556350045455,1355.556350045455,1.0001266088906642,0.00015440149717688194
1355.563294682424,1355.563294682424,1.0000205756627656,0.0001543972007742493
1355.5702393193465,1355.5702393193465,1.000133488339618,0.00015441516308908245
1355.577183956222,1355.577183956222,1.000201153288113,0.00015441855541363042
1355.5841285930048,1355.5841285930048,0.9999676099951902,0.00015439571431909407
1355.5910732297873,1355.5910732297873,0.9998121297911992,0.00015439154581929732
1355.5980178665236,1355.5980178665236,0.9999555332099256,0.00015439910432542536
1355.604962503166,1355.604962503166,1.0000256916506527,0.00015441444920838535
1355.6119071398093,1355.6119071398093,0.9999204611923327,0.00015439759719087682
1355.6188517764058,1355.6188517764058,1.0000841031406256,0.00015441165689625408
1355.6257964128622,1355.6257964128622,0.999812364123582,0.00015438701426331405
1355.6327410493654,1355.6327410493654,0.9999650130795829,0.00015439208891140018
1355.6396856857293,1355.6396856857293,1.0003067969691455,0.0001544190142451486
1355.6466303221391,1355.6466303221391,0.9999174526331931,0.00015438854631671231
1355.6535749584098,1355.6535749584098,0.9998990917492401,0.0001543761077215443
1355.66051959468,1355.66051959468,0.9998458721492494,0.00015437573191854264
1355.667464230904,1355.667464230904,1.0000480234295623,0.00015438962813090376
1355.6744088670348,1355.6744088670348,1.0003376307708816,0.0001544086710319538
1355.6813535031652,1355.6813535031652,0.9999944120832691,0.0001543891413681466
1355.6882981391561,1355.6882981391561,0.9998784788974076,0.00015437748967195812
1355.6952427751476,1355.6952427751476,0.9999800094973456,0.00015439342496163582
1355.7021874111383,1355.7021874111383,1.000140805191874,0.000154416071268333
1355.7091320471293,1355.7091320471293,0.9999261776864113,0.00015439141145343678
1355.716076682888,1355.716076682888,1.0001895369536613,0.00015442176677726518
1355.7230213187388,1355.7230213187388,0.9999521719030978,0.00015440093327594083
1355.7299659544974,1355.7299659544974,0.9997658586380705,0.0001543802691929534
1355.7369105902085,1355.7369105902085,1.0001767105650003,0.000154414687329597
1355.7444107967062,1355.7444107967062,0.9999850743342149,0.00015440164540664396
1355.752188788551,1355.752188788551,0.9998278435880781,0.0001543843945374038
1355.7591334240758,1355.7591334240758,1.0001861911804606,0.00015442366658917735
1355.7660780596013,1355.7660780596013,1.0001320426759253,0.00015441986507332156
1355.773022695034,1355.773022695034,1.0002514598619219,0.0001544279211814348
1355.779967330419,1355.779967330419,1.0001991972543043,0.0001544281655503173
1355.7869119657582,1355.7869119657582,0.9998490526086081,0.00015439145403267705
1355.7938566010046,1355.7938566010046,0.9999234914194137,0.00015439754058672902
1355.8008012362504,1355.8008012362504,1.0000289419619899,0.00015440999194944415
1355.8077458714497,1355.8077458714497,0.9999866591529522,0.0001544080900400127
1355.8146905066026,1355.8146905066026,0.99982480273334,0.00015439646658988414
1355.821635141662,1355.821635141662,1.000006198988853,0.00015440268689311223
1355.828579776722,1355.828579776722,1.0001792503009042,0.00015442878696290515
1355.8355244116888,1355.8355244116888,0.9999065593896633,0.00015439818525651554
1355.842469046655,1355.842469046655,1.000154918496109,0.00015441627126596677
1355.849413681575,1355.849413681575,1.0000881828526045,0.00015441459875710706
1355.856358316402,1355.856358316402,0.999797554595266,0.00015439335744219358
1355.863302951182,1355.863302951182,0.9999075862499683,0.00015440012710371656
1355.870247585823,1355.870247585823,1.0001795909410989,0.00015442357529740037
1355.8771922205565,1355.8771922205565,1.0000216729344467,0.00015441060127051825
