time,time,flux,flux_err
1354.1136206932206,1354.1136206932206,11007.228,13.557057
1354.1150095929452,1354.1150095929452,11007.862,13.561096
1354.1177873919269,1354.1177873919269,10991.1045,13.556435
1354.1191762916515,1354.1191762916515,11000.571,13.564384
1354.12056519091,1354.12056519091,10992.007,13.555052
1354.1219540906338,1354.1219540906338,10984.471,13.551165
1354.1233429903577,1354.1233429903577,11026.354,13.566907
1354.1247318896167,1354.1247318896167,11010.502,13.564127
1354.1261207893415,1354.1261207893415,10986.705,13.556946
1354.1275096890654,1354.1275096890654,11012.298,13.563666
1354.1288985883239,1354.1288985883239,11031.298,13.572568
1354.1302874880475,1354.1302874880475,10981.277,13.551279
1354.131676387306,1354.131676387306,10995.968,13.560085
1354.1330652870306,1354.1330652870306,10995.1455,13.557439
1354.1344541867547,1354.1344541867547,11030.14,13.565686
1354.1358430860128,1354.1358430860128,10987.545,13.552926
1354.1372319857376,1354.1372319857376,11002.574,13.557656
1354.1386208849958,1354.1386208849958,11018.019,13.5639
1354.1400097847204,1354.1400097847204,10999.967,13.558757
1354.1413986839789,1354.1413986839789,10971.892,13.552626
1354.142787583702,1354.142787583702,10997.162,13.555597
1354.144176482961,1354.144176482961,10992.44,13.558063
1354.1455653826856,1354.1455653826856,11008.432,13.557911
1354.146954281944,1354.146954281944,11025.33,13.5673485
1354.148343181668,1354.148343181668,11000.162,13.5537
1354.1497320809262,1354.1497320809262,10999.311,13.5564575
1354.1511209806508,1354.1511209806508,11004.328,13.556796
1354.15250987991,1354.15250987991,10985.381,13.555198
1354.1538987791678,1354.1538987791678,10991.793,13.552963
1354.1552876788915,1354.1552876788915,11017.844,13.566697
1354.1566765781504,1354.1566765781504,11023.256,13.568685
1354.1580654778752,1354.1580654778752,11016.609,13.564178
1354.1594543771334,1354.1594543771334,11000.426,13.554698
1354.1608432768567,1354.1608432768567,10998.398,13.554752
1354.1622321761156,1354.1622321761156,11025.139,13.566011
1354.1636210753747,1354.1636210753747,11041.226,13.571948
1354.1650099750987,1354.1650099750987,11004.921,13.5596
1354.1663988743571,1354.1663988743571,10999.409,13.556022
1354.1677877736151,1354.1677877736151,11011.917,13.563793
1354.16917667334,1354.16917667334,11000.518,13.55656
1354.1705655725991,1354.1705655725991,10999.701,13.561872
1354.1719544718567,1354.1719544718567,10999.86,13.558085
1354.1733433715806,1354.1733433715806,11002.705,13.559322
1354.1747322708397,1354.1747322708397,11014.489,13.558013
1354.1761211700978,1354.1761211700978,11011.481,13.557803
1354.1775100693567,1354.1775100693567,11009.236,13.560752
1354.1788989690808,1354.1788989690808,10986.712,13.556649
1354.1802878683393,1354.1802878683393,10999.59,13.559322
1354.1816767675982,1354.1816767675982,11003.065,13.55753
1354.1830656668562,1354.1830656668562,11007.101,13.561152
1354.184454566581,1354.184454566581,11020.861,13.567038
1354.1858434658393,1354.1858434658393,11020.561,13.564368
1354.1872323650969,1354.1872323650969,11010.4375,13.559172
1354.188621264356,1354.188621264356,11034.071,13.564898
1354.1900101640808,1354.1900101640808,10981.509,13.549774
1354.1913990633388,1354.1913990633388,11005.097,13.556767
1354.1927879625973,1354.1927879625973,10987.822,13.548731
1354.1941768618556,1354.1941768618556,11010.863,13.558143
1354.1955657611147,1354.1955657611147,11040.22,13.570982
1354.1969546603736,1354.1969546603736,11025.902,13.563167
1354.1983435596312,1354.1983435596312,11014.797,13.556398
1354.1997324593551,1354.1997324593551,11024.902,13.569831
1354.2011213586143,1354.2011213586143,10977.557,13.543786
1354.2025102578732,1354.2025102578732,11042.267,13.572268
1354.2038991571312,1354.2038991571312,10998.871,13.554901
1354.205288056389,1354.205288056389,11038.844,13.572308
1354.2066769556482,1354.2066769556482,10998.79,13.551552
1354.208065854907,1354.208065854907,11000.617,13.548297
1354.209454754165,1354.209454754165,11021.624,13.555128
1354.2108436534236,1354.2108436534236,11017.021,13.555787
1354.212232552682,1354.212232552682,11010.667,13.558882
1354.213621451941,1354.213621451941,10979.503,13.537342
1354.2150103512,1354.2150103512,11000.533,13.554901
1354.2163992504575,1354.2163992504575,10997.24,13.550199
1354.217788149716,1354.217788149716,11011.352,13.562742
1354.2191770489749,1354.2191770489749,11038.816,13.567338
1354.2205659482331,1354.2205659482331,10988.46,13.5501795
1354.2219548474923,1354.2219548474923,10998.909,13.550564
1354.2233437467503,1354.2233437467503,11002.196,13.553975
1354.2247326460088,1354.2247326460088,10997.856,13.55285
1354.2261215452677,1354.2261215452677,11011.718,13.562396
1354.2275104445262,1354.2275104445262,11021.886,13.56776
1354.2288993437842,1354.2288993437842,10990.858,13.550828
1354.2302882430427,1354.2302882430427,10986.4375,13.548799
1354.231677142301,1354.231677142301,11012.346,13.558707
1354.23306604156,1354.23306604156,10991.983,13.545173
1354.234454940819,1354.234454940819,10995.587,13.553376
1354.2358438400772,1354.2358438400772,10991.434,13.552111
1354.2372327393355,1354.2372327393355,10991.743,13.54809
1354.238621638594,1354.238621638594,11020.613,13.564048
1354.2400105373872,1354.2400105373872,11008.334,13.556517
1354.2413994366461,1354.2413994366461,11003.774,13.564414
1354.2427883359037,1354.2427883359037,11017.933,13.563867
1354.2441772351622,1354.2441772351622,11014.456,13.557924
1354.245566134421,1354.245566134421,10997.713,13.552539
1354.24695503368,1354.24695503368,10991.945,13.549804
1354.2483439329385,1354.2483439329385,10995.446,13.552101
1354.2497328317304,1354.2497328317304,11023.054,13.564433
1354.2511217309893,1354.2511217309893,10998.414,13.55125
1354.2525106302483,1354.2525106302483,10998.548,13.554134
1354.2538995295067,1354.2538995295067,11005.371,13.55677
1354.255288428299,1354.255288428299,10996.005,13.552624
1354.2566773275576,1354.2566773275576,11015.6,13.55903
1354.2580662268165,1354.2580662268165,11019.975,13.563496
1354.2594551260754,1354.2594551260754,11011.233,13.563313
1354.260844025333,1354.260844025333,11010.161,13.5502405
1354.2622329241258,1354.2622329241258,11002.554,13.554049
1354.2636218233847,1354.2636218233847,11015.015,13.557471
1354.2650107226432,1354.2650107226432,10993.812,13.546352
1354.2663996214364,1354.2663996214364,11011.479,13.560503
1354.2677885206947,1354.2677885206947,11002.389,13.547567
1354.269177419953,1354.269177419953,11015.468,13.562174
1354.2705663187462,1354.2705663187462,11012.168,13.557876
1354.2719552180047,1354.2719552180047,11001.543,13.552141
1354.2733441172632,1354.2733441172632,10999.337,13.550222
1354.2747330160555,1354.2747330160555,11016.819,13.56277
1354.276121915314,1354.276121915314,11003.235,13.555975
1354.277510814573,1354.277510814573,10993.57,13.549733
1354.2788997133662,1354.2788997133662,10994.762,13.553616
1354.2802886126246,1354.2802886126246,11017.308,13.563298
1354.2816775118827,1354.2816775118827,10995.074,13.550546
1354.2830664106755,1354.2830664106755,11009.802,13.557042
1354.2844553099344,1354.2844553099344,11009.732,13.560622
1354.2858442087272,1354.2858442087272,11013.339,13.559374
1354.2872331079848,1354.2872331079848,10992.116,13.548042
1354.288622006778,1354.288622006778,11002.823,13.55525
1354.290010906037,1354.290010906037,11009.288,13.559298
1354.291399805296,1354.291399805296,11023.632,13.5629635
1354.2927887040887,1354.2927887040887,10988.193,13.543843
1354.2941776033463,1354.2941776033463,11003.588,13.548401
1354.2955665021395,1354.2955665021395,11002.347,13.556328
1354.2969554013985,1354.2969554013985,11003.917,13.550612
1354.2983443001906,1354.2983443001906,11002.154,13.552363
1354.2997331994488,1354.2997331994488,11000.08,13.551326
1354.301122098242,1354.301122098242,10994.935,13.553752
1354.302510997501,1354.302510997501,11009.988,13.555117
1354.3038998962945,1354.3038998962945,10984.783,13.547668
1354.3052887955523,1354.3052887955523,10995.871,13.55392
1354.3066776943447,1354.3066776943447,10971.931,13.541534
1354.3080665936036,1354.3080665936036,11020.863,13.557487
1354.3094554923964,1354.3094554923964,11012.053,13.559048
1354.3108443911897,1354.3108443911897,10987.184,13.548026
1354.3122332904481,1354.3122332904481,11017.871,13.567536
1354.3136221892407,1354.3136221892407,10982.358,13.540864
1354.3150110885,1354.3150110885,10991.407,13.551423
1354.3163999872922,1354.3163999872922,11016.301,13.560402
1354.317788886085,1354.317788886085,10998.03,13.555018
1354.3191777853433,1354.3191777853433,10992.023,13.54706
1354.3205666841359,1354.3205666841359,10992.096,13.539167
1354.3219555833948,1354.3219555833948,11007.57,13.557145
1354.323344482188,1354.323344482188,11000.672,13.554534
1354.324733380981,1354.324733380981,11002.811,13.556181
1354.3261222802394,1354.3261222802394,11005.31,13.555357
1354.3275111790317,1354.3275111790317,11018.979,13.556412
1354.328900077825,1354.328900077825,11011.23,13.5522785
1354.3302889770835,1354.3302889770835,11012.461,13.55922
1354.3316778758754,1354.3316778758754,10990.975,13.547901
1354.3330667746686,1354.3330667746686,11007.323,13.555104
1354.3344556734621,1354.3344556734621,11014.096,13.552643
1354.3358445727213,1354.3358445727213,11023.495,13.554045
1354.3372334715136,1354.3372334715136,11016.999,13.55914
1354.3386223703055,1354.3386223703055,11002.017,13.551194
1354.3400112695647,1354.3400112695647,11012.287,13.556918
1354.3414001683582,1354.3414001683582,10984.208,13.541127
1354.34278906715,1354.34278906715,11011.414,13.560331
1354.3441779659424,1354.3441779659424,10992.506,13.54845
1354.3455668652016,1354.3455668652016,11001.306,13.553364
1354.346955763995,1354.346955763995,11002.077,13.552323
1354.3483446627883,1354.3483446627883,11000.572,13.551323
1354.3497335615803,1354.3497335615803,11008.087,13.549601
1354.3511224603728,1354.3511224603728,10972.955,13.543439
1354.352511359632,1354.352511359632,11018.813,13.557304
1354.3539002584243,1354.3539002584243,11004.005,13.548226
1354.3552891572172,1354.3552891572172,11002.411,13.554082
1354.3566780560097,1354.3566780560097,10986.674,13.546809
1354.3580669548032,1354.3580669548032,11029.553,13.560676
1354.3594558535965,1354.3594558535965,11025.399,13.560042
1354.360844752389,1354.360844752389,11001.414,13.553319
1354.3622336516473,1354.3622336516473,10999.626,13.550522
1354.3636225504401,1354.3636225504401,11024.405,13.56049
1354.3650114492325,1354.3650114492325,11002.754,13.551493
1354.366400348026,1354.366400348026,11028.864,13.563816
1354.3677892468195,1354.3677892468195,11001.715,13.551056
1354.3691781456118,1354.3691781456118,10991.016,13.550094
1354.3705670444047,1354.3705670444047,11020.132,13.563631
1354.3719559431972,1354.3719559431972,11015.03,13.561729
1354.3733448419907,1354.3733448419907,10999.266,13.547293
1354.374733740783,1354.374733740783,10986.563,13.546518
1354.376122639575,1354.376122639575,11024.643,13.558219
1354.3775115383685,1354.3775115383685,11001.125,13.550941
1354.378900437162,1354.378900437162,11011.278,13.554874
1354.3802893359552,1354.3802893359552,10991.458,13.550018
1354.3816782347478,1354.3816782347478,11020.269,13.559427
1354.38306713354,1354.38306713354,11014.588,13.559275
1354.3844560323332,1354.3844560323332,10984.477,13.547438
1354.3858449311265,1354.3858449311265,10988.367,13.547116
1354.3872338299184,1354.3872338299184,10976.434,13.541049
1354.3886227287112,1354.3886227287112,11016.305,13.559299
1354.3900116275045,1354.3900116275045,10993.461,13.549422
1354.3914005262977,1354.3914005262977,11009.662,13.5604105
1354.392789425091,1354.392789425091,11010.812,13.554452
1354.394178323883,1354.394178323883,11010.004,13.554315
1354.3955672226757,1354.3955672226757,11004.94,13.552013
1354.396956121469,1354.396956121469,11001.274,13.551591
1354.3983450202618,1354.3983450202618,11019.398,13.559715
1354.3997339190541,1354.3997339190541,11005.967,13.55495
1354.401122817847,1354.401122817847,10995.997,13.550705
1354.4025117166402,1354.4025117166402,10998.845,13.55904
1354.4039006154335,1354.4039006154335,11000.259,13.546819
1354.4052895137606,1354.4052895137606,11013.538,13.557848
1354.406678412553,1354.406678412553,11010.608,13.5499935
1354.4080673113458,1354.4080673113458,10984.051,13.546227
1354.4094562101386,1354.4094562101386,10990.118,13.544119
1354.4108451089319,1354.4108451089319,10990.977,13.551216
1354.4122340077251,1354.4122340077251,10989.942,13.546576
1354.4136229065177,1354.4136229065177,11020.44,13.560879
1354.4150118048447,1354.4150118048447,10997.287,13.551628
1354.4164007036375,1354.4164007036375,11014.843,13.554468
1354.4177896024307,1354.4177896024307,11002.301,13.550287
1354.4191785012235,1354.4191785012235,11004.014,13.549142
1354.4205674000154,1354.4205674000154,11013.166,13.559339
1354.421956298343,1354.421956298343,11008.056,13.554676
1354.4233451971363,1354.4233451971363,11018.468,13.55843
1354.4247340959296,1354.4247340959296,11009.167,13.5525255
1354.4261229947224,1354.4261229947224,11006.901,13.553501
1354.4275118930486,1354.4275118930486,10988.885,13.542884
1354.428900791842,1354.428900791842,11010.172,13.550312
1354.4302896906352,1354.4302896906352,11007.462,13.553434
1354.431678589427,1354.431678589427,11014.79,13.556386
1354.4330674877542,1354.4330674877542,10978.745,13.536541
1354.4344563865475,1354.4344563865475,10999.445,13.550212
1354.4358452853407,1354.4358452853407,11011.648,13.553907
1354.437234184134,1354.437234184134,11001.36,13.553252
1354.4386230824603,1354.4386230824603,11017.683,13.558385
1354.440011981253,1354.440011981253,10978.709,13.54241
1354.4414008800463,1354.4414008800463,11004.475,13.547678
1354.4427897783735,1354.4427897783735,11014.861,13.552875
1354.444178677166,1354.444178677166,10988.372,13.55247
1354.4455675759586,1354.4455675759586,10996.718,13.551302
1354.4469564742863,1354.4469564742863,11016.125,13.553485
1354.4483453730795,1354.4483453730795,11009.3125,13.550564
1354.4497342714067,1354.4497342714067,11020.051,13.553385
1354.4511231701995,1354.4511231701995,11011.6875,13.554863
1354.4525120689918,1354.4525120689918,10994.049,13.548698
1354.453900967319,1354.453900967319,11005.649,13.549387
1354.4552898661123,1354.4552898661123,10981.958,13.547287
1354.4566787644399,1354.4566787644399,10991.236,13.547031
1354.4580676632327,1354.4580676632327,10985.149,13.541146
1354.4594565620253,1354.4594565620253,11035.179,13.566046
1354.4608454603522,1354.4608454603522,11006.619,13.552993
1354.4622343591454,1354.4622343591454,11007.095,13.557279
1354.4636232574726,1354.4636232574726,11007.551,13.558549
1354.4650121562645,1354.4650121562645,11008.277,13.554244
1354.466401054592,1354.466401054592,11004.649,13.552957
1354.4677899533854,1354.4677899533854,10998.42,13.553477
1354.469178851713,1354.469178851713,11001.336,13.551526
1354.4705677505058,1354.4705677505058,11008.379,13.55407
1354.471956648832,1354.471956648832,11036.882,13.565039
1354.4733455476253,1354.4733455476253,10998.306,13.547449
1354.474734445953,1354.474734445953,10987.26,13.543858
1354.476123344745,1354.476123344745,11001.1875,13.55119
1354.477512243072,1354.477512243072,11012.564,13.551908
1354.4789011418652,1354.4789011418652,11008.454,13.553414
1354.480290040193,1354.480290040193,10979.63,13.539297
1354.4816789389865,1354.4816789389865,11016.375,13.554557
1354.4830678373128,1354.4830678373128,11004.036,13.551609
1354.4844567361051,1354.4844567361051,10982.631,13.541852
1354.485845634433,1354.485845634433,11018.055,13.559044
1354.4872345332255,1354.4872345332255,11000.408,13.553419
1354.4886234315527,1354.4886234315527,11009.837,13.555563
1354.4900123298794,1354.4900123298794,11029.118,13.552823
1354.4914012286729,1354.4914012286729,10996.241,13.547019
1354.4927901270007,1354.4927901270007,11028.452,13.563863
1354.494179025793,1354.494179025793,11005.141,13.547702
1354.4955679241202,1354.4955679241202,11004.103,13.5520115
1354.4969568224471,1354.4969568224471,11015.455,13.551338
1354.4983457212397,1354.4983457212397,10994.031,13.552733
1354.4997346195673,1354.4997346195673,11012.747,13.54979
1354.5011235178952,1354.5011235178952,10993.147,13.546916
1354.5025124166878,1354.5025124166878,11003.899,13.54978
1354.503901315015,1354.503901315015,10998.805,13.550553
1354.5052902133416,1354.5052902133416,11012.154,13.55392
1354.506679112135,1354.506679112135,10975.204,13.542576
1354.508068010462,1354.508068010462,11021.138,13.557323
1354.5094569087883,1354.5094569087883,10991.814,13.54285
1354.5108458075815,1354.5108458075815,10991.241,13.543861
1354.5122347059093,1354.5122347059093,11015.209,13.550122
1354.5136236042372,1354.5136236042372,11009.44,13.558238
1354.5150125025639,1354.5150125025639,10998.671,13.548709
1354.5164014013558,1354.5164014013558,11009.252,13.5548725
1354.5177902996836,1354.5177902996836,10990.556,13.550524
1354.5191791980114,1354.5191791980114,11020.978,13.55525
1354.5205680963377,1354.5205680963377,10982.159,13.539069
1354.5219569951303,1354.5219569951303,11001.068,13.54733
1354.523345893458,1354.523345893458,10974.345,13.539048
1354.5247347917857,1354.5247347917857,11003.256,13.554509
1354.5261236901133,1354.5261236901133,11017.958,13.552597
1354.5275125889052,1354.5275125889052,11012.985,13.5494375
1354.5289014872324,1354.5289014872324,11004.741,13.551693
1354.53029038556,1354.53029038556,11008.2295,13.551222
1354.5316792838867,1354.5316792838867,11002.919,13.547445
1354.5330681822138,1354.5330681822138,11018.836,13.5602045
1354.534457080541,1354.534457080541,10999.426,13.550472
1354.5358459793342,1354.5358459793342,10997.255,13.547087
1354.5372348776618,1354.5372348776618,10992.247,13.547449
1354.538623775989,1354.538623775989,11006.599,13.55367
1354.5400126743157,1354.5400126743157,10991.682,13.547774
1354.5414015726428,1354.5414015726428,10987.153,13.548753
1354.5427904709697,1354.5427904709697,11000.583,13.554227
1354.5441793692976,1354.5441793692976,11010.324,13.554398
1354.5455682680908,1354.5455682680908,11004.999,13.557352
1354.5469571664175,1354.5469571664175,10999.446,13.551783
1354.5483460647447,1354.5483460647447,10980.502,13.541221
1354.5497349630718,1354.5497349630718,10992.029,13.550908
1354.5511238613994,1354.5511238613994,11016.935,13.557307
1354.5525127597261,1354.5525127597261,11015.208,13.561553
1354.5539016580526,1354.5539016580526,10995.916,13.546382
1354.5552905563804,1354.5552905563804,11002.52,13.550211
1354.556679454708,1354.556679454708,11001.485,13.548311
1354.5580683530357,1354.5580683530357,11018.706,13.555387
1354.5594572513628,1354.5594572513628,11009.438,13.556267
1354.560846149689,1354.560846149689,11001.729,13.546798
1354.5622350480166,1354.5622350480166,11016.647,13.556138
1354.5636239463443,1354.5636239463443,10994.77,13.551519
1354.5650128446705,1354.5650128446705,11000.065,13.554809
1354.5664017429976,1354.5664017429976,10982.154,13.541185
1354.5677906413252,1354.5677906413252,11006.743,13.552085
1354.5691795396529,1354.5691795396529,10990.775,13.547737
1354.5705684379805,1354.5705684379805,11010.064,13.549449
1354.5719573363067,1354.5719573363067,10985.422,13.53969
1354.5733462346338,1354.5733462346338,11015.966,13.558748
1354.5747351329615,1354.5747351329615,11015.773,13.552624
1354.5761240312886,1354.5761240312886,11003.6875,13.549996
1354.5775129296153,1354.5775129296153,11004.624,13.550201
1354.5789018279424,1354.5789018279424,11005.187,13.551872
1354.58029072627,1354.58029072627,11013.395,13.555903
1354.5816796245977,1354.5816796245977,11017.414,13.5584755
1354.5830685229248,1354.5830685229248,10986.233,13.54503
1354.5844574212517,1354.5844574212517,11007.179,13.545786
1354.5858463195786,1354.5858463195786,11029.844,13.562016
1354.5872352179058,1354.5872352179058,10993.789,13.539731
1354.5886241157677,1354.5886241157677,10986.412,13.540878
1354.5900130140953,1354.5900130140953,11007.298,13.550708
1354.5914019124225,1354.5914019124225,11028.675,13.561764
1354.5927908107492,1354.5927908107492,11009.956,13.556623
1354.5941797090763,1354.5941797090763,10993.222,13.545531
1354.595568607404,1354.595568607404,11022.524,13.559576
1354.596957505731,1354.596957505731,11005.511,13.549746
