time,time,flux,flux_err
1325.299408191793,1325.299408191793,0.9999925266858946,0.00011526910833709798
1325.3077414371653,1325.3077414371653,1.00004478513776,0.00011527512785011889
1325.3160746828148,1325.3160746828148,1.0003695256120013,0.0001152885367088931
1325.3244079287401,1325.3244079287401,0.999649395688104,0.00011524968748800666
1325.332046737744,1325.332046737744,0.9987462940792404,0.00010516134975113285
1325.338991109769,1325.338991109769,0.9993221480607708,0.00010519805795171743
1325.345935481981,1325.345935481981,1.0008128232692255,0.00010527514527108983
1325.3528798543728,1325.3528798543728,1.0017352100934311,0.00010532749788925985
1325.3598242269538,1325.3598242269538,1.0012055909646873,0.0001053086782134412
1325.3667685997189,1325.3667685997189,0.9999111779662281,0.00010525451548018575
1325.3737129726637,1325.3737129726637,0.9994748432815914,0.00010522861173272095
1325.3806573457891,1325.3806573457891,0.9991388515318171,0.00010522440540700025
1325.3876017190892,1325.3876017190892,0.9988024284973364,0.00010521817581598777
1325.3945460925663,1325.3945460925663,0.999150237824793,0.00010525077755418614
1325.4014904662247,1325.4014904662247,1.0000043304668491,0.0001053113517709043
1325.4084348400484,1325.4084348400484,1.0011424119735324,0.00010538782321732653
1325.4153792140528,1325.4153792140528,1.0015397910581207,0.00010542469850192534
1325.4223235882232,1325.4223235882232,1.0007899954251207,0.00010539159160336013
1325.4292679625682,1325.4292679625682,0.9997436224049274,0.0001053357561421788
1325.436212337073,1325.436212337073,0.9991260207186745,0.00010530926638260298
1325.4431567117467,1325.4431567117467,0.9988631976469617,0.00010530142551569066
1325.4501010865893,1325.4501010865893,0.9989695128985208,0.00010531753703219059
1325.457045461589,1325.457045461589,0.9995300603819217,0.00010536117395448909
1325.4639898367573,1325.4639898367573,1.000629694914421,0.00010543672525005817
1325.47093421208,1325.47093421208,1.0014627742108817,0.00010549876345718171
1325.47787858756,1325.47787858756,1.0017526686129166,0.00010552417680147197
1325.4848229632028,1325.4848229632028,1.000509981678524,0.00010546382657481473
1325.4917673390003,1325.4917673390003,0.9991198665675192,0.00010538781202892224
1325.4987117149517,1325.4987117149517,0.998331125308264,0.0001053533001063609
1325.5056560910514,1325.5056560910514,0.9988127147507658,0.00010538785575578665
1325.5126004673052,1325.5126004673052,0.9994946902636574,0.00010544380381395394
1325.519544843714,1325.519544843714,0.9998641982329104,0.00010548100432653188
1325.5264892202647,1325.5264892202647,1.0006164604285606,0.0001055475320587612
1325.5334335969699,1325.5334335969699,1.0017365456590024,0.00010561912001525624
1325.5403779738203,1325.5403779738203,1.002417733436673,0.00010566430020718734
1325.5473223508054,1325.5473223508054,1.000929693699144,0.0001055870489044639
1325.5542667279437,1325.5542667279437,0.9983368474600992,0.00010544367185232926
1325.561211105217,1325.561211105217,0.9970498123139346,0.00010538114943482912
1325.5681554826351,1325.5681554826351,0.9978938785011142,0.00010544186514120609
1325.57509986019,1325.57509986019,0.9996757013873072,0.00010555199008185996
1325.5820442378795,1325.5820442378795,1.0010277152776508,0.00010564603098679936
1325.58898861571,1325.58898861571,1.001765211345751,0.00010569717454295832
1325.59593299367,1325.59593299367,1.0019618839733622,0.00010571474049932326
1325.6028773717721,1325.6028773717721,1.0017709320566843,0.00010571074365897071
1325.6098217499966,1325.6098217499966,1.0001747348117525,0.00010562465054827926
1325.6167661283578,1325.6167661283578,0.9983780794977667,0.00010553188622705641
1325.6237105068528,1325.6237105068528,0.9974594170619536,0.00010547843075037117
1325.6306548854702,1325.6306548854702,0.9981597690235315,0.00010553099160763517
1325.637599264213,1325.637599264213,1.0000983366651621,0.00010564533196284146
1325.644543643083,1325.644543643083,1.0016434017777545,0.00010572918119011133
1325.6514880220816,1325.6514880220816,1.0011777432351032,0.00010570159304393442
1325.6584324011997,1325.6584324011997,1.0006369689978958,0.00010567780955998552
1325.6653767804428,1325.6653767804428,0.9998670382135046,0.00010565196392490446
1325.6723211598048,1325.6723211598048,0.9997992179399748,0.00010565123686719351
1325.679265539284,1325.679265539284,0.9994303626788582,0.00010562314255719844
1325.686209918885,1325.686209918885,0.9999449878488408,0.00010564233572200052
1325.693154298599,1325.693154298599,1.0006437570930242,0.00010566977512826825
1325.7000986784365,1325.7000986784365,1.0005892363040796,0.00010567769071452302
1325.7070430583835,1325.7070430583835,0.9996385481470889,0.00010564433945487229
1325.7139874384416,1325.7139874384416,0.997742032798574,0.00010556021756941607
1325.7209318186185,1325.7209318186185,0.997829799365482,0.00010557667702468636
1325.7278761989037,1325.7278761989037,1.0006636090710992,0.00010572997049486945
1325.7348205792991,1325.7348205792991,1.0033751602536456,0.00010586684391329895
1325.7417649597996,1325.7417649597996,1.0031501949207144,0.00010585433377352827
1325.7487093404131,1325.7487093404131,1.0004444664714538,0.00010572347258412504
1325.755653721138,1325.755653721138,0.9979697100723095,0.00010560416942692521
1325.7625981019582,1325.7625981019582,0.9970768688393514,0.00010556922573415364
1325.7695424828894,1325.7695424828894,0.9981415010808213,0.00010562999375137694
1325.7764868639224,1325.7764868639224,0.999912227261402,0.00010572845321680783
1325.7834312450573,1325.7834312450573,1.001248535664632,0.00010580567192736514
1325.7903756262967,1325.7903756262967,1.002023990190817,0.00010586042008935957
1325.797320007635,1325.797320007635,1.0015786573131176,0.00010585287449550683
1325.8042643890726,1325.8042643890726,0.9999528796634424,0.00010577032746904645
1325.811208770609,1325.811208770609,0.9986460114740023,0.00010569867273614904
1325.8181531522418,1325.8181531522418,0.9986081630241035,0.00010568689480279297
1325.825097533973,1325.825097533973,0.9997015718615462,0.0001057537012103366
1325.8320419157976,1325.8320419157976,1.0007198398014758,0.00010582044657328692
1325.8389862977183,1325.8389862977183,1.000690202944445,0.00010584005495046528
1325.8459306797376,1325.8459306797376,1.0004622017985914,0.00010582188164700067
1325.8528750618357,1325.8528750618357,1.0001108633035505,0.00010580077568605323
1325.859819444036,1325.859819444036,0.9998712094096277,0.00010577477335899966
1325.8667638263232,1325.8667638263232,0.9993485620463367,0.00010574549612931826
1325.8737082087068,1325.8737082087068,0.9985466527915279,0.00010569880768222606
1325.8806525911684,1325.8806525911684,0.9989585279885521,0.00010571647909451568
1325.8875969737235,1325.8875969737235,1.0004259639528075,0.00010580266287359885
1325.8945413563717,1325.8945413563717,1.0023713290472422,0.00010590612615269436
1325.9014857390985,1325.9014857390985,1.0023485693107743,0.0001058992537113876
1325.9084301219095,1325.9084301219095,1.0006619141845363,0.00010580292505955103
1325.9153745048081,1325.9153745048081,0.9983837531538399,0.00010566348888961978
1325.9223188877909,1325.9223188877909,0.9977400819326003,0.00010562727308402037
1325.9292632708555,1325.9292632708555,0.9983921693213299,0.0001056592405129844
1325.9362076540012,1325.9362076540012,0.9992755284189008,0.00010570634273389864
1325.9431520372257,1325.9431520372257,1.0003132010825084,0.00010577272002253526
1325.950096420535,1325.950096420535,1.0011037895559642,0.0001058244276989201
1325.9570408039194,1325.9570408039194,1.0024963378935632,0.00010591128764150207
1325.9650962887456,1325.9650962887456,1.0021079435226905,0.00010588670429985999
1325.9723184476418,1325.9723184476418,1.0006644161029106,0.0001057938105061534
1325.9792628312734,1325.9792628312734,0.9985367781776997,0.00010566887680721428
1325.986207214984,1325.986207214984,0.9974116055042647,0.00010560133907595862
1325.9931515987728,1325.9931515987728,0.9975229247862512,0.0001056057706924722
1326.000095982629,1326.000095982629,0.9984917126154137,0.00010566560978337652
1326.0070403665636,1326.0070403665636,1.0001465344779894,0.00010577558963720618
1326.0139847505711,1326.0139847505711,1.0021098076702488,0.00010589341306225676
1326.0209291346514,1326.0209291346514,1.0033597223382094,0.00010597806337476051
1326.0278735187985,1326.0278735187985,1.00283198854025,0.00010595669740033533
1326.0348179030211,1326.0348179030211,1.0005169772017077,0.00010582790171132447
1326.0417622873074,1326.0417622873074,0.9981969016491601,0.0001056939795308095
1326.0487066716673,1326.0487066716673,0.9970729509512151,0.00010561320961876768
1326.0556510560962,1326.0556510560962,0.997756326253503,0.0001056497309259154
1326.06259544059,1326.06259544059,0.9986613177710877,0.00010571302379940806
1326.069539825153,1326.069539825153,0.9997230241119862,0.0001057873153710349
1326.0764842097828,1326.0764842097828,1.001019434315587,0.00010587628955103202
1326.0834285944775,1326.0834285944775,1.0024492832224148,0.0001059622358237414
1326.0903729792358,1326.0903729792358,1.003126920273568,0.00010599847404540556
1326.097317364061,1326.097317364061,1.0015483839103783,0.0001059051524133786
1326.1042617489504,1326.1042617489504,0.9994522853926917,0.0001057821112572526
1326.1112061339002,1326.1112061339002,0.9977785981775756,0.00010568463529988372
1326.118150518912,1326.118150518912,0.9974753051994936,0.00010567508511723136
1326.125094903987,1326.125094903987,0.9981139104910237,0.00010570568209581606
1326.132039289127,1326.132039289127,0.9993219937692835,0.00010578410533846185
1326.1389836743215,1326.1389836743215,1.0006073526021455,0.00010585745723236518
1326.1459280595777,1326.1459280595777,1.0019947737427086,0.00010594822183224045
1326.1528724448945,1326.1528724448945,1.0024757291750492,0.00010597803189524933
1326.1598168302667,1326.1598168302667,1.0014652242526743,0.00010592571260734013
1326.1667612157003,1326.1667612157003,0.9996451523193176,0.00010581700516746554
1326.1737056011946,1326.1737056011946,0.9990438451128686,0.00010576144737480518
1326.180649986739,1326.180649986739,0.9987107551439337,0.00010574207186656557
1326.187594372344,1326.187594372344,0.9988927320134027,0.00010575577142077222
1326.1945387579985,1326.1945387579985,0.9985451538503458,0.0001057495619214759
1326.2014831437143,1326.2014831437143,0.999094524146968,0.00010578916587044048
1326.2084275294853,1326.2084275294853,1.00078461252353,0.00010588514104610141
1326.2153719153089,1326.2153719153089,1.0023363066510789,0.00010595748485074822
1326.2223163011818,1326.2223163011818,1.002348737048056,0.00010595311921836449
1326.2292606871156,1326.2292606871156,1.0002421960490218,0.0001058369573845067
1326.2362050730962,1326.2362050730962,0.9986561543632959,0.00010575450340892428
1326.243149459126,1326.243149459126,0.9986283986010548,0.00010575078518454533
1326.2500938452147,1326.2500938452147,0.9993056007829431,0.00010578919982035038
1326.2570382313493,1326.2570382313493,0.9998651275326644,0.00010581970990303422
1326.2639826175339,1326.2639826175339,1.0001772101012514,0.00010583100796034332
1326.2709270037765,1326.2709270037765,1.0003651684689914,0.00010584074211807044
1326.2778713900566,1326.2778713900566,1.0003421202590848,0.00010584894157674778
1326.2848157763895,1326.2848157763895,1.000106856506606,0.00010584185491095203
1326.2917601627773,1326.2917601627773,0.9997647533701933,0.00010581463369979097
1326.2987045492036,1326.2987045492036,0.9994890533256751,0.00010579698217358068
1326.3056489356784,1326.3056489356784,1.0001860046833335,0.00010582741089251005
1326.3125933222038,1326.3125933222038,1.0013963913331292,0.00010588666175468048
1326.3195377087748,1326.3195377087748,1.0009439308356742,0.00010587400324156627
1326.3264820953898,1326.3264820953898,0.9991326998609213,0.00010579276638885291
1326.3334264820517,1326.3334264820517,0.9982101374957845,0.00010574400175355556
1326.3403708687597,1326.3403708687597,0.9993721625317388,0.000105806944282371
1326.3484263573987,1326.3484263573987,1.000829633544018,0.00010588408599295079
1326.3570373970374,1326.3570373970374,1.000882609250636,0.0001058797792038319
1326.3639817838944,1326.3639817838944,0.9999228601144908,0.00010582961268843264
1326.3709261707913,1326.3709261707913,0.9993854179073451,0.00010580415802981767
1326.3778705577326,1326.3778705577326,0.9999716726379985,0.00010584941063415947
1326.3848149447201,1326.3848149447201,1.0002868160292027,0.00010587737202379288
1326.3917593317453,1326.3917593317453,1.000297165368025,0.00010587839172173329
1326.398703718812,1326.398703718812,1.0000813978357672,0.000105861088027918
1326.4056481059183,1326.4056481059183,1.000491200342997,0.00010587795027324871
1326.4125924930636,1326.4125924930636,1.0009863549533609,0.00010590459521688065
1326.4195368802546,1326.4195368802546,0.9997888908008316,0.00010584998201747412
1326.4264812674783,1326.4264812674783,0.997996446398836,0.00010575599169838677
1326.4334256547506,1326.4334256547506,0.9975488963174449,0.00010574985169567
1326.4403700420528,1326.4403700420528,0.9993529346773713,0.00010584605055629989
1326.4473144293956,1326.4473144293956,1.0019428465399436,0.00010598988311426996
1326.4542588167758,1326.4542588167758,1.0032569733045253,0.00010606246490914263
1326.4612032041973,1326.4612032041973,1.0021422770048287,0.0001060087906770855
1326.4681475916534,1326.4681475916534,0.9999835545081002,0.0001058890345487375
1326.4750919791443,1326.4750919791443,0.9979632665823459,0.00010578579157564674
1326.4820363666793,1326.4820363666793,0.9973006467872508,0.00010574607720632736
1326.48898075424,1326.48898075424,0.997836082624081,0.00010576369772614553
1326.4959251418445,1326.4959251418445,0.999699346731405,0.00010586777979163368
1326.502869529481,1326.502869529481,1.0013472053583599,0.00010597768750066694
1326.5098139171528,1326.5098139171528,1.0019451125951242,0.00010603402325226445
1326.5167583048562,1326.5167583048562,1.001769225815444,0.00010603151657682735
1326.5237026926004,1326.5237026926004,1.0009684655835316,0.00010598213694776193
1326.5306470803712,1326.5306470803712,1.0003885906767402,0.00010593564689452128
1326.5375914681822,1326.5375914681822,0.9991774735149439,0.0001058618439669349
1326.544535856023,1326.544535856023,0.9977568833905928,0.00010579247728551022
1326.551480243898,1326.551480243898,0.9972705221582279,0.00010578256615252526
1326.5584246318053,1326.5584246318053,0.998721413133377,0.00010587138364902206
1326.5653690197444,1326.5653690197444,1.0013493994280709,0.00010601742034249475
1326.5723134077157,1326.5723134077157,1.003121864879058,0.00010612245430536313
1326.579257795716,1326.579257795716,1.0025673859203406,0.00010609354966385106
1326.5862021837513,1326.5862021837513,1.0001731544676313,0.0001059703379075083
1326.5931465718131,1326.5931465718131,0.9986145327256335,0.00010587589243913744
1326.6000909599124,1326.6000909599124,0.9986385748478097,0.00010586618984777733
1326.6070353480377,1326.6070353480377,0.9988808853543732,0.00010587499433488778
1326.6139797361957,1326.6139797361957,0.9990698106165083,0.00010589151433437988
1326.620924124379,1326.620924124379,0.999345212519783,0.00010591815108559899
1326.6278685125951,1326.6278685125951,1.000600918262548,0.00010600383040224456
1326.634812900834,1326.634812900834,1.0016491263571932,0.0001060643846836509
1326.6417572891082,1326.6417572891082,1.0019173571488431,0.0001060645522778695
1326.648701677408,1326.648701677408,1.0007863892826685,0.00010599156817381089
1326.6556460657343,1326.6556460657343,0.9991516115972804,0.00010589306808597105
1326.662590454096,1326.662590454096,0.9982891422069731,0.00010584748921595365
1326.6695348424773,1326.6695348424773,0.9983872927957046,0.0001058595551279768
1326.6764792308854,1326.6764792308854,0.9993402730674589,0.0001059057765531443
1326.683423619328,1326.683423619328,1.000295354117981,0.00010595396925652673
1326.6917568854867,1326.6917568854867,1.0019479962228048,0.00010603582190325442
1326.6987012739849,1326.6987012739849,1.0023007805410526,0.00010605438583159471
1326.705645662506,1326.705645662506,1.0005816201554318,0.00010594691596912975
1326.713423377685,1326.713423377685,0.998073810592007,0.00010582061456392182
1326.7209233173437,1326.7209233173437,0.9977585235794315,0.00010579288451949421
1326.7278677059523,1326.7278677059523,0.9991440735216699,0.00010586188816011911
1326.7348120945812,1326.7348120945812,1.0006270031811144,0.00010593937070742923
1326.7417564832335,1326.7417564832335,1.0008339329426565,0.00010595349162644669
1326.748700871915,1326.748700871915,1.0010824405518883,0.0001059773041673893
1326.7556452606136,1326.7556452606136,1.0009987901754576,0.0001059727352569977
1326.7625896493446,1326.7625896493446,1.0006190490362437,0.00010594942372243446
1326.7695340380901,1326.7695340380901,0.9997225859458394,0.00010589760604314458
1326.7764784268645,1326.7764784268645,0.998558541761706,0.00010582302702125976
1326.7834228156655,1326.7834228156655,0.9980785382121103,0.00010579324641979047
1326.790367204481,1326.790367204481,0.9991730076182351,0.00010585660289303066
1326.7973115933223,1326.7973115933223,1.0008762892566352,0.000105951986610281
1326.8042559821904,1326.8042559821904,1.00134248530244,0.00010598536439827662
1326.8112003710748,1326.8112003710748,1.0007767734698096,0.00010596009224672406
1326.8181447599864,1326.8181447599864,1.0001912093425098,0.0001059398975201488
1326.8250891489124,1326.8250891489124,1.000377041954771,0.00010595011683632662
1326.8320335378646,1326.8320335378646,1.0003552801321203,0.00010593406677049475
1326.83897792684,1326.83897792684,0.9997601979114318,0.00010589210739173408
1326.8459223158357,1326.8459223158357,0.9993251052771374,0.00010585965978860619
1326.8528667048517,1326.8528667048517,0.9989845992295464,0.00010584298817336893
1326.8598110938854,1326.8598110938854,0.9989489375287697,0.00010584795546032149
1326.8667554829394,1326.8667554829394,0.9991022529692183,0.00010586520991461103
1326.8736998720196,1326.8736998720196,0.9999002285325382,0.00010589684137942967
1326.8806442611115,1326.8806442611115,1.001188150980301,0.00010595357381928074
1326.8875886502296,1326.8875886502296,1.0029280216449652,0.00010602738354409525
1326.8945330393615,1326.8945330393615,1.0021291598660658,0.00010598576162196864
1326.9014774285179,1326.9014774285179,0.9998221342210488,0.00010585087216092848
1326.9084218176938,1326.9084218176938,0.9972695927341884,0.00010570683662683008
1326.9153662068845,1326.9153662068845,0.9976231727138355,0.00010570051382198762
1326.922310596096,1326.922310596096,0.9992252122773191,0.0001057716354411133
1326.9292549853244,1326.9292549853244,1.0006134503208244,0.00010583857131648894
1326.9361993745733,1326.9361993745733,1.0005732188108165,0.0001058402361231734
1326.9431437638364,1326.9431437638364,1.0000462139424813,0.00010581475356340989
1326.9500881531208,1326.9500881531208,1.0006157357384124,0.00010585289690140628
1326.9570325424218,1326.9570325424218,1.0018879136204153,0.00010590840338319777
1326.9639769317441,1326.9639769317441,1.001748559501348,0.00010587412485527295
1326.9709213210742,1326.9709213210742,1.0001050891470187,0.0001057642085820475
1326.9778657104277,1326.9778657104277,0.9979686241239095,0.0001056381642213405
1326.9848100997965,1326.9848100997965,0.9974066738055238,0.0001056014959802617
1326.9917544891764,1326.9917544891764,0.9983942804584022,0.00010566401662444979
1326.9986988785852,1326.9986988785852,0.9996906692041309,0.00010572761329668561
1327.005643268006,1327.005643268006,1.0007702740125186,0.00010579123225572772
1327.0125876574382,1327.0125876574382,1.0019863757084972,0.00010586003740076283
1327.019532046888,1327.019532046888,1.002435548230594,0.00010587854425342384
1327.0264764363524,1327.0264764363524,1.001641407334339,0.00010583028904186189
1327.033420825837,1327.033420825837,0.9996098140680288,0.00010570848131484118
1327.0403652153332,1327.0403652153332,0.9982041432018219,0.00010562586254238102
1327.0473096048472,1327.0473096048472,0.9973753678630597,0.00010559060230081678
1327.0542539943726,1327.0542539943726,0.9986655772356967,0.00010566755031079047
