time,time,flux,flux_err
1325.3003134232904,1325.3003134232904,1.0000081371992249,0.0002223656293522501
1325.308646674828,1325.308646674828,0.9999153243331934,0.00022244642380568955
1325.3169799265602,1325.3169799265602,0.9999849007119627,0.00022247809794827175
1325.3253131785052,1325.3253131785052,1.0001943585309407,0.00022252837124997997
1325.332951992975,1325.332951992975,0.999827088019568,0.00020310143061601655
1325.3398963698955,1325.3398963698955,0.999924326501409,0.00020314888103983457
1325.3468407469795,1325.3468407469795,0.9997926110140739,0.00020315498610777374
1325.3537851242024,1325.3537851242024,1.0003316893220189,0.00020323454317337417
1325.3607295015886,1325.3607295015886,1.0000875119538826,0.00020324416286891743
1325.3676738790916,1325.3676738790916,1.0001050603340456,0.0002032734963944793
1325.3746182567804,1325.3746182567804,1.0003832682037417,0.0002033210064544121
1325.3815626345393,1325.3815626345393,0.9999300832579259,0.00020329464180462577
1325.3885070125075,1325.3885070125075,0.9998652523424216,0.00020332465880422483
1325.3954513905917,1325.3954513905917,0.9998900053981561,0.00020334599391058774
1325.4023957687932,1325.4023957687932,0.9998787198815495,0.0002033623740166542
1325.409340147157,1325.409340147157,0.9997074032177796,0.00020334025844058576
1325.4162845256378,1325.4162845256378,1.0001175750423745,0.00020341461906420071
1325.4232289042347,1325.4232289042347,0.9998122289408249,0.00020339784644043458
1325.430173282995,1325.430173282995,1.0002693544106223,0.00020345384147573767
1325.4371176618943,1325.4371176618943,1.0001599346607997,0.0002034931466660592
1325.4440620409569,1325.4440620409569,0.9999308985976818,0.0002034685918436433
1325.451006420066,1325.451006420066,1.000086806831052,0.00020351069268895167
1325.457950799338,1325.457950799338,1.0000106536187645,0.00020350977906326506
1325.4648951787267,1325.4648951787267,1.0000360792521001,0.00020351633063397963
1325.471839558255,1325.471839558255,0.9998263862562917,0.00020353245245010904
1325.4787839378996,1325.4787839378996,1.0001366803805456,0.00020359277768811093
1325.485728317707,1325.485728317707,1.000158870946727,0.00020363328498524866
1325.492672697585,1325.492672697585,0.9998570265234102,0.00020360429292067944
1325.4996170776021,1325.4996170776021,1.0001077947702215,0.00020366529306185122
1325.506561457759,1325.506561457759,0.9998869326270118,0.00020368352297434994
1325.5135058380322,1325.5135058380322,0.9998848489761093,0.00020369755077434535
1325.520450218422,1325.520450218422,0.9999300717017338,0.00020373699991705008
1325.5273945989281,1325.5273945989281,0.9996709026494297,0.00020374930868911136
1325.5343389795507,1325.5343389795507,1.0003339029531095,0.0002038333295218319
1325.5412833602895,1325.5412833602895,0.9999773219110157,0.0002038350181082969
1325.5482277411452,1325.5482277411452,1.000164335767675,0.00020386005994226067
1325.5551721221168,1325.5551721221168,1.0003189136297745,0.00020390351853791529
1325.5621165032053,1325.5621165032053,0.9996663511571144,0.00020387728535185205
1325.5690608843865,1325.5690608843865,0.9999398395336675,0.00020392224725401012
1325.5760052657308,1325.5760052657308,1.0000498357082024,0.00020394313117521123
1325.5829496471222,1325.5829496471222,0.99989311352075,0.00020396723144146877
1325.5898940286286,1325.5898940286286,0.9998969752836832,0.0002039878750333387
1325.5968384102762,1325.5968384102762,1.0002213729888196,0.0002040326883191201
1325.603782792016,1325.603782792016,0.9998775024779553,0.00020401526985455422
1325.6107271738497,1325.6107271738497,1.000245779752021,0.00020404296979302394
1325.6176715558227,1325.6176715558227,1.0001801548402625,0.00020406401887992958
1325.6246159378654,1325.6246159378654,0.9999801624305945,0.00020404932881661492
1325.6315603200246,1325.6315603200246,0.9995331541477182,0.00020401569151835044
1325.6385047023005,1325.6385047023005,1.0000006393309167,0.00020405432365472087
1325.6454490846688,1325.6454490846688,0.9998123317579013,0.00020402679682122782
1325.6523934670845,1325.6523934670845,1.0002290399889193,0.00020405696753786952
1325.6593378496627,1325.6593378496627,0.9999404324361045,0.0002040306385567525
1325.6662822323576,1325.6662822323576,0.9999500923611538,0.00020403573483748018
1325.6732266150987,1325.6732266150987,1.0001171344434074,0.00020404551549480662
1325.6801709979568,1325.6801709979568,1.0002376330072065,0.00020406146452050746
1325.687115380931,1325.687115380931,0.9996213822307339,0.0002040185381697828
1325.694059763928,1325.694059763928,1.0001743757252786,0.00020406043683550223
1325.701004147089,1325.701004147089,1.0000238661127256,0.0002040620973171524
1325.7079485303423,1325.7079485303423,0.9996374697294155,0.00020404254465257606
1325.7148929136656,1325.7148929136656,1.0000578377361988,0.00020408527233585437
1325.721837297082,1325.721837297082,1.0001407521920802,0.00020411328970060803
1325.7287816805917,1325.7287816805917,0.9998679156696177,0.0002041167126340069
1325.7357260641713,1325.7357260641713,0.9996642804234103,0.0002040786843685295
1325.742670447867,1325.742670447867,0.9999479800768525,0.00020413357251638904
1325.7496148316327,1325.7496148316327,0.9998543991286709,0.00020413878102560454
1325.756559215492,1325.756559215492,0.9999750048712333,0.00020417272771803776
1325.7635035994206,1325.7635035994206,1.0001132529541148,0.0002041889828606739
1325.7704479834424,1325.7704479834424,1.0004269828034258,0.00020422452362595962
1325.7773923675577,1325.7773923675577,1.000209681156268,0.00020424636629400145
1325.7843367517657,1325.7843367517657,1.0000578856587712,0.00020424838073279878
1325.7912811359972,1325.7912811359972,1.0002051098783515,0.0002042663286800352
1325.7982255204147,1325.7982255204147,0.9997041015304413,0.00020424186619583825
1325.8051699048326,1325.8051699048326,0.999887135236625,0.00020427342210277413
1325.8121142893433,1325.8121142893433,0.9997062764870541,0.0002042796728578915
1325.8190586739477,1325.8190586739477,0.9996667098934768,0.00020426881409557474
1325.8260030586212,1325.8260030586212,1.0001722241227227,0.00020434173999513646
1325.832947443388,1325.832947443388,1.000027847302004,0.00020431323017996327
1325.8398918282019,1325.8398918282019,1.0000956037262079,0.00020433935324321476
1325.8468362131084,1325.8468362131084,1.0001461101337874,0.00020431558522650495
1325.853780598108,1325.853780598108,0.9998655510616556,0.00020429142646228565
1325.8607249831546,1325.8607249831546,1.000310676794307,0.00020432834308826427
1325.8676693682942,1325.8676693682942,0.9999942064699606,0.0002042780714272364
1325.8746137535036,1325.8746137535036,1.0005464528821328,0.00020432327728950396
1325.8815581387826,1325.8815581387826,0.9997218519761051,0.00020423982281461768
1325.8885025241316,1325.8885025241316,1.0000780953152175,0.00020426620313174527
1325.895446909597,1325.895446909597,0.9998695172444989,0.00020424604134180094
1325.9023912950624,1325.9023912950624,0.9998784312776984,0.00020424051850843748
1325.9093356805977,1325.9093356805977,0.9998407537099576,0.00020421553530206488
1325.9162800662261,1325.9162800662261,1.0003551086400861,0.00020423415490333752
1325.923224451901,1325.923224451901,1.000067727534894,0.00020424054031902304
1325.9301688376695,1325.9301688376695,1.0001371895065838,0.0002042361856086123
1325.937113223484,1325.937113223484,0.9997039517916736,0.0002041816960378555
1325.9440576093916,1325.9440576093916,0.9998107532141983,0.0002042091531759494
1325.9510019953232,1325.9510019953232,0.9999039258197204,0.00020418624080334983
1325.9579463813475,1325.9579463813475,1.000147965865564,0.0002042229117417785
1325.9660018692325,1325.9660018692325,0.9999060274171103,0.00020418985459178812
1325.973224030838,1325.973224030838,1.000099680649865,0.00020420400296315466
1325.9801684170484,1325.9801684170484,1.0001159151431225,0.00020422390679860104
1325.9871128033521,1325.9871128033521,0.9999082497469642,0.00020420161431377828
1325.994057189702,1325.994057189702,1.0002214968607182,0.00020423371510255557
1326.0010015760759,1326.0010015760759,1.0000144337738779,0.00020418866629147805
1326.0079459625656,1326.0079459625656,1.0000257342403598,0.00020420678999492334
1326.014890349079,1326.014890349079,0.9999891179567897,0.00020422946003143027
1326.0218347356622,1326.0218347356622,0.9997650902854309,0.0002042253082705803
1326.028779122292,1326.028779122292,1.0002229798105087,0.00020429468932754423
1326.0357235090146,1326.0357235090146,0.9999146364914904,0.00020426017630596413
1326.0426678957601,1326.0426678957601,1.0000600816629182,0.00020427976085901606
1326.0496122825764,1326.0496122825764,0.9998765372086295,0.00020424062883681363
1326.0565566694152,1326.0565566694152,1.000203258452407,0.0002042825032521996
1326.0635010563478,1326.0635010563478,1.0000187518133494,0.0002042786424470232
1326.0704454433264,1326.0704454433264,0.9994760124771291,0.0002042402108384538
1326.0773898303516,1326.0773898303516,0.9999962075203481,0.0002042808052574919
1326.084334217424,1326.084334217424,1.000085147845184,0.00020428054285923214
1326.091278604566,1326.091278604566,1.0001141545749797,0.0002042847495345857
1326.0982229917308,1326.0982229917308,1.0003118664308375,0.0002043070497907931
1326.1051673789661,1326.1051673789661,0.9999420899238215,0.00020429175312434061
1326.1121117662703,1326.1121117662703,1.0000537401821943,0.00020428096923667095
1326.119056153622,1326.119056153622,0.9998126675087216,0.00020427556144257848
1326.1260005409963,1326.1260005409963,0.9997486903770134,0.0002042663368585484
1326.1329449284415,1326.1329449284415,1.0005297829160633,0.00020432300081908884
1326.139889315909,1326.139889315909,0.999662408180145,0.00020424708491144117
1326.1468337034469,1326.1468337034469,0.9998437179808933,0.00020427878346027375
1326.1537780910076,1326.1537780910076,0.9998621972397455,0.0002042639287195062
1326.1607224786617,1326.1607224786617,1.0002304961841157,0.00020429638775794354
1326.1676668663156,1326.1676668663156,1.0002889379515583,0.00020433284690483394
1326.174611254086,1326.174611254086,0.9997973575628443,0.00020425825457855146
1326.1815556417637,1326.1815556417637,1.000097342080516,0.00020428844672372258
1326.1885000296504,1326.1885000296504,0.9998331132092172,0.00020426363455501353
1326.1954444174676,1326.1954444174676,1.0002985378904288,0.00020429788251833493
1326.2023888053777,1326.2023888053777,0.9998168165264761,0.00020425576200908463
1326.2093331933343,1326.2093331933343,1.0002719281263868,0.00020429726127420243
1326.2162775813144,1326.2162775813144,0.9999195204544608,0.00020426158346383122
1326.2232219693176,1326.2232219693176,0.9997582501188056,0.00020426493259774643
1326.2301663573908,1326.2301663573908,1.0003718423466996,0.00020432132382373598
1326.2371107455106,1326.2371107455106,0.9998347796820312,0.00020427245874992498
1326.244055133653,1326.244055133653,1.0000517514666467,0.00020428529651124642
1326.2509995218431,1326.2509995218431,0.9998835400823654,0.00020426080647303283
1326.2579439100791,1326.2579439100791,1.0000091445502775,0.00020427333598364207
1326.264888298362,1326.264888298362,1.0000716458314742,0.0002042727135436727
1326.2718326866914,1326.2718326866914,1.0001301161462894,0.0002042776076169578
1326.278777075067,1326.278777075067,0.9999085917538297,0.00020425179065268017
1326.2857214634428,1326.2857214634428,1.0002037587107186,0.00020428534154687408
1326.2926658518186,1326.2926658518186,1.0000386241089838,0.00020427103379114098
1326.2996102403113,1326.2996102403113,1.0001764964706357,0.00020427453677173102
1326.3065546288262,1326.3065546288262,0.9998222411616984,0.00020426080333011556
1326.3134990173423,1326.3134990173423,0.9999520267897852,0.00020426471536259713
1326.3204434059273,1326.3204434059273,0.9999731163105468,0.0002042726111608772
1326.327387794536,1326.327387794536,0.9998427406437687,0.00020429237296591026
1326.3343321832147,1326.3343321832147,0.9998895589539825,0.00020426680075093703
1326.34127657187,1326.34127657187,0.9997299287495244,0.00020425502388888404
1326.3493320627817,1326.3493320627817,1.0000550206274261,0.0002042947784113806
1326.357943104833,1326.357943104833,1.0004357276860725,0.00020434063392704805
1326.3648874936516,1326.3648874936516,1.0001312154454194,0.00020432552513844596
1326.3718318824697,1326.3718318824697,1.0000690900522151,0.00020431588948806472
1326.3787762713346,1326.3787762713346,1.0001223161864783,0.0002043305247407522
1326.3857206602459,1326.3857206602459,0.9999450651127983,0.00020431260081077147
1326.3926650492035,1326.3926650492035,0.9998198571518293,0.00020431883532974945
1326.3996094381619,1326.3996094381619,0.999914946722277,0.0002043143218857769
1326.4065538271193,1326.4065538271193,0.9996263403725054,0.00020428260202431313
1326.4134982161477,1326.4134982161477,0.9998824776028808,0.0002043276888943552
1326.4204426051983,1326.4204426051983,0.9998907376928189,0.0002043312226540203
1326.4273869942963,1326.4273869942963,1.0001406309253102,0.00020433852755548918
1326.4343313834167,1326.4343313834167,1.000343123655613,0.0002043784665952176
1326.441275772561,1326.441275772561,1.0003531799526852,0.0002043701498696246
1326.4482201617288,1326.4482201617288,0.9997467203717868,0.0002043466102276373
1326.4551645509193,1326.4551645509193,1.0004003046496515,0.00020440484669009612
1326.4621089401567,1326.4621089401567,0.9999549940231116,0.00020436783520313243
1326.4690533294174,1326.4690533294174,0.9999382362052369,0.0002043729170482013
1326.475997718701,1326.475997718701,0.999788625737048,0.00020435156289590122
1326.4829421080317,1326.4829421080317,0.9998337951008984,0.00020435709108860184
1326.4898864973618,1326.4898864973618,0.9996420235859087,0.00020437770901803875
1326.496830886739,1326.496830886739,1.0000172735691475,0.00020439814201321377
1326.503775276139,1326.503775276139,1.0002534682679807,0.00020442718809361441
1326.510719665563,1326.510719665563,1.0002229958237294,0.0002044397004844782
1326.5176640549864,1326.5176640549864,1.0001784772434938,0.00020443537836796623
1326.524608444503,1326.524608444503,1.0001605958361641,0.0002044432952939612
1326.5315528339502,1326.5315528339502,0.999747178218952,0.00020442538575713844
1326.53849722349,1326.53849722349,0.9998093485319721,0.00020442719837107225
1326.5454416130303,1326.5454416130303,0.9997088085085002,0.00020445173695023524
1326.5523860026399,1326.5523860026399,1.0001422936545743,0.00020450778067910544
1326.5593303922265,1326.5593303922265,1.0002278970000487,0.00020449189292769354
1326.5662747818594,1326.5662747818594,0.9998672690452995,0.0002044615460383281
1326.5732191714926,1326.5732191714926,0.999891913426947,0.00020447002638291183
1326.5801635611724,1326.5801635611724,1.0000926608329022,0.0002044924219933927
1326.5871079508752,1326.5871079508752,1.000142568644486,0.00020450551131941016
1326.5940523405784,1326.5940523405784,0.999805130158264,0.0002044642029337002
1326.600996730328,1326.600996730328,0.999877728849864,0.0002044689517307113
1326.6079411200774,1326.6079411200774,1.0001326815853353,0.0002045029234463403
1326.6148855098504,1326.6148855098504,1.00028043650856,0.000204532303810971
1326.6218298996694,1326.6218298996694,1.0001900983415848,0.00020452977281776056
1326.628774289466,1326.628774289466,0.9999241742992876,0.00020449922270541262
1326.635718679355,1326.635718679355,0.9996716609696537,0.00020447409583997065
1326.6426630691979,1326.6426630691979,0.9999633895103116,0.0002044943237078332
1326.6496074590868,1326.6496074590868,1.0001045239776187,0.00020452367735923656
1326.656551848976,1326.656551848976,1.0000501181308337,0.0002045123743377442
1326.663496238889,1326.663496238889,1.000008772172428,0.0002044955471980947
1326.670440628871,1326.670440628871,0.9995680942959868,0.00020445580667896693
1326.677385018807,1326.677385018807,1.000298874476936,0.00020452644192041884
1326.6843294088126,1326.6843294088126,1.0002135351739905,0.00020449333415958667
1326.6926626768193,1326.6926626768193,1.0003153171996122,0.0002045058034838664
1326.699607066848,1326.699607066848,0.9994584134234745,0.00020439610920420086
1326.706551456877,1326.706551456877,1.0000699029311721,0.00020443134116141046
1326.714329173744,1326.714329173744,1.0000085430003383,0.00020443577754864555
1326.7218291150295,1326.7218291150295,0.9996801748196125,0.0002044084898838764
1326.7287735051516,1326.7287735051516,1.0002321319057175,0.00020444179459922404
1326.7357178952734,1326.7357178952734,0.9999209393398834,0.00020439029882704271
1326.7426622853957,1326.7426622853957,1.0001242837250355,0.0002044074487056088
1326.7496066755175,1326.7496066755175,1.0001293549002146,0.00020441867213668642
1326.7565510657093,1326.7565510657093,1.0001839342981365,0.0002044002070280616
1326.763495455878,1326.763495455878,1.000101576739483,0.00020439255904753924
1326.7704398461165,1326.7704398461165,0.9998759255682221,0.00020435693639175002
1326.7773842363083,1326.7773842363083,0.9995537181278801,0.00020433729588476972
1326.784328626547,1326.784328626547,0.9999603249610287,0.00020437483945374833
1326.791273016786,1326.791273016786,1.000046437873814,0.00020439006094365142
1326.798217407047,1326.798217407047,1.000002598665631,0.00020439310067429643
1326.8051617973329,1326.8051617973329,1.0000997831790275,0.00020440761013561693
1326.812106187617,1326.812106187617,1.0002754603766522,0.00020441796254926954
1326.8190505779255,1326.8190505779255,0.9999155700865252,0.00020437966710479702
1326.8259949682574,1326.8259949682574,1.0000069011885517,0.00020438373875982145
1326.832939358566,1326.832939358566,0.9998476884533989,0.00020435274440310362
1326.8398837489208,1326.8398837489208,0.9998948434163522,0.00020437373192354097
1326.8468281392986,1326.8468281392986,0.999865513831726,0.0002043518183942247
1326.8537725296537,1326.8537725296537,1.0001549980808089,0.00020439382029001355
1326.8607169200552,1326.8607169200552,1.000214313786048,0.00020438145852218372
1326.8676613104801,1326.8676613104801,1.0001300620092837,0.00020437631624183882
1326.8746057008816,1326.8746057008816,0.999882915659651,0.00020435075456776285
1326.8815500913063,1326.8815500913063,1.0000839212983048,0.00020435311922488444
1326.8884944817078,1326.8884944817078,0.9996706544890623,0.00020427940210127705
1326.8954388721786,1326.8954388721786,1.000073396043208,0.00020431504988741283
1326.9023832626503,1326.9023832626503,1.0001685319476183,0.00020427938153845692
1326.9093276531216,1326.9093276531216,0.9997538198510455,0.0002042471978708134
1326.9162720436161,1326.9162720436161,1.0001521443972023,0.0002042831664443191
1326.9232164340876,1326.9232164340876,1.0001189012775764,0.0002042505038053412
1326.9301608245821,1326.9301608245821,1.0001043408181611,0.00020424438568153341
1326.9371052151466,1326.9371052151466,0.9999704338457948,0.00020420947595062696
1326.9440496056409,1326.9440496056409,0.9997776970397332,0.00020416347723028355
1326.9509939962059,1326.9509939962059,0.9999831539520526,0.0002041687609294123
1326.95793838677,1326.95793838677,0.9999579268251694,0.0002041567611070347
1326.9648827773115,1326.9648827773115,0.9998765704085126,0.0002041343535473339
1326.9718271678757,1326.9718271678757,1.0001221656155288,0.00020415572533700427
1326.9787715584632,1326.9787715584632,0.9999563306714407,0.00020410485208225115
1326.9857159490514,1326.9857159490514,1.000232379669146,0.00020412998494044889
1326.9926603396623,1326.9926603396623,1.0001907588570498,0.00020412157103804897
1326.9996047302732,1326.9996047302732,0.9998323363447437,0.00020405558131437562
1327.006549120861,1327.006549120861,0.9999587537130271,0.00020406709743200384
1327.0134935115186,1327.0134935115186,0.9999445326656794,0.00020408733813738751
1327.020437902153,1327.020437902153,0.9995991943315905,0.00020402838103604636
1327.027382292787,1327.027382292787,1.0002512901614362,0.0002041161609634983
1327.0343266834448,1327.0343266834448,1.0000858775088768,0.00020408584353379688
1327.0412710741489,1327.0412710741489,0.9998872491038879,0.00020405597323974262
1327.04821546476,1327.04821546476,1.0002170521202418,0.0002040933193578513
1327.0551598554407,1327.0551598554407,1.0001262561660482,0.00020407772552603426
