time,time,flux,flux_err
1385.955439287882,1385.955439287882,0.9999643948764416,0.00012957979487850725
1385.9637728355513,1385.9637728355513,0.999999465850705,0.00012958336374311225
1385.971411920808,1385.971411920808,0.9999376932578636,0.00011828607925789606
1385.9783565437142,1385.9783565437142,1.000010626585199,0.00011828227770359371
1385.9853011664823,1385.9853011664823,1.0001378403475343,0.00011828438363040938
1385.9922457892494,1385.9922457892494,1.000102280849247,0.00011827843958795703
1385.9991904119695,1385.9991904119695,1.0000205827942257,0.00011826711143145174
1386.0061350345045,1386.0061350345045,0.9997181548860361,0.00011825346659241335
1386.0130796570388,1386.0130796570388,1.0001177240298984,0.00011827213068442504
1386.0200242794795,1386.0200242794795,0.9998511007888791,0.00011825129890339916
1386.0269689018282,1386.0269689018282,1.0002920232651162,0.0001182876508837055
1386.0339135241302,1386.0339135241302,1.0001114271763811,0.00011826088950009543
1386.040858146338,1386.040858146338,0.9997775109965538,0.00011824454424743744
1386.0478027685,1386.0478027685,1.0000040792747495,0.00011825106627536268
1386.0547473905228,1386.0547473905228,1.0000292510080269,0.00011823738818099276
1386.0616920125447,1386.0616920125447,1.0001773765378397,0.00011825684533078078
1386.068636634427,1386.068636634427,0.9997573330608205,0.00011822908329000802
1386.07558125631,1386.07558125631,0.99992209093746,0.00011824577966967691
1386.0825258780526,1386.0825258780526,0.9999264761237237,0.00011823577072064451
1386.089470499795,1386.089470499795,1.000152658728034,0.00011824662682996686
1386.096415121352,1386.096415121352,1.0000495829152336,0.00011824440239709733
1386.1033597429087,1386.1033597429087,1.0000074659543619,0.00011822962162202273
1386.110304364418,1386.110304364418,1.0000755189338306,0.00011823265097209111
1386.1172489857888,1386.1172489857888,1.0000259467842152,0.00011822798368046406
1386.1241936071126,1386.1241936071126,0.9999036589075209,0.00011821783259750241
1386.1311382283427,1386.1311382283427,0.9998046063964173,0.00011820483776061885
1386.1380828495269,1386.1380828495269,0.9999704599257251,0.00011821088847966198
1386.1450274706185,1386.1450274706185,1.000191299731449,0.00011822774135602638
1386.1519720916156,1386.1519720916156,1.0000822972995853,0.00011821279128169712
1386.15891671266,1386.15891671266,1.0000867919215655,0.00011821038326028936
1386.1658613335653,1386.1658613335653,0.9997912033157231,0.00011818806165203486
1386.172805954283,1386.172805954283,0.9999790146746982,0.00011819617227037291
1386.1797505750478,1386.1797505750478,1.0000289892221024,0.00011819718995949093
1386.1866951956733,1386.1866951956733,1.0001364339268985,0.00011819661283263736
1386.193639816252,1386.193639816252,0.9999949070368412,0.0001181890557247195
1386.2005844367836,1386.2005844367836,0.9997444606004032,0.00011816937108545986
1386.2075290572234,1386.2075290572234,1.0000659025021856,0.00011818960123997444
1386.2144736776158,1386.2144736776158,1.0001471426159179,0.00011818426753904847
1386.2214182979144,1386.2214182979144,1.0002573103703876,0.00011819661789822631
1386.2283629180743,1386.2283629180743,0.9998799102594577,0.0001181653656247895
1386.2353075382812,1386.2353075382812,0.9996510439970713,0.00011815330792099598
1386.2422521582998,1386.2422521582998,1.0000356546705387,0.00011817549777813106
1386.2491967783203,1386.2491967783203,1.0000870966527604,0.0001181712259351605
1386.2561413982007,1386.2561413982007,0.9999990054395909,0.00011817230675579413
1386.263086018127,1386.263086018127,1.0000798647289175,0.00011816401511550014
1386.270030637821,1386.270030637821,0.9998239657638015,0.00011814256744637256
1386.2769752575152,1386.2769752575152,1.0000824610543415,0.00011816076555204525
1386.2839198772092,1386.2839198772092,1.000020331084555,0.00011815481340463742
1386.2908644967629,1386.2908644967629,1.0001008709789105,0.0001181566387670889
1386.2978091162245,1386.2978091162245,0.9999160570075777,0.00011814751636091097
1386.3047537356858,1386.3047537356858,1.0000633297262076,0.00011814943818963578
1386.3116983549596,1386.3116983549596,0.9999408837287957,0.00011814845515033383
1386.318642974235,1386.318642974235,1.0000868275686217,0.00011814790866897483
1386.3255875934635,1386.3255875934635,1.0000762912831687,0.00011814437965768318
1386.332532212551,1386.332532212551,1.0000005917541053,0.00011813660618405027
1386.3394768315939,1386.3394768315939,0.99977871214906,0.00011812421917478174
1386.3464214505898,1386.3464214505898,0.9997055314716359,0.00011811696004128996
1386.3533660694916,1386.3533660694916,1.0002364888788478,0.00011815229286812865
1386.3603106883006,1386.3603106883006,1.0001090966469017,0.00011813938652059113
1386.3678108765926,1386.3678108765926,0.9999921463869124,0.00011813296884577035
1386.3755888494854,1386.3755888494854,0.9999845499542814,0.00011812996750532653
1386.382533468015,1386.382533468015,1.0001085214036354,0.00011813698524149613
1386.389478086545,1386.389478086545,1.000060635130469,0.00011812437193883301
1386.3964227050753,1386.3964227050753,1.0000109518218632,0.00011812735211889913
1386.4033673234178,1386.4033673234178,1.0000683887409447,0.00011812908338330325
1386.4103119417152,1386.4103119417152,0.9998031860934191,0.00011811227103543191
1386.417256559966,1386.417256559966,0.9999168511248773,0.00011811424128426517
1386.4242011781223,1386.4242011781223,1.00006261461101,0.00011812424180773158
1386.4311457962335,1386.4311457962335,1.000202694019745,0.00011812624910497848
1386.438090414205,1386.438090414205,0.999783236343451,0.00011810176730392419
1386.4450350321754,1386.4450350321754,0.9999091485885195,0.00011811129616033348
1386.451979650053,1386.451979650053,1.0002322449527687,0.00011812972482187471
1386.4589242677916,1386.4589242677916,1.0002084160245945,0.00011812189955600984
1386.4658688855761,1386.4658688855761,0.9999992213867566,0.0001181043978598155
1386.472813503221,1386.472813503221,0.999849352167993,0.00011809172143524849
1386.4797581208197,1386.4797581208197,1.0000246907980235,0.00011810479168358385
1386.4867027382788,1386.4867027382788,0.9998290196038638,0.00011808731507204178
1386.49364735569,1386.49364735569,1.0001609500212154,0.00011811219661096583
1386.500591973056,1386.500591973056,0.9998873887450899,0.00011809738763015716
1386.5075365903754,1386.5075365903754,1.0001541114903907,0.00011811052850083415
1386.5144812076478,1386.5144812076478,1.0000888693602383,0.00011810572762042793
1386.5214258247802,1386.5214258247802,0.9999980147460137,0.00011809962589891605
1386.5283704418669,1386.5283704418669,0.9999511189369026,0.00011809175110365428
1386.5353150588132,1386.5353150588132,0.9998723036309691,0.00011809288817677089
1386.542259675806,1386.542259675806,1.000035612245215,0.0001181014923045677
1386.54920429266,1386.54920429266,1.000110836723782,0.00011810331647026996
1386.5561489094205,1386.5561489094205,0.9999566060488654,0.00011809603651256623
1386.5633713108748,1386.5633713108748,1.0000053911583873,0.0001181075780617922
1386.5714270660878,1386.5714270660878,0.9999386129890204,0.00011810051349539225
1386.5783716827086,1386.5783716827086,0.9999520682366942,0.00011809066365990415
1386.5853162991893,1386.5853162991893,0.9999337939926501,0.00011809772694749774
1386.5922609156235,1386.5922609156235,0.9999664722774557,0.00011809298377461184
1386.5992055319184,1386.5992055319184,0.9999666135476646,0.00011808688298589638
1386.6061501481665,1386.6061501481665,1.0001009605658728,0.00011809541676208133
1386.6130947644137,1386.6130947644137,1.0000486124422499,0.00011808962719230792
1386.6200393805225,1386.6200393805225,1.0000793030130462,0.00011809001801629912
1386.6269839966312,1386.6269839966312,1.0001511239339835,0.00011808813702130095
1386.633928612599,1386.633928612599,0.9999097324628098,0.00011808513338977215
1386.6408732285217,1386.6408732285217,0.9999877538529169,0.00011808427718060666
1386.6478178443974,1386.6478178443974,0.9999952466348146,0.00011808106018456313
1386.6547624601326,1386.6547624601326,0.9997468339124929,0.00011807037044983194
1386.6617070758223,1386.6617070758223,1.0000796437833661,0.00011808510465666963
1386.6686516914185,1386.6686516914185,0.9999197191433684,0.0001180737238903264
1386.6755963070614,1386.6755963070614,1.000144199655646,0.00011807898818942163
1386.682540922517,1386.682540922517,1.0000616736930366,0.00011807068097674331
1386.6894855379737,1386.6894855379737,0.9999423939083656,0.00011806674709627366
1386.696430153291,1386.696430153291,1.000140594383415,0.00011808398367087918
1386.70337476856,1386.70337476856,0.9999152847796224,0.00011806862420216176
1386.7103193837374,1386.7103193837374,0.9999769539318851,0.00011807362795058993
1386.7172639989617,1386.7172639989617,0.999941192657829,0.0001180686432984947
1386.7242086139986,1386.7242086139986,1.0000121717552226,0.00011806237415462072
1386.7311532290357,1386.7311532290357,1.000000307108595,0.00011806915632352193
1386.7380978438403,1386.7380978438403,0.9999141491676333,0.00011805688723162699
1386.7450424587382,1386.7450424587382,1.0002562575924574,0.0001180871249760554
1386.751987073542,1386.751987073542,0.9999944449719853,0.00011806928674807622
1386.7589316882072,1386.7589316882072,1.0000188867128006,0.00011807855260373026
1386.7658763028262,1386.7658763028262,1.0000799927099882,0.00011807686307307888
1386.7730987020452,1386.7730987020452,0.9997950060650664,0.00011806645791841448
1386.78115445479,1386.78115445479,0.9997406579646404,0.00011806427479826727
1386.7880990692224,1386.7880990692224,1.0001060198945555,0.00011808528178541895
1386.795043683561,1386.795043683561,0.9999205008176718,0.00011807455776559315
1386.8019882978529,1386.8019882978529,0.9999893383728331,0.00011807874464869721
1386.8089329120057,1386.8089329120057,1.000142519351091,0.00011808842950626764
1386.8158775261588,1386.8158775261588,1.0001188812369894,0.0001180824482042014
1386.8228221402173,1386.8228221402173,0.9998616210896817,0.00011806827170581706
1386.8297667541842,1386.8297667541842,1.0001664376625765,0.00011808380516400169
1386.8367113680576,1386.8367113680576,1.0000238259538279,0.00011806935650862837
1386.8436559819302,1386.8436559819302,0.9998893730610945,0.00011806341112679963
1386.8506005957572,1386.8506005957572,1.0000157194617694,0.00011808145912248575
1386.8575452094442,1386.8575452094442,0.9999207631578877,0.00011807727083861571
1386.8644898230384,1386.8644898230384,1.0001183134205118,0.00011808115555654311
1386.8714344366313,1386.8714344366313,1.000144438067979,0.00011808216427775717
1386.8783790501323,1386.8783790501323,0.9998492012569914,0.00011806179173166808
1386.88532366354,1386.88532366354,0.9999335009528385,0.00011808064927453436
1386.8922682769003,1386.8922682769003,0.9999876607037648,0.0001180799280680669
1386.8992128901682,1386.8992128901682,1.0000385103306388,0.00011808263054970572
1386.90615750339,1386.90615750339,1.0000367377214228,0.00011808814375257699
1386.913102116518,1386.913102116518,1.000013972208768,0.00011808418340810132
1386.9200467295527,1386.9200467295527,0.9999153628277255,0.00011808228849958715
1386.9269913425876,1386.9269913425876,0.9997450536674617,0.0001180626692895684
1386.9339359555302,1386.9339359555302,1.000064755727589,0.00011809779047974375
1386.9408805683784,1386.9408805683784,1.0000102841463216,0.00011808931862484023
1386.9478251811804,1386.9478251811804,0.9999163050455291,0.00011807539713369663
1386.9547697938901,1386.9547697938901,1.0002124572332118,0.00011810337850058393
1386.961714406599,1386.961714406599,0.9998249900531855,0.00011807989327987172
1386.9686590190745,1386.9686590190745,1.0000625149718678,0.00011809620255675986
1386.9756036315976,1386.9756036315976,0.9999679623014845,0.00011808687529691375
1386.9833815975528,1386.9833815975528,1.0000210918351702,0.00011810026881658173
1386.9908817789053,1386.9908817789053,0.9999486190204492,0.00011808960355310959
1386.9978263911953,1386.9978263911953,1.000070253767123,0.00011810238588546775
1387.0047710033461,1387.0047710033461,1.0001575876198598,0.00011810966648327481
1387.0117156154956,1387.0117156154956,0.9999791186909418,0.0001180960314603231
1387.0186602275994,1387.0186602275994,0.999759682464798,0.00011808682138489961
1387.0256048396104,1387.0256048396104,0.9999913456414614,0.00011810572471324396
1387.0325494515746,1387.0325494515746,0.9998393259790523,0.00011809296979113818
1387.0394940634449,1387.0394940634449,0.9999168935686388,0.00011810014644360702
1387.0464386752228,1387.0464386752228,0.9999842491209006,0.00011810843078174766
1387.0533832869075,1387.0533832869075,1.0000006149632967,0.00011811166714660209
1387.0603278986387,1387.0603278986387,0.9999572160006533,0.0001181041478540518
1387.0672725102297,1387.0672725102297,1.0002172256238737,0.00011812115930739212
1387.0742171217748,1387.0742171217748,1.0000927450499142,0.00011811845329020196
1387.0811617330874,1387.0811617330874,0.9999832525956813,0.00011811950926117801
1387.0881063445381,1387.0881063445381,1.0000599891064985,0.00011812704536032836
1387.0950509558506,1387.0950509558506,1.0000307513362086,0.00011812468807139284
1387.1019955671163,1387.1019955671163,1.0000487336933368,0.00011813764726067049
1387.1089401782422,1387.1089401782422,0.9998875308575151,0.00011812685438276381
1387.1158847893207,1387.1158847893207,0.9998542375744117,0.00011811434229592678
1387.1228294003536,1387.1228294003536,0.9999526336997622,0.00011812005964352597
1387.129774011294,1387.129774011294,0.99993280314577,0.0001181408077771897
1387.1367186222326,1387.1367186222326,1.0002485546692523,0.00011815439554479052
1387.1436632330324,1387.1436632330324,1.0000481764556983,0.00011814634734146228
1387.1506078437862,1387.1506078437862,1.0000157121638753,0.00011814007617437042
1387.1575524544464,1387.1575524544464,0.9999406072598879,0.00011813442800311402
1387.1644970651057,1387.1644970651057,1.0001331042547439,0.00011815353545124498
1387.1714416756733,1387.1714416756733,1.0000333641354806,0.00011814795546111157
1387.1783862861007,1387.1783862861007,0.9998453601342934,0.0001181389232375623
1387.1853308964812,1387.1853308964812,1.000056366126423,0.00011815105207612789
1387.1922755068617,1387.1922755068617,1.000027190232933,0.00011815303317841523
1387.199220117103,1387.199220117103,1.0000256071497868,0.00011815578622134684
1387.206164727298,1387.206164727298,1.000001729869674,0.00011815546722403401
1387.2131093374448,1387.2131093374448,1.0001181482681702,0.00011815323825568605
1387.2200539475466,1387.2200539475466,1.0000300355684242,0.0001181649282663265
1387.2269985575088,1387.2269985575088,0.9999158816034083,0.00011815069612352358
1387.2339431674234,1387.2339431674234,0.9999490411543089,0.00011816622706653061
1387.2408877772452,1387.2408877772452,0.9999039966666077,0.00011815600687587918
1387.2478323870673,1387.2478323870673,0.9999735132026905,0.00011816375627130627
1387.25477699675,1387.25477699675,1.0000057524170203,0.00011816930330573104
1387.261721606385,1387.261721606385,0.9998799892196459,0.0001181576785317104
1387.2686662160208,1387.2686662160208,1.0000313893758879,0.00011816659781009146
1387.2756108254705,1387.2756108254705,1.0001487516309169,0.00011817363965355027
1387.2825554349197,1387.2825554349197,1.0001415584975235,0.00011818185620711963
1387.2895000442757,1387.2895000442757,0.9998908232312076,0.00011816273423449395
1387.2964446535393,1387.2964446535393,1.0000956594073054,0.00011817913811118272
1387.3033892628494,1387.3033892628494,0.9997039229021716,0.00011815009615111306
1387.311167225031,1387.311167225031,0.9999047006945603,0.00011816662560191183
1387.3197785403204,1387.3197785403204,1.0000914293756158,0.00011818780456257295
1387.3270009337198,1387.3270009337198,1.0000735410551576,0.00011818649040771853
1387.3347788957165,1387.3347788957165,0.9997481214366877,0.00011817007935991193
1387.3422790732507,1387.3422790732507,1.000270075619762,0.00011820507679982943
1387.3495014663708,1387.3495014663708,0.9999431684505724,0.00011818148538159809
1387.3575572124566,1387.3575572124566,1.000140500468499,0.00011819275594741169
1387.3645018210675,1387.3645018210675,0.9999730253604723,0.00011819594679351347
1387.3714464296324,1387.3714464296324,0.9998892845272624,0.00011819396445006182
1387.378391038151,1387.378391038151,0.9998545605296622,0.00011819182099782094
1387.385335646529,1387.385335646529,0.9999072949744651,0.00011820679085983759
1387.392280254907,1387.392280254907,1.0000274994319582,0.00011820629203336917
1387.3992248631926,1387.3992248631926,0.9999476773499275,0.00011820924101357319
1387.4061694714317,1387.4061694714317,0.9999884647941253,0.00011821366750294096
1387.413114079483,1387.413114079483,1.0001654591018803,0.00011822100506572897
1387.4200586875359,1387.4200586875359,1.0002768746623967,0.00011822865288745046
1387.4270032955887,1387.4270032955887,1.000084028522006,0.00011822090376531307
1387.4339479035943,1387.4339479035943,0.9997404704991014,0.00011820577615480198
1387.4408925114606,1387.4408925114606,1.000016252142243,0.00011822983543390601
1387.4478371192338,1387.4478371192338,0.9999478286575212,0.00011822594232217029
1387.4547817269606,1387.4547817269606,1.0000625013343494,0.00011823176633416666
1387.4617263346397,1387.4617263346397,1.0000588810679165,0.00011823958725954979
1387.4686709422267,1387.4686709422267,0.9997401432521127,0.00011822072857443574
1387.4756155498137,1387.4756155498137,0.9998925896679918,0.00011822445275091896
1387.482560157261,1387.482560157261,1.0000319184702176,0.00011823895039939638
1387.489504764614,1387.489504764614,1.0001030318301862,0.00011824118454633139
1387.496449371922,1387.496449371922,1.0002135047379148,0.00011825018393719032
1387.503393979183,1387.503393979183,0.9998602820319551,0.00011822740391968076
1387.510338586397,1387.510338586397,1.0000070606473126,0.00011823583390348119
1387.5172831935179,1387.5172831935179,1.000042206229962,0.00011823875252865379
1387.5242278005926,1387.5242278005926,1.0000524930112398,0.00011824383785123255
1387.531172407528,1387.531172407528,1.0000435829150016,0.00011824342602477255
1387.5381170144155,1387.5381170144155,0.9998598321725904,0.00011824710672790072
1387.545061621304,1387.545061621304,0.9999414061923895,0.0001182427752026213
1387.5520062280998,1387.5520062280998,1.0002645334404405,0.00011826915938180574
1387.5589508348016,1387.5589508348016,0.999948323902629,0.00011825362094214816
1387.5658954414098,1387.5658954414098,0.9998339202837982,0.0001182470273480173
1387.5728400480189,1387.5728400480189,0.9999828584804632,0.00011826295931578301
1387.5797846544883,1387.5797846544883,0.9998777899277714,0.00011825419331887063
1387.5867292609578,1387.5867292609578,1.00010083069505,0.00011827737875961145
1387.593673867333,1387.593673867333,1.0000271707063502,0.0001182690104564008
1387.600618473663,1387.600618473663,1.0000323158148792,0.00011827480459618047
1387.6075630798532,1387.6075630798532,1.0000944363074207,0.00011826845202453594
1387.614507685996,1387.614507685996,0.9999811533673479,0.00011827348255246943
1387.6214522920923,1387.6214522920923,0.9999988650661382,0.00011828051996650404
1387.628396898143,1387.628396898143,0.9998161484560499,0.00011826545490713095
1387.6353415041003,1387.6353415041003,1.0000653555722931,0.00011828510780389488
1387.6422861100564,1387.6422861100564,0.9999863161014619,0.00011829542083765761
1387.649230715781,1387.649230715781,0.9997710207869771,0.00011827957522075235
1387.656175321505,1387.656175321505,1.0000774402114534,0.00011830089091058702
1387.6631199272294,1387.6631199272294,0.9999690960480535,0.00011828509151937153
1387.670064532953,1387.670064532953,1.0002044464766624,0.00011831288465280198
1387.6770091384444,1387.6770091384444,0.9999147460126976,0.00011829483653133117
1387.6839537439828,1387.6839537439828,1.000186411836442,0.00011832259356480792
1387.690898349334,1387.690898349334,0.999991185828847,0.00011830300800398128
1387.6978429546853,1387.6978429546853,0.9998820894273306,0.00011830962541617151
1387.7047875599906,1387.7047875599906,1.0000896130279076,0.00011831053306229333
1387.7117321652495,1387.7117321652495,1.0000255055028802,0.00011831954346146877
