time,time,flux,flux_err
1544.3707824825171,1544.3707824825171,0.9993195390953203,0.0007654100976167031
1544.3791159606917,1544.3791159606917,1.000512580056205,0.000764732430997272
1544.3874494389245,1544.3874494389245,1.000222920883771,0.000763541071892594
1544.3957829171957,1544.3957829171957,1.0001906794707407,0.0007622473816964024
1544.4034219389973,1544.4034219389973,0.9995877290766826,0.0006949523154311046
1544.4103665043035,1544.4103665043035,1.0000265582040078,0.0006937554655018966
1544.4173110696447,1544.4173110696447,1.0003713915410093,0.0006931815578281221
1544.4242556350086,1544.4242556350086,0.9997233266613712,0.000692275948323289
1544.431200200408,1544.431200200408,1.0001976542933413,0.0006916986757063069
1544.4381447658423,1544.4381447658423,1.0001629730545194,0.0006919197624992919
1544.4450893312996,1544.4450893312996,1.0014400165925184,0.0006903336179053551
1544.4520338968036,1544.4520338968036,0.9998975100899041,0.0006901896237927147
1544.4589784623192,1544.4589784623192,0.998615743414498,0.000689087232917945
1544.4659230278817,1544.4659230278817,0.9996966130094161,0.0006888186660344722
1544.4728675934552,1544.4728675934552,0.9989195622251937,0.0006883362934634519
1544.4798121590761,1544.4798121590761,1.0008815067872852,0.0006885980039933523
1544.4867567247195,1544.4867567247195,0.9995968874725877,0.0006877840504488761
1544.4937012903981,1544.4937012903981,1.0006932451591612,0.0006879723665222131
1544.5006458560883,1544.5006458560883,1.0004457625523882,0.0006878389042397845
1544.507590421825,1544.507590421825,1.0001031386543984,0.0006872337994558161
1544.5145349875856,1544.5145349875856,1.0005080738861782,0.0006873754423193108
1544.5214795533805,1544.5214795533805,0.9999920037198251,0.0006870008829322602
1544.5284241191987,1544.5284241191987,0.9994870341826589,0.0006865710353562455
1544.5353686850171,1544.5353686850171,1.0003708275235934,0.0006861311645166786
1544.5423132509052,1544.5423132509052,0.9990537789476063,0.0006855051311451706
1544.549257816805,1544.549257816805,0.999015276712302,0.0006857585347321166
1544.55620238274,1544.55620238274,0.9993032561338167,0.0006856709320070169
1544.5631469486862,1544.5631469486862,1.001536010187474,0.0006864696074228007
1544.570091514679,1544.570091514679,1.0009595769107582,0.0006855487502377313
1544.5770360806837,1544.5770360806837,1.0008157216014981,0.0006851222371965797
1544.5839806467113,1544.5839806467113,0.9996735612771847,0.00068475433430422
1544.5909252127744,1544.5909252127744,0.9991095697782308,0.0006846386084649778
1544.5978697788603,1544.5978697788603,1.0000051640791567,0.0006847954878753377
1544.6048143449696,1544.6048143449696,0.9996137271528266,0.0006845477818885838
1544.6117589111022,1544.6117589111022,0.9994810726070398,0.0006841166739191589
1544.6187034772586,1544.6187034772586,1.001167603128652,0.0006841211271241038
1544.6256480434608,1544.6256480434608,0.999068800870498,0.0006840424321558546
1544.6328703923095,1544.6328703923095,1.0005624612755049,0.0006840590810076277
1544.6409260891548,1544.6409260891548,1.0004148603051841,0.0006839754295947171
1544.6478706554276,1544.6478706554276,1.0002709535316292,0.0006832176878973336
1544.6548152217233,1544.6548152217233,0.9992418832393298,0.0006832239970823637
1544.6617597880304,1544.6617597880304,0.999393250700682,0.0006829340144349613
1544.6687043543727,1544.6687043543727,1.000323137745975,0.0006829387876442886
1544.675648920738,1544.675648920738,0.9995483288250966,0.0006829313658652922
1544.6825934871154,1544.6825934871154,1.0011982339401584,0.0006826750179201064
1544.6895380535154,1544.6895380535154,0.9998214839549968,0.0006828929214171965
1544.696482619951,1544.696482619951,1.0000876086721453,0.0006822852013569013
1544.703427186398,1544.703427186398,1.000445640109966,0.0006820971124096578
1544.710371752903,1544.710371752903,0.9998574655065846,0.0006819742716060436
1544.7173163193966,1544.7173163193966,0.9990039190150096,0.0006817594504910718
1544.7242608859135,1544.7242608859135,0.999805700656113,0.0006817006390504277
1544.7312054524652,1544.7312054524652,1.0001297108218636,0.0006815299140236627
1544.7381500190286,1544.7381500190286,1.0000404409859764,0.0006815505939630868
1544.7450945856149,1544.7450945856149,0.9999871803146553,0.0006811232995781057
1544.7520391522369,1544.7520391522369,1.0004927340439032,0.0006811448363740304
1544.7589837188702,1544.7589837188702,0.9998671007724163,0.0006807608902654322
1544.7659282855152,1544.7659282855152,0.9997180730747847,0.0006809478525894653
1544.7728728522065,1544.7728728522065,1.00027968194966,0.0006811621413205144
1544.779817418886,1544.779817418886,1.0004860299448193,0.0006810518771954977
1544.786761985624,1544.786761985624,1.0001894019808368,0.0006810195239274812
1544.7937065523624,1544.7937065523624,0.9992177888927316,0.0006801833070943489
1544.8006511191,1544.8006511191,0.9998915623641682,0.0006804202751347848
1544.807595685896,1544.807595685896,1.0009314057800012,0.0006805999308946778
1544.8145402527043,1544.8145402527043,0.9999581171021553,0.0006801657222938338
1544.8214848195116,1544.8214848195116,0.9994930816728285,0.0006801872514333217
1544.8284293863549,1544.8284293863549,0.9992847747780015,0.0006801403838175218
1544.835373953209,1544.835373953209,0.9993938965982716,0.0006795028441535218
1544.8423185200984,1544.8423185200984,1.0011887477306547,0.0006798831697777919
1544.8492630869994,1544.8492630869994,0.9998404932746991,0.0006792313538604273
1544.8562076539122,1544.8562076539122,1.0003806641649815,0.0006789229686548749
1544.8631522208711,1544.8631522208711,0.9993845465627672,0.0006786973432866252
1544.870096787819,1544.870096787819,1.00084872524536,0.0006792104702732522
1544.8770413547895,1544.8770413547895,1.0009864706972231,0.0006789696215814742
1544.883985921819,1544.883985921819,0.9999199480104768,0.0006780752772072658
1544.8909304887895,1544.8909304887895,0.9996057307875279,0.0006779496159013416
1544.8978750558535,1544.8978750558535,0.9999226363227247,0.0006778546252812226
1544.9048196229057,1544.9048196229057,1.0000233666792464,0.0006780991924581094
1544.9117641899816,1544.9117641899816,1.0000100135424042,0.0006781252893802192
1544.9187087570683,1544.9187087570683,0.9995723145269919,0.0006770480712309377
1544.9256533241792,1544.9256533241792,0.9996797430384472,0.0006771456160286857
1544.932597891301,1544.932597891301,1.00090740897195,0.0006769190658376071
1544.9395424584468,1544.9395424584468,1.0008448850707508,0.000677253417630863
1544.9464870256156,1544.9464870256156,0.9991888256193253,0.0006767997471537262
1544.953431592796,1544.953431592796,0.9993718802307795,0.000676077053552198
1544.9603761599878,1544.9603761599878,1.0001143298822603,0.0006761455558508104
1544.9673207271915,1544.9673207271915,1.0001013643760008,0.0006761590057718632
1544.974265294442,1544.974265294442,0.9990762736019047,0.0006753529531681745
1544.981209861692,1544.981209861692,1.00054695436268,0.0006753062710790783
1544.9881544289424,1544.9881544289424,1.0008731997697715,0.000675294202583868
1544.9950989962388,1544.9950989962388,0.9999070225255787,0.0006749827183527725
1545.002043563524,1545.002043563524,0.9991763976214647,0.0006741934651699891
1545.008988130844,1545.008988130844,1.000481384289825,0.0006746439616613024
1545.0159326981877,1545.0159326981877,0.9993304209078631,0.0006740572543776394
1545.0228772655423,1545.0228772655423,1.0004415479804023,0.0006738114538265735
1545.0298218329094,1545.0298218329094,1.000925697992583,0.0006741909424528491
1545.0367664002872,1545.0367664002872,0.9998186430549678,0.0006738960799554943
1545.0437109677007,1545.0437109677007,0.9997810436711649,0.000673287984658492
1545.0506555351135,1545.0506555351135,0.9998870029710766,0.0006732539852150884
1545.0576001025386,1545.0576001025386,1.000130910562135,0.000673257370486175
1545.0645446699982,1545.0645446699982,0.9992091191964629,0.0006731015609929322
1545.0714892374585,1545.0714892374585,1.0012076284362499,0.0006731701570820078
1545.0784338049298,1545.0784338049298,0.999618639248039,0.0006733312153717482
1545.085378372436,1545.085378372436,0.9992981678279115,0.0006723482738984835
1545.092322939942,1545.092322939942,1.000241931990824,0.0006719305668416407
1545.099267507472,1545.099267507472,0.999701882401876,0.000671948970254675
1545.106212075013,1545.106212075013,1.000459564515793,0.000671647485005546
1545.1131566425659,1545.1131566425659,1.0003068307769698,0.0006712860162879876
1545.1201012101305,1545.1201012101305,0.9997283273937366,0.0006710126808772551
1545.1270457777296,1545.1270457777296,0.999882789719708,0.0006711916217297459
1545.1339903453413,1545.1339903453413,1.0002683081166701,0.0006705067127441087
1545.140934912952,1545.140934912952,0.999699262978163,0.0006705480804795395
1545.1478794805632,1545.1478794805632,1.0000257160100494,0.0006699046124754937
1545.1548240482327,1545.1548240482327,0.9998507014053528,0.0006700136802579238
1545.1617686158784,1545.1617686158784,1.000131307209335,0.0006692996639170489
1545.1687131835595,1545.1687131835595,1.0002526585246199,0.0006692870837318491
1545.1756577512522,1545.1756577512522,0.9998810160229615,0.0006693822305440519
1545.1826023189446,1545.1826023189446,1.0010072811958828,0.0006689054439490996
1545.1895468866724,1545.1895468866724,0.9994407976676124,0.0006687911420836581
1545.1964914544112,1545.1964914544112,0.9995027873194291,0.0006690161094220521
1545.203436022139,1545.203436022139,1.0004881810113653,0.0006688148652620157
1545.2103805899128,1545.2103805899128,1.000254066205947,0.0006687908265579995
1545.2173251576871,1545.2173251576871,1.0005542520232233,0.0006690917199320312
1545.2242697254728,1545.2242697254728,0.9998193156923504,0.0006679243649799905
1545.2312142932703,1545.2312142932703,1.0005119494110137,0.0006685869141772497
1545.2381588610908,1545.2381588610908,1.0000320338813293,0.0006678354415041084
1545.2451034289113,1545.2451034289113,0.9994658495112633,0.0006678491864119774
1545.252047996767,1545.252047996767,0.9986025971062997,0.0006677274103635001
1545.2589925646105,1545.2589925646105,1.0002643778846694,0.0006681956836780508
1545.2659371324783,1545.2659371324783,1.0008819515604575,0.0006677349998404538
1545.2728817003567,1545.2728817003567,0.9996947536549501,0.0006674591809703633
1545.279826268259,1545.279826268259,0.9999401903037706,0.0006677970104452818
1545.2867708361614,1545.2867708361614,1.0001950342003019,0.000667722048592223
1545.293715404087,1545.293715404087,1.0003178002914388,0.0006672418227584474
1545.3006599720238,1545.3006599720238,1.0001484592666428,0.0006671216673929308
1545.3076045399725,1545.3076045399725,0.9998152958631055,0.0006668651091646216
1545.3145491079326,1545.3145491079326,0.9998339415775934,0.000666767674713228
1545.321493675893,1545.321493675893,0.9994255788776651,0.0006664334699948775
1545.3284382438883,1545.3284382438883,1.000325193636277,0.0006665076304592482
1545.3353828118836,1545.3353828118836,0.9999624297995915,0.0006663550832500283
1545.3423273798905,1545.3423273798905,1.0001631862799756,0.0006663257552942199
1545.3492719479095,1545.3492719479095,1.000863642516967,0.0006665398629506844
1545.3562165159506,1545.3562165159506,0.999390352919435,0.0006659668597455133
1545.3631610840043,1545.3631610840043,0.999776313793727,0.0006653664753957041
1545.3701056520463,1545.3701056520463,0.9995337522035671,0.0006660912306411784
1545.377050220123,1545.377050220123,0.9998308172186743,0.0006653346877376785
1545.3839947882113,1545.3839947882113,1.0007185511282128,0.000665572852248352
1545.3909393562994,1545.3909393562994,1.000808161368751,0.0006649932559052838
1545.3978839244114,1545.3978839244114,0.9995944296609881,0.0006651612663240619
1545.4048284925234,1545.4048284925234,1.000103204861456,0.0006644809873658905
1545.411773060658,1545.411773060658,0.999367466806542,0.0006641026665058258
1545.4187176288049,1545.4187176288049,0.9996790069306665,0.0006643215934275554
1545.4256621969394,1545.4256621969394,0.9992488893836589,0.0006638120601558304
1545.4326067651332,1545.4326067651332,0.9999874270068874,0.000663399185892686
1545.4395513332909,1545.4395513332909,1.0009040610949909,0.0006638579770388831
1545.4464959014608,1545.4464959014608,0.9997155600641715,0.0006639751558439171
1545.4534404696774,1545.4534404696774,1.001714063792698,0.0006640872285262595
1545.4603850379053,1545.4603850379053,1.0000112111757193,0.0006631924031194936
1545.46732960611,1545.46732960611,0.9994525511070455,0.0006635891233444231
1545.4742741743498,1545.4742741743498,0.9999785989584803,0.0006632202868013177
1545.4812187426016,1545.4812187426016,0.9995053567064467,0.0006634225810310485
1545.488163310841,1545.488163310841,0.9997597726067273,0.000663312638458921
1545.495107879116,1545.495107879116,1.0000646809723577,0.0006631277106743203
1545.50205244739,1545.50205244739,0.999983086822985,0.000663698538148809
1545.5089970156885,1545.5089970156885,1.0004937265992957,0.0006635577816101964
1545.5159415839746,1545.5159415839746,0.9992648126084415,0.0006637352281964434
1545.5228861522842,1545.5228861522842,0.9995470740405612,0.0006627963147113297
1545.5298307206053,1545.5298307206053,0.9998783509077092,0.0006639272776392672
1545.5367752889501,1545.5367752889501,1.0000708606709754,0.000663431755221516
1545.543719857283,1545.543719857283,1.0002748534363337,0.0006630550391479213
1545.5506644256272,1545.5506644256272,1.0004873873041116,0.0006634465528852169
1545.557608993995,1545.557608993995,1.0004246537644201,0.0006630183074223949
1545.564553562363,1545.564553562363,1.0006972270341972,0.0006633990847027083
1545.5714981307422,1545.5714981307422,0.9995838656516872,0.0006635829417799477
1545.5784426991333,1545.5784426991333,0.9995257511664326,0.0006628627642178188
1545.5853872675477,1545.5853872675477,0.999506834714485,0.0006629857287934563
1545.5923318359503,1545.5923318359503,0.9997936429610575,0.0006628103510433693
1545.5992764043763,1545.5992764043763,1.0002211083226429,0.000663257311688368
1545.606220972814,1545.606220972814,1.0006635790593195,0.000663136131885028
1545.61316554124,1545.61316554124,0.999301351477165,0.0006630568339571821
1545.6201101097124,1545.6201101097124,0.9999534488144836,0.0006633563468699434
1545.6270546781502,1545.6270546781502,0.9997934432079252,0.0006633247805204861
1545.6339992466342,1545.6339992466342,1.0001813607561076,0.0006629979030744844
1545.640943815119,1545.640943815119,1.0003925622531364,0.0006631278241480701
1545.6478883836028,1545.6478883836028,1.000323029686856,0.0006630646780047537
1545.6548329521222,1545.6548329521222,1.0010060143897157,0.0006632794278043379
1545.6617775206294,1545.6617775206294,0.9993332435538704,0.0006630780038819259
1545.6687220891486,1545.6687220891486,0.9994082250771081,0.0006632141003517078
1545.6756666576794,1545.6756666576794,1.0000436274099123,0.0006631329865243055
1545.6826112262218,1545.6826112262218,0.9992264957002824,0.0006632649936398822
1545.6895557947757,1545.6895557947757,1.0003600351009867,0.0006635007594448589
1545.69650036333,1545.69650036333,1.000304057211784,0.0006637210613357241
1545.703444931907,1545.703444931907,1.0009554061235018,0.0006632802821843161
1545.7103895004843,1545.7103895004843,0.9983716724394739,0.0006629872311222137
1545.717334069062,1545.717334069062,0.9999628948616165,0.0006630607790108038
1545.7242786376623,1545.7242786376623,1.0003709198994757,0.0006632066351634469
1545.7312232062632,1545.7312232062632,1.0000985024315263,0.0006630005658021888
1545.7381677748756,1545.7381677748756,0.9998030001957036,0.0006630747605458269
1545.7451123434992,1545.7451123434992,0.9999359321678941,0.000662959787275424
1545.7520569121348,1545.7520569121348,1.0010111791144805,0.0006632379024242757
1545.7590014807702,1545.7590014807702,1.0006590117490055,0.0006632339912953574
1545.7659460494174,1545.7659460494174,0.9987783301840014,0.0006626714867150761
1545.772890618088,1545.772890618088,0.9995283457755241,0.0006625183469703438
1545.7798351867464,1545.7798351867464,1.0006170623462214,0.0006631147689025017
1545.7867797554172,1545.7867797554172,1.0003734405328972,0.0006630606063143137
1545.7937243241224,1545.7937243241224,0.9993029160648262,0.0006629471949240841
1545.8006688928047,1545.8006688928047,1.0000314059223023,0.0006627241213070397
1545.8076134615098,1545.8076134615098,1.0004381364217376,0.0006632270579558532
1545.8145580302155,1545.8145580302155,0.9993498533977665,0.0006630584592278652
1545.8215025989439,1545.8215025989439,1.0005564111608272,0.0006635811199839332
1545.828447167673,1545.828447167673,1.00022982946347,0.0006633140755358373
1545.8353917364013,1545.8353917364013,0.9999063242026125,0.000663273158050516
1545.8423363051531,1545.8423363051531,1.0001581614834436,0.0006629310273059331
1545.8492808738938,1545.8492808738938,0.9988128778997132,0.0006627874058873055
1545.8562254426688,1545.8562254426688,1.0005515437776564,0.0006632759459690032
1545.8631700114443,1545.8631700114443,1.000305615985934,0.0006632929285929942
1545.8701145802193,1545.8701145802193,0.999586416631632,0.0006628956410840749
1545.8770591489942,1545.8770591489942,1.0000386668227215,0.0006628310982465141
1545.8840037177815,1545.8840037177815,0.9997838847531748,0.0006630660091330968
1545.8909482866031,1545.8909482866031,0.9996065302132908,0.0006629704678991456
1545.8978928554016,1545.8978928554016,1.0016698914034792,0.0006633456978297828
1545.9048374242236,1545.9048374242236,1.0001653180608476,0.000662629568656793
1545.9117819930448,1545.9117819930448,1.0005841001655047,0.0006628573876156836
1545.9187265618905,1545.9187265618905,1.0001188334717719,0.0006631740815316141
1545.9256711307237,1545.9256711307237,1.0001616733759864,0.0006632887172916561
1545.9326156995803,1545.9326156995803,0.9992766154222187,0.0006630119716670237
1545.9395602684372,1545.9395602684372,0.9991178632742089,0.0006622654156397452
1545.9465048373058,1545.9465048373058,0.9998345283855776,0.000663166387125631
1545.9534494061857,1545.9534494061857,1.0002524577696357,0.000663395121919089
1545.960393975054,1545.960393975054,0.9993144906335859,0.000662973723534822
1545.9673385439455,1545.9673385439455,1.000100417108841,0.0006632197403656055
1545.974283112849,1545.974283112849,1.001225496157242,0.0006633473517961978
1545.9812276817406,1545.9812276817406,1.0010875429850876,0.0006636258362603259
1545.988172250667,1545.988172250667,0.9994357421020847,0.0006631711182268825
1545.9951168195819,1545.9951168195819,0.9996258965827517,0.0006632786360113726
1546.0020613885088,1546.0020613885088,1.0000477212640402,0.0006632976105690074
1546.0090059574352,1546.0090059574352,0.9997159780729726,0.0006635285612830745
1546.0159505263734,1546.0159505263734,0.9997359627296885,0.0006630259099554651
1546.0228950953347,1546.0228950953347,0.9994120667357995,0.0006633988292895477
1546.0298396642845,1546.0298396642845,0.9999896309757584,0.000663205928752782
1546.0367842332462,1546.0367842332462,1.0003419801797784,0.0006635262062076467
1546.043728802219,1546.043728802219,0.9996174252222121,0.00066344624276964
1546.050673371204,1546.050673371204,1.0000213914607907,0.0006631583200829032
1546.0576179401892,1546.0576179401892,1.0010291991517244,0.0006630901033208087
1546.0645625091736,1546.0645625091736,0.9999469680581781,0.0006631450059488386
1546.0715070781819,1546.0715070781819,0.9999191817327358,0.0006632365078280543
1546.0784516471897,1546.0784516471897,1.000425833202431,0.0006632012412910013
1546.0853962161978,1546.0853962161978,0.9994451896366531,0.0006627865488589736
1546.0923407852174,1546.0923407852174,1.0006700023832151,0.0006631468434850671
1546.099285354237,1546.099285354237,0.9991882224168945,0.0006634539265548693
1546.1062299232917,1546.1062299232917,0.9992982797773726,0.0006629833846810532
1546.1131744923114,1546.1131744923114,1.0004372356934297,0.0006632251907297186
1546.120119061366,1546.120119061366,1.0006321188352794,0.000662907449242596
1546.1270636304323,1546.1270636304323,0.9992379039385313,0.0006627222803282262
1546.1340081994986,1546.1340081994986,1.0011378169606866,0.0006629860709553681
1546.1409527685644,1546.1409527685644,0.9998699253002299,0.0006628743830870132
