time,time,flux,flux_err
1437.9990921291158,1437.9990921291158,1.0001293313673119,0.00018923146903931622
1438.0074257168335,1438.0074257168335,0.9999329619913945,0.0001890451747236545
1438.0150648389333,1438.0150648389333,0.9995880810565211,0.00017235690338972831
1438.0220094955098,1438.0220094955098,1.0000557663814975,0.0001723367044082731
1438.0289541523655,1438.0289541523655,1.0002525221618253,0.00017222572822200207
1438.035898809128,1438.035898809128,1.000150527852356,0.0001720720988461066
1438.0428434657974,1438.0428434657974,0.9997498483244796,0.0001719569524877785
1438.0497881229326,1438.0497881229326,1.0000475834266243,0.00017183197370952718
1438.0567327801605,1438.0567327801605,1.0000132419313497,0.00017174010929314897
1438.0636774371094,1438.0636774371094,1.000233682592384,0.00017168706890744682
1438.0706220944305,1438.0706220944305,1.0000929720026202,0.000171530843613477
1438.0775667516587,1438.0775667516587,1.0001293259439183,0.00017140265792593175
1438.084511409073,1438.084511409073,0.9999747422558931,0.00017134651522533043
1438.0914560664874,1438.0914560664874,0.999684854322797,0.00017119762914901627
1438.0984007239022,1438.0984007239022,0.9997588878947191,0.00017111256392350724
1438.1053453814095,1438.1053453814095,1.0002693266094784,0.00017114347889979792
1438.11229003901,1438.11229003901,0.9995887573893066,0.00017096032732882407
1438.1192346966106,1438.1192346966106,1.0001488092278839,0.00017094152526058332
1438.1261793543047,1438.1261793543047,1.0001010809123154,0.00017090252327353378
1438.1331240119052,1438.1331240119052,1.0000493479782975,0.00017081291823075242
1438.1400686695993,1438.1400686695993,1.000129029974963,0.00017074256181938283
1438.1470133274793,1438.1470133274793,1.0002323533984605,0.0001706899857441784
1438.1539579851733,1438.1539579851733,0.9998938530095863,0.00017059914685723325
1438.16090264296,1438.16090264296,0.9999105421104876,0.00017055788294651793
1438.16784730084,1438.16784730084,0.99998044916165,0.00017053790738159113
1438.1747919586273,1438.1747919586273,1.0001736861565034,0.00017044779458783515
1438.1817366165071,1438.1817366165071,0.9997901195833456,0.00017036968330598414
1438.1886812743874,1438.1886812743874,1.000087652280015,0.00017032370566590814
1438.1956259321744,1438.1956259321744,0.9998617678698141,0.00017029284678629714
1438.2025705900542,1438.2025705900542,0.9997894675470611,0.00017021036852283222
1438.2095152479346,1438.2095152479346,0.9999469049077012,0.00017017542861857203
1438.2164599058144,1438.2164599058144,1.0004355964561948,0.0001701582850422994
1438.2234045636944,1438.2234045636944,0.9999877229576946,0.00017003925520016572
1438.2303492214814,1438.2303492214814,0.999986542533841,0.00016997082993835277
1438.2372938793612,1438.2372938793612,0.9997366683107168,0.00016992852515145158
1438.2442385371487,1438.2442385371487,1.0001842331932822,0.00016990600427449146
1438.2511831949355,1438.2511831949355,1.0000369063607344,0.00016989512789854108
1438.2581278528155,1438.2581278528155,1.000040100559707,0.00016982550183281014
1438.265072510509,1438.265072510509,1.0001179699652325,0.00016979399651330065
1438.272017168203,1438.272017168203,0.9998638845323586,0.00016978267209571973
1438.2789618259899,1438.2789618259899,0.9998843052817525,0.0001697005868556001
1438.285906483684,1438.285906483684,0.9999690519926064,0.00016970629714693178
1438.2928511412847,1438.2928511412847,1.0000069999584849,0.00016967144390091826
1438.2997957988857,1438.2997957988857,1.000009750066784,0.0001696177205336961
1438.3067404565793,1438.3067404565793,0.9998382210040052,0.00016961121666920332
1438.3136851140866,1438.3136851140866,1.0001258028194595,0.0001696224395824555
1438.3206297715944,1438.3206297715944,1.000179478845046,0.00016957506928890875
1438.3275744290086,1438.3275744290086,0.999838260061957,0.00016954432438647955
1438.3345190864231,1438.3345190864231,1.0002516431622108,0.00016955015747735524
1438.3414637438375,1438.3414637438375,1.0000642755803741,0.00016950079336173059
1438.3484084011588,1438.3484084011588,0.999642723400848,0.00016947646537590828
1438.3553530583872,1438.3553530583872,1.000083643276916,0.0001694335508649799
1438.3622977157083,1438.3622977157083,1.0001074024461905,0.00016941479991416686
1438.369242372657,1438.369242372657,0.9996110700363046,0.0001693942923261026
1438.3761870300714,1438.3761870300714,1.000201412880855,0.00016950301815500207
1438.3831316870203,1438.3831316870203,1.000044179430877,0.00016938652940115214
1438.390076343969,1438.390076343969,1.0000143742776244,0.00016935818370474118
1438.397021000918,1438.397021000918,1.0000049703138734,0.0001692939745578014
1438.4039656578666,1438.4039656578666,1.0000487241234315,0.00016930554727782057
1438.410910314443,1438.410910314443,1.000416290457196,0.00016925058714730798
1438.4178549712983,1438.4178549712983,0.99952771533573,0.00016923326111806543
1438.4247996278746,1438.4247996278746,0.9998924538668156,0.0001692363192297072
1438.431744284544,1438.431744284544,1.0000400243201066,0.0001692505367239558
1438.438688941027,1438.438688941027,1.0000273313566939,0.00016925774332489499
1438.44563359751,1438.44563359751,1.000317050583958,0.00016931786501098053
1438.4525782539004,1438.4525782539004,0.999948328862617,0.00016931132094053002
1438.4595229101972,1438.4595229101972,0.9998448338912329,0.0001692230054461869
1438.466467566494,1438.466467566494,1.0000193572966913,0.00016927985474792063
1438.473412222511,1438.473412222511,0.9996798211998741,0.00016926365314274807
1438.4803568787152,1438.4803568787152,1.000043472976075,0.00016924251750430924
1438.4873015346393,1438.4873015346393,1.0000913659371804,0.00016925067526684826
1438.4942461906567,1438.4942461906567,1.0002858735476186,0.0001692406606523498
1438.5011908463946,1438.5011908463946,1.0000117886142177,0.0001692886335417382
1438.5081355022262,1438.5081355022262,0.9997686885329982,0.00016925588149278414
1438.5150801577777,1438.5150801577777,1.00005968851817,0.00016927918006657392
1438.5220248134226,1438.5220248134226,1.0001085951588433,0.00016923322809555354
1438.5289694688813,1438.5289694688813,0.9999825008355515,0.0001692544664837273
1438.53591412434,1438.53591412434,0.9997097750445054,0.00016924923567663614
1438.5428587796123,1438.5428587796123,0.9999975173493703,0.00016928417406433354
1438.5498034348848,1438.5498034348848,1.0003758452585982,0.00016930369001702314
1438.556748089971,1438.556748089971,0.9999355900994462,0.00016928227586159435
1438.5636927449636,1438.5636927449636,1.0000646840071539,0.00016925900957010675
1438.5706373999567,1438.5706373999567,1.0002532943382163,0.00016927261714123394
1438.577582054857,1438.577582054857,1.000178892533276,0.00016930175000368083
1438.5845267096631,1438.5845267096631,0.9998623155250982,0.00016923824035795028
1438.591471364284,1438.591471364284,0.9999120531774166,0.00016928137782187868
1438.5984160189046,1438.5984160189046,0.9997676711325996,0.000169233961201832
1438.6053606733387,1438.6053606733387,0.9997645776626796,0.00016925539296898867
1438.61230532768,1438.61230532768,0.9998462134742393,0.00016932240202320597
1438.6192499819276,1438.6192499819276,1.0002090714675205,0.00016922836713813836
1438.6261946361758,1438.6261946361758,1.0001652916420674,0.0001692852362037014
1438.633139290237,1438.633139290237,1.0001875114868906,0.0001692811176790471
1438.6400839441123,1438.6400839441123,1.0002561300097894,0.00016928147326239235
1438.6470285979879,1438.6470285979879,0.99997750775247,0.00016927046829437855
1438.6539732518636,1438.6539732518636,1.000055330781333,0.00016929971123699316
1438.6609179054597,1438.6609179054597,0.9997959257782402,0.0001693089473871637
1438.6678625590555,1438.6678625590555,0.9998944403497454,0.00016929119738808484
1438.6748072125586,1438.6748072125586,0.9995616947685232,0.0001692881713038626
1438.681751865875,1438.681751865875,1.0001370362683448,0.0001693022912329366
1438.6886965191914,1438.6886965191914,1.0004338464697053,0.00016934219966828294
1438.6956411722285,1438.6956411722285,1.0002198076536843,0.00016933075880541188
1438.702585825359,1438.702585825359,1.000042342996349,0.00016928477932313444
1438.7095304782101,1438.7095304782101,0.9998685441599399,0.000169281448424918
1438.7164751310609,1438.7164751310609,0.9999407240735249,0.00016926955231705306
1438.7234197838188,1438.7234197838188,0.9999417849358819,0.00016925976811546896
1438.7303644363903,1438.7303644363903,1.0000687053294754,0.00016926911932807956
1438.7373090889619,1438.7373090889619,0.9998352371201168,0.00016927817218836185
1438.7442537412542,1438.7442537412542,0.9998198708178588,0.0001693170468554345
1438.751198393546,1438.751198393546,1.0004253835111,0.0001693252831785014
1438.7581430458383,1438.7581430458383,1.0002045909440451,0.00016930488355185468
1438.765087697758,1438.765087697758,0.9998270218231765,0.00016924510619197847
1438.772032349771,1438.772032349771,1.0001349750507933,0.00016926089603973304
1438.7789770015975,1438.7789770015975,0.9998896077306405,0.00016925049692805968
1438.7859216533304,1438.7859216533304,1.000054726585206,0.0001692921953066046
1438.792866304971,1438.792866304971,0.9998929322620385,0.000169328066073396
1438.799810956518,1438.799810956518,0.9998686691335502,0.0001692762407130189
1438.8067556077856,1438.8067556077856,0.9996342436686823,0.00016926263712909706
1438.8137002591466,1438.8137002591466,1.0001949112018786,0.0001693110023760095
1438.820644910321,1438.820644910321,1.0001010223845714,0.00016927900963498052
1438.8275895613094,1438.8275895613094,1.0001947339971624,0.00016931387599464085
1438.834534212298,1438.834534212298,1.0002801381195012,0.00016927041457629686
1438.8414788630996,1438.8414788630996,0.9999757162143428,0.0001692741800113353
1438.848423513809,1438.848423513809,0.9998083446843384,0.00016922899914164588
1438.8553681643314,1438.8553681643314,0.9998555528122715,0.0001692672067502756
1438.8623128148542,1438.8623128148542,0.999944376017293,0.00016930792656312502
1438.8692574651907,1438.8692574651907,0.9999792099793874,0.0001692549278568249
1438.8762021153404,1438.8762021153404,1.0002302242394534,0.0001693514724761452
1438.883146765677,1438.883146765677,0.9997640168928452,0.0001692427355949704
1438.8900914156409,1438.8900914156409,1.0000948533730991,0.00016929450632231495
1438.8970360656047,1438.8970360656047,0.9999806647242983,0.00016927214555435304
1438.9039807151028,1438.9039807151028,1.0003045022223673,0.000169299325490778
1438.9109253648805,1438.9109253648805,1.000236857547053,0.00016928218639244047
1438.9178700143789,1438.9178700143789,0.9999905700989793,0.0001692555849335096
1438.924814663784,1438.924814663784,0.9998174383152737,0.0001693067167997994
1438.9317593130959,1438.9317593130959,1.0001588035442797,0.00016929451736963304
1438.9387039623145,1438.9387039623145,0.9996897032652482,0.00016930051371925875
1438.9456486113472,1438.9456486113472,0.9999399104536906,0.00016930632630438746
1438.9525932602862,1438.9525932602862,0.9998809274682638,0.00016929766269385327
1438.959537909133,1438.959537909133,0.9999713786945972,0.00016923577434420006
1438.9664825578857,1438.9664825578857,1.000524003193942,0.00016935320945917284
1438.9734272063597,1438.9734272063597,0.9999615447762601,0.00016932329426811438
1438.9803718549267,1438.9803718549267,1.0000446656213782,0.00016935796069453602
1438.987316503214,1438.987316503214,1.0001502888204588,0.0001693515604434279
1438.9942611514084,1438.9942611514084,1.0000498496300128,0.00016927535110962367
1439.0012057996025,1439.0012057996025,0.9999471837531072,0.00016929389188168127
1439.0081504475177,1439.0081504475177,0.9998492238511523,0.00016928248900633194
1439.0150950954326,1439.0150950954326,1.0000339252297954,0.000169298510221845
1439.022039743068,1439.022039743068,1.0000168678838313,0.00016925037448468078
1439.0289843907035,1439.0289843907035,1.0000255198000683,0.00016930837917913572
1439.0359290383394,1439.0359290383394,0.9999279800272077,0.00016928689660240134
1439.0428736856024,1439.0428736856024,0.9997724878259403,0.00016926373184287857
1439.0498183329585,1439.0498183329585,1.000089600206675,0.0001692696366225837
1439.0567629800355,1439.0567629800355,1.0000071283907033,0.00016929310894718484
1439.0637076271119,1439.0637076271119,1.0002508589256551,0.0001693299957665428
1439.0706522740027,1439.0706522740027,0.9999583643630542,0.00016929960108455754
1439.0775969207996,1439.0775969207996,1.0000504207928007,0.000169295823228613
1439.0845415675042,1439.0845415675042,0.9999682584483122,0.00016929592661271432
1439.0914862139289,1439.0914862139289,1.000104471753867,0.0001693346100988833
1439.098430860447,1439.098430860447,0.999758863739876,0.00016930623136516404
1439.1053755066855,1439.1053755066855,1.000030083401307,0.00016927632530730493
1439.1123201528312,1439.1123201528312,0.9998949011452953,0.00016935098657285387
1439.1192647989762,1439.1192647989762,0.9998216308643719,0.00016929545252974496
1439.1262094448427,1439.1262094448427,1.0000579900691275,0.00016929339128832942
1439.1331540906153,1439.1331540906153,1.0002559008606355,0.00016928928958053532
1439.1400987362954,1439.1400987362954,1.000214096514171,0.00016933350901788692
1439.1470433818818,1439.1470433818818,0.9999071726737634,0.00016930425356475925
1439.1539880271891,1439.1539880271891,1.000201968680723,0.0001693024495950855
1439.1609326724963,1439.1609326724963,0.9994961643325346,0.00016932756860508173
1439.1678773178035,1439.1678773178035,0.9999260529258975,0.00016930573388501013
1439.1748219629246,1439.1748219629246,1.0001226912184904,0.0001693364758251604
1439.1817666078593,1439.1817666078593,1.0001747112733597,0.00016934145426579882
1439.1887112527008,1439.1887112527008,0.999892229120267,0.00016929684443848242
1439.1956558974493,1439.1956558974493,0.9999496589307324,0.00016934050453462217
1439.2026005420116,1439.2026005420116,1.000276879739164,0.00016931782315758527
1439.2095451864805,1439.2095451864805,1.0001485050678554,0.0001693094747179551
1439.2164898308565,1439.2164898308565,0.9996562677395134,0.0001692958480285445
1439.2234344750464,1439.2234344750464,0.9999215888304596,0.00016929845649454398
1439.230379119143,1439.230379119143,0.9999221832309164,0.00016933021042994716
1439.2373237630532,1439.2373237630532,1.0001190648479183,0.00016934836087810192
1439.2442684069633,1439.2442684069633,0.9999739769623908,0.00016931702119676544
1439.2512130505943,1439.2512130505943,1.0001333933613243,0.00016930982460898423
1439.2581576943185,1439.2581576943185,0.9999723084649721,0.00016930158821663825
1439.2651023377628,1439.2651023377628,0.9999697460051916,0.00016929426469735568
1439.2720469811143,1439.2720469811143,0.9999841490073633,0.00016926390041143005
1439.278991624466,1439.278991624466,0.9998383748664352,0.00016930258014195956
1439.2859362675376,1439.2859362675376,1.0000056034619589,0.00016926676767039142
1439.292880910517,1439.292880910517,1.0002424792513804,0.00016927043873423689
1439.2998255534956,1439.2998255534956,0.9999275586536417,0.00016932652523193685
1439.3067701960088,1439.3067701960088,1.000158195691915,0.0001693609814745709
1439.3137148387088,1439.3137148387088,0.999826916563331,0.0001692406967665163
1439.320659481222,1439.320659481222,1.0003774323863917,0.0001692962217250348
1439.3276041236422,1439.3276041236422,0.9997864023326974,0.00016928839817519813
1439.3345487658762,1439.3345487658762,1.0000059007267748,0.00016930880031826282
1439.3414934080167,1439.3414934080167,0.9998741455048551,0.00016928805472874925
1439.3484380500645,1439.3484380500645,0.999914448441128,0.0001692911466123771
1439.3553826918326,1439.3553826918326,1.000015414751298,0.0001693407652186348
1439.3623273336939,1439.3623273336939,0.999951435566083,0.00016930112874137846
1439.3692719753694,1439.3692719753694,1.0000983414133309,0.0001692944389176554
1439.3762166169513,1439.3762166169513,1.000187209578569,0.0001693746222455271
1439.3831612583467,1439.3831612583467,0.9998919531467474,0.0001693054037103984
1439.3901058995561,1439.3901058995561,1.0000211594575652,0.00016934661017243676
1439.3970505407656,1439.3970505407656,0.9999129649804175,0.00016935998663072406
1439.4039951818822,1439.4039951818822,1.0001142029511665,0.00016935657826265034
1439.4109398227188,1439.4109398227188,1.0000475522441408,0.0001693380634100753
1439.4178844636488,1439.4178844636488,1.0000238658249776,0.00016937191835627365
1439.4248291042998,1439.4248291042998,0.9999174821449592,0.00016930109247547092
1439.4317737448573,1439.4317737448573,1.0000320821894835,0.00016926880131052814
1439.4387183851352,1439.4387183851352,0.9998582149321884,0.00016933853300182456
1439.4456630255065,1439.4456630255065,0.9998455699785586,0.00016933647694715142
1439.4526076656914,1439.4526076656914,0.9999742957391508,0.00016934742294912484
1439.4595523057837,1439.4595523057837,1.0004070268763001,0.00016932348485624793
1439.466496945689,1439.466496945689,1.0001739852630611,0.00016934097421703097
1439.4734415855014,1439.4734415855014,1.0001469742235398,0.00016934999094696628
1439.4803862252209,1439.4803862252209,0.9999181878428516,0.00016928467185524477
1439.4873308649403,1439.4873308649403,0.999942542071669,0.00016929405443304483
1439.4942755042869,1439.4942755042869,1.0000601403028255,0.0001693373302670477
1439.5012201436336,1439.5012201436336,1.0003045478926542,0.00016939326133978786
1439.5081647827942,1439.5081647827942,0.9999374408074274,0.00016935074318081503
1439.5151094218616,1439.5151094218616,1.0000018103898276,0.00016934270411920636
1439.5220540609291,1439.5220540609291,0.9998408687580674,0.0001693587300132837
1439.52899869981,1439.52899869981,0.9998017093481628,0.00016929564072344175
1439.5359433384117,1439.5359433384117,0.9999999039911426,0.00016930672781395421
1439.5428879772003,1439.5428879772003,1.000212568564137,0.00016934709376797405
1439.5498326155223,1439.5498326155223,0.9998512202435862,0.0001693220019572615
1439.5567772538448,1439.5567772538448,1.0000869261090677,0.00016933475974215733
1439.563721892167,1439.563721892167,1.0000733691041874,0.0001693546093694171
1439.5706665303965,1439.5706665303965,0.9999795816783601,0.00016929524837372775
1439.577611168346,1439.577611168346,0.9998326433211322,0.0001693402062865245
1439.5845558062958,1439.5845558062958,1.0000224433460967,0.00016928080922435962
1439.5915004439662,1439.5915004439662,0.9999921934724624,0.00016933538857853722
1439.598445081637,1439.598445081637,0.9997936613412153,0.00016928447536333096
1439.605389719121,1439.605389719121,1.0001835026659365,0.00016932098272446873
1439.612334356605,1439.612334356605,1.0000509168095624,0.00016928457899835101
1439.6192789939028,1439.6192789939028,1.0003591231514353,0.0001693950044961457
1439.6262236311081,1439.6262236311081,1.0000389416821382,0.00016930895671217559
1439.6331682680332,1439.6331682680332,1.0001832168096176,0.00016932780181556423
1439.6401129050514,1439.6401129050514,0.9999387095655707,0.000169358453760869
1439.6470575417904,1439.6470575417904,0.9996460134232237,0.00016935265571289097
1439.65400217853,1439.65400217853,1.0001580621789796,0.0001693357641188419
1439.6609468150825,1439.6609468150825,1.0000351062911328,0.00016927893290233142
1439.6678914515426,1439.6678914515426,1.0000168320229075,0.0001693537534559856
1439.674836087816,1439.674836087816,0.9996542830866103,0.00016931075410280049
1439.6817807240895,1439.6817807240895,0.999862736158344,0.0001693245707441486
1439.6887253600833,1439.6887253600833,1.0000566369703598,0.00016936606433709948
1439.6956699960772,1439.6956699960772,1.0003383870895444,0.00016935203759967988
1439.7026146320711,1439.7026146320711,0.9999817364070582,0.0001693327578797094
1439.7095592675998,1439.7095592675998,0.9998332635958113,0.00016937674788937798
1439.7165039033146,1439.7165039033146,1.0000611295452813,0.00016934527823357013
1439.7234485387498,1439.7234485387498,0.9999880076633826,0.00016936375916034267
1439.7303931740917,1439.7303931740917,1.0000751164910606,0.00016938026356916577
1439.7373378094342,1439.7373378094342,0.99974930642474,0.000169332955302476
1439.7442824444965,1439.7442824444965,1.0002720313147264,0.00016937701494419797
