time,time,flux,flux_err
1683.3552171543022,1683.3552171543022,0.999779611566684,0.000308188543636707
1683.36355056569,1683.36355056569,1.0003779637037378,0.00030832339505910495
1683.3711895260453,1683.3711895260453,1.0001936585909579,0.0002813648488867338
1683.3781340354697,1683.3781340354697,1.0000901150164667,0.0002814235349716065
1683.3850785447535,1683.3850785447535,0.9994644084410386,0.00028129153522106384
1683.3920230540377,1683.3920230540377,0.999818079846895,0.0002812549828869402
1683.3989675633682,1683.3989675633682,0.999419183228867,0.0002812767703701876
1683.4059120725592,1683.4059120725592,1.0006360087191288,0.0002813839009013334
1683.4128565817973,1683.4128565817973,1.000382633669769,0.000281350057758974
1683.4198010909415,1683.4198010909415,1.0001226575180242,0.00028136636567710244
1683.4267456000398,1683.4267456000398,1.0000971892346358,0.0002813015203562214
1683.4336901090442,1683.4336901090442,0.9997494321856495,0.00028125534609757324
1683.4406346182823,1683.4406346182823,0.9995587580314831,0.0002812329514440896
1683.447579127287,1683.447579127287,1.0002768485063838,0.000281248367873232
1683.4545236362912,1683.4545236362912,0.9996262354358182,0.0002811414179686719
1683.4614681450635,1683.4614681450635,1.000643648064491,0.0002812898431750725
1683.4684126540683,1683.4684126540683,0.9996633896358738,0.0002811279615875498
1683.4753571629801,1683.4753571629801,1.000177849978495,0.00028127506658984035
1683.482301671845,1683.482301671845,1.0000828005067572,0.0002812045310589168
1683.4892461806635,1683.4892461806635,0.9999775872567611,0.0002811579293985816
1683.4961906894823,1683.4961906894823,0.9998727898105549,0.0002811582571251128
1683.5031351982543,1683.5031351982543,1.000046201866508,0.00028121062545133607
1683.5100797070263,1683.5100797070263,1.000024544143829,0.0002811242798145226
1683.5170242157515,1683.5170242157515,0.999568744197323,0.0002810390802997436
1683.5239687243836,1683.5239687243836,0.9999171641795493,0.0002811946437701181
1683.5309132331095,1683.5309132331095,1.0002947036521714,0.0002812683791521444
1683.5378577416948,1683.5378577416948,1.0005175327906124,0.0002812822993585564
1683.5448022503274,1683.5448022503274,0.9999006901687336,0.000281124749403563
1683.5528578803066,1683.5528578803066,0.9997076886293034,0.0002811225023459018
1683.561191290554,1683.561191290554,1.0004432381627935,0.00028116260192945415
1683.5709136025089,1683.5709136025089,0.9999204456703206,0.0002811141689773208
1683.5781358913616,1683.5781358913616,0.9997517007761741,0.0002810474176108132
1683.586469301515,1683.586469301515,0.9996330225528517,0.00028108164982697996
1683.593413809962,1683.593413809962,0.9999928282478272,0.0002811352435914355
1683.6003583184543,1683.6003583184543,1.0003120900421143,0.0002811780945856482
1683.608969508828,1683.608969508828,1.0002308004826397,0.0002810920719782899
1683.6170251385756,1683.6170251385756,0.9997019291664138,0.0002811177146075159
1683.6239696469288,1683.6239696469288,0.9999345059599323,0.0002810544227998593
1683.6309141552815,1683.6309141552815,1.0003267985407795,0.00028103054046608745
1683.6392475652488,1683.6392475652488,1.0000419760932364,0.0002810311770659596
1683.646192073555,1683.646192073555,1.0016818656545432,0.00028094941469473044
1683.653136581815,1683.653136581815,0.9999512021322667,0.000281002936684521
1683.6600810901211,1683.6600810901211,0.9998137123983512,0.0002809547299368765
1683.6670255983347,1683.6670255983347,1.0005930368403828,0.0002811105671865906
1683.6739701065471,1683.6739701065471,1.0000077662481892,0.0002810613253244643
1683.6809146148073,1683.6809146148073,1.0000063622509276,0.0002811031704425629
1683.6878591229743,1683.6878591229743,0.9996384513118665,0.00028093359270941245
1683.6948036311871,1683.6948036311871,1.0004821162074713,0.0002810866173093815
1683.7017481393073,1683.7017481393073,0.9998185274116583,0.0002809775759418947
1683.70869264752,1683.70869264752,0.9994352181446136,0.00028100151718833666
1683.7156371556405,1683.7156371556405,1.0001258805293074,0.00028099568991632473
1683.7225816637606,1683.7225816637606,0.9999147505500667,0.00028097241810877253
1683.7295261718805,1683.7295261718805,1.0002233110689427,0.00028102602881021076
1683.736470679954,1683.736470679954,0.9998706315710125,0.0002808857421697621
1683.7434151880275,1683.7434151880275,1.0001648351973995,0.00028097577721662595
1683.7503596961008,1683.7503596961008,0.9995795912634954,0.00028086713063926494
1683.7573042041743,1683.7573042041743,1.0001085767870532,0.0002810281513504646
1683.7642487122478,1683.7642487122478,1.0004506377210642,0.00028113286127343773
1683.7711932202747,1683.7711932202747,1.0001087252599739,0.0002810249539359462
1683.7781377283015,1683.7781377283015,1.0000852329976115,0.0002809276598900371
1683.7850822362823,1683.7850822362823,0.9999613851348471,0.0002809429853177104
1683.7920267443556,1683.7920267443556,0.9994080674585047,0.00028093054598426993
1683.7989712522892,1683.7989712522892,1.0002316840454257,0.0002809787989672738
1683.80591576027,1683.80591576027,0.9997593611979122,0.0002808455076695969
1683.8128602682962,1683.8128602682962,0.9995259786506772,0.00028080359994348545
1683.819804776184,1683.819804776184,0.9999586339961775,0.00028089847707573386
1683.826749284257,1683.826749284257,1.0009399710398283,0.0002811210914173726
1683.8336937920983,1683.8336937920983,1.000510951326352,0.0002809707706598888
1683.840638300125,1683.840638300125,0.9998409191654527,0.00028081920128198416
1683.8475828080118,1683.8475828080118,0.999782391909817,0.00028087782920633
1683.8545273158993,1683.8545273158993,0.9999803360582474,0.0002809600955681145
1683.8614718239264,1683.8614718239264,0.9999704406296731,0.00028087734498874256
1683.868416331767,1683.868416331767,1.0000133791647838,0.00028094474385015556
1683.8753608396073,1683.8753608396073,0.9996276171909131,0.0002808478642920265
1683.8823053476342,1683.8823053476342,1.0007557687728812,0.000280730182470757
1683.8917498783444,1683.8917498783444,0.9996074352039044,0.00028075871534546996
1683.9017499696347,1683.9017499696347,1.0004845254344101,0.0002808934642893286
1683.9086944774754,1683.9086944774754,0.9998013235062062,0.00028077197391196044
1683.9156389854093,1683.9156389854093,0.9998205874815442,0.00028087648012855237
1683.9225834933895,1683.9225834933895,0.9999105006261846,0.00028081760068662863
1683.9295280012302,1683.9295280012302,1.0005710952566411,0.000280892646899592
1683.9364725090709,1683.9364725090709,1.0001440082275623,0.00028085290359153363
1683.9434170169116,1683.9434170169116,1.000283766821954,0.00028088343751903397
1683.9503615247522,1683.9503615247522,0.9996540737192807,0.00028078477303850513
1683.957306032593,1683.957306032593,1.0002260310036695,0.00028079046527332556
1683.9642505404336,1683.9642505404336,0.9996638944376743,0.000280781696282276
1683.9711950482742,1683.9711950482742,0.9997206909851599,0.0002808097255882478
1683.978139556115,1683.978139556115,1.0004022184787178,0.0002808288797020924
1683.9850840639556,1683.9850840639556,0.999442329449052,0.00028066340699554366
1683.9920285717963,1683.9920285717963,1.000073494025878,0.00028079854051992224
1683.9989730796365,1683.9989730796365,0.9993489783255936,0.0002807181830842585
1684.0059175874776,1684.0059175874776,1.0001063689051846,0.0002807048162503905
1684.0128620953187,1684.0128620953187,0.9997278897530599,0.0002807246896937313
1684.019806603159,1684.019806603159,1.0000587886854821,0.0002805965660945138
1684.0267511109992,1684.0267511109992,1.000152835179107,0.0002807506792494411
1684.0336956188398,1684.0336956188398,1.00059946951493,0.0002808446687405145
1684.040640126681,1684.040640126681,1.00079578537513,0.0002807758964047676
1684.0484179754621,1684.0484179754621,1.0004527604628604,0.00028084972492414454
1684.0559180439304,1684.0559180439304,1.001443135739628,0.0002811911316505219
1684.0628625517704,1684.0628625517704,1.001070603216172,0.0002810728076832282
1684.0698070596113,1684.0698070596113,0.9991228003515602,0.00028099088743477725
1684.0767515674524,1684.0767515674524,0.9989163181234065,0.00028098066801603486
1684.0836960752927,1684.0836960752927,0.9987853132182586,0.00028107277422607187
1684.090640583133,1684.090640583133,0.999171477944631,0.00028121257591479305
1684.097585090974,1684.097585090974,1.0018223828963757,0.0002811914947490273
1684.1045295988151,1684.1045295988151,0.9995960458428088,0.0002813957421934285
1684.1114741066554,1684.1114741066554,0.9995627019857609,0.00028127065147062855
1684.1184186144958,1684.1184186144958,0.999405973673705,0.0002813459728090909
1684.1253631223367,1684.1253631223367,1.000960972406641,0.0002816479430717461
1684.1323076301774,1684.1323076301774,1.0008209392485266,0.00028159498959027325
1684.139252138018,1684.139252138018,1.0006312203189243,0.0002816283530868317
1684.1461966458585,1684.1461966458585,1.0004672976905893,0.00028157014184875825
1684.1531411536992,1684.1531411536992,1.0001247003163023,0.0002814453494016725
1684.16008566154,1684.16008566154,0.9995926416072551,0.000281578948609207
1684.1670301693805,1684.1670301693805,1.0009374677566654,0.00028163692610827556
1684.1739746772214,1684.1739746772214,0.9999976599975314,0.00028144712563094753
1684.1809191850618,1684.1809191850618,1.000514420802816,0.0002816325731463949
1684.1878636929027,1684.1878636929027,1.0002374661535438,0.0002814632870120405
1684.1948082008828,1684.1948082008828,0.999934730037652,0.0002814906625113773
1684.2017527088167,1684.2017527088167,0.9994167797664598,0.0002813349626510209
1684.2086972166574,1684.2086972166574,0.9999471150628392,0.00028133613949777393
1684.215641724498,1684.215641724498,0.9993379718046624,0.0002812118366921896
1684.222586232339,1684.222586232339,0.9985269060652179,0.0002810363819445175
1684.2295307404122,1684.2295307404122,0.998893783899363,0.0002809444170898944
1684.2364752482524,1684.2364752482524,1.0004769975727499,0.0002811316035149562
1684.2434197560935,1684.2434197560935,1.0005601304711704,0.00028093157015360163
1684.2503642641204,1684.2503642641204,1.0019239118168504,0.0002810976252389584
1684.2573087720077,1684.2573087720077,1.001000166103876,0.00028094039656575715
1684.2642532798945,1684.2642532798945,1.00050470206221,0.00028079325606600325
1684.2711977879214,1684.2711977879214,1.0005438386464172,0.00028075328908155667
1684.2781422957628,1684.2781422957628,1.0000846642229189,0.0002805019638298865
1684.285086803789,1684.285086803789,0.9999056530584353,0.0002805009046983494
1684.2920313116767,1684.2920313116767,1.0001088669451252,0.0002805867421605826
1684.2989758197498,1684.2989758197498,0.9988192162195609,0.00028027805133800185
1684.3059203276378,1684.3059203276378,0.9996397204964749,0.0002805102133046943
1684.312864835664,1684.312864835664,0.9998669581215154,0.0002806396992608516
1684.3198093436445,1684.3198093436445,1.000340897768301,0.0002807587898662557
1684.3267538515781,1684.3267538515781,0.9997752559802837,0.0002806363979453869
1684.3336983596516,1684.3336983596516,0.9996453538563346,0.00028074475679719553
1684.3406428676324,1684.3406428676324,1.0000736906407086,0.00028070631443348167
1684.3475873756124,1684.3475873756124,0.9999919234621977,0.0002806991494723691
1684.354531883639,1684.354531883639,1.0001184652891415,0.00028077043671773203
1684.3614763917128,1684.3614763917128,1.0003508535133816,0.00028076663807264995
1684.3684208997397,1684.3684208997397,0.9999146719995154,0.00028072638719046146
1684.3753654078137,1684.3753654078137,0.9997889566051527,0.0002807063534239978
1684.3823099158399,1684.3823099158399,0.9998272033504996,0.00028066033061851993
1684.3892544239134,1684.3892544239134,0.9999985713630803,0.0002807007152604242
1684.3961989319876,1684.3961989319876,1.0001446147626871,0.00028079273519194186
1684.4031434400608,1684.4031434400608,0.9999173655588243,0.00028080965806551877
1684.4100879481807,1684.4100879481807,1.0005780987996602,0.00028083251676572056
1684.417032456254,1684.417032456254,0.9997141358650905,0.00028072361583683593
1684.4239769643743,1684.4239769643743,1.0001967777686693,0.0002807096880044139
1684.4309214724944,1684.4309214724944,0.9998767938780304,0.0002806907876108412
1684.4378659806146,1684.4378659806146,1.0000835827473777,0.0002807700630747087
1684.444810488781,1684.444810488781,0.9999633956334734,0.0002807341646664425
1684.4517549969473,1684.4517549969473,0.9989627191144994,0.0002806325442418585
1684.4586995050674,1684.4586995050674,1.0005844269089639,0.0002808817776480703
1684.4656440132342,1684.4656440132342,1.0001688951065302,0.00028091449800208174
1684.4725885214473,1684.4725885214473,0.9998075130648871,0.0002808472307920142
1684.4795330296142,1684.4795330296142,1.0001252215365817,0.00028081614161696775
1684.486477537827,1684.486477537827,1.0001145491127674,0.00028078549687479183
1684.4934220460407,1684.4934220460407,0.9999536985003152,0.0002809081409911012
1684.5003665542536,1684.5003665542536,1.000200117176376,0.00028094984342253067
1684.5073110625133,1684.5073110625133,0.9998018170101991,0.0002808035340603693
1684.5142555707268,1684.5142555707268,1.000058908740756,0.0002809015166602018
1684.521200079033,1684.521200079033,1.0000328666267775,0.0002808100787503409
1684.528144587246,1684.528144587246,0.9998725537139593,0.00028086534469449966
1684.5350890955524,1684.5350890955524,1.0000103065571497,0.00028092353780289497
1684.5420336038592,1684.5420336038592,0.9997918749705377,0.00028096657398059895
1684.548978112165,1684.548978112165,1.0000796153041456,0.0002810144082104109
1684.555922620471,1684.555922620471,1.0004457185735702,0.0002810772155488567
1684.5628671288243,1684.5628671288243,1.0001021741729998,0.00028105667861067017
1684.5698116371302,1684.5698116371302,0.9998623924634202,0.0002809473556689918
1684.5767561454836,1684.5767561454836,1.0002245189583787,0.0002809184782674495
1684.583700653836,1684.583700653836,0.9995011148742916,0.00028089218840854894
1684.590645162236,1684.590645162236,0.9998767643596171,0.0002808992641448514
1684.5975896705888,1684.5975896705888,0.9996307542587534,0.00028086599705471694
1684.604534178988,1684.604534178988,1.0002410850458259,0.00028105070730625385
1684.6114786874343,1684.6114786874343,0.9997555264590826,0.00028089713677161373
1684.6184231958337,1684.6184231958337,1.0009917112446598,0.0002811062720870195
1684.6253677042798,1684.6253677042798,0.9999220826806106,0.00028101420982506087
1684.632312212679,1684.632312212679,0.9997495317012868,0.0002809304261173308
1684.639256721218,1684.639256721218,0.9997913759049905,0.00028098392791457987
1684.6462012296645,1684.6462012296645,1.0001914664678546,0.00028098955070673433
1684.6531457382036,1684.6531457382036,0.9998641518570455,0.0002810181832385898
1684.6600902466496,1684.6600902466496,1.0002903599890327,0.0002809202486587877
1684.6670347551885,1684.6670347551885,0.9993644072963248,0.0002809342023170098
1684.673979263728,1684.673979263728,0.9997427370451903,0.00028096423042777335
1684.6809237722669,1684.6809237722669,1.000401428486287,0.00028106689127801933
1684.687868280806,1684.687868280806,1.0004509609596934,0.0002809623040233817
1684.694812789392,1684.694812789392,0.999795845143699,0.00028093993723025913
1684.7017572979307,1684.7017572979307,1.000063451857956,0.00028091204715966015
1684.7087018065636,1684.7087018065636,1.0000482485018725,0.0002808884361252911
1684.7156463151955,1684.7156463151955,0.9998859083541051,0.0002809388528723283
1684.7225908237808,1684.7225908237808,1.0002345199553175,0.0002809180581394502
1684.7295353324603,1684.7295353324603,0.9993939742011412,0.0002808406130941075
1684.7364798410922,1684.7364798410922,1.0004521129381394,0.0002809479677964517
1684.7434243498178,1684.7434243498178,1.0008236335653522,0.0002809537273493255
1684.7503688584497,1684.7503688584497,0.9997520494448464,0.00028084512096649344
1684.7573133671754,1684.7573133671754,0.999940565673287,0.00028092169011223575
1684.7642578759012,1684.7642578759012,1.0000854275148332,0.00028092050005838087
1684.7712023846263,1684.7712023846263,0.9996226493205501,0.00028078375221837775
1684.7781468933513,1684.7781468933513,0.9996960059737251,0.00028085169965330603
1684.7850914021242,1684.7850914021242,0.9998547157683462,0.00028082725759324566
1684.7920359108957,1684.7920359108957,1.000372340221514,0.00028096689572728917
1684.7989804196677,1684.7989804196677,0.9997541826082751,0.00028088865090537596
1684.8059249284393,1684.8059249284393,1.000918436258822,0.0002811171972616273
1684.812869437305,1684.812869437305,0.9997331777152821,0.0002808948725901124
1684.8198139461233,1684.8198139461233,0.999903363240208,0.00028094025937122093
1684.8267584549885,1684.8267584549885,1.0000744138890871,0.00028088037598859357
1684.8337029638067,1684.8337029638067,0.9998555072747614,0.0002808013999656376
1684.8406474727653,1684.8406474727653,0.9999047690193794,0.00028087753433879187
1684.847591981584,1684.847591981584,1.000224103758097,0.00028089234191616783
1684.8545364905417,1684.8545364905417,0.9996942538928921,0.00028074137793997114
1684.8614809995465,1684.8614809995465,1.0003305852725901,0.00028079732691418534
1684.868425508319,1684.868425508319,1.0000849937084082,0.00028087398730515365
1684.8753700173238,1684.8753700173238,0.9998173876965856,0.0002806170935788713
1684.8823145263286,1684.8823145263286,1.0003119301863286,0.00028089202075751456
1684.889259035333,1684.889259035333,1.000516297294975,0.0002804283897843156
1684.8962035443383,1684.8962035443383,1.0008586192983924,0.0002808274750496313
1684.9031480533426,1684.9031480533426,0.9996336247573676,0.0002807196848872184
1684.9100925623475,1684.9100925623475,0.9998161498653853,0.0002806931638096114
1684.9170370714921,1684.9170370714921,0.9999658050901246,0.0002807353903168879
1684.9239815805904,1684.9239815805904,0.9999294345323848,0.0002806860057116909
1684.9309260895948,1684.9309260895948,0.9995497658038712,0.00028062120950966704
1684.9378705987863,1684.9378705987863,1.0004525364381274,0.00028069258814879776
1684.9448151078373,1684.9448151078373,1.0001139743108112,0.0002807115865091625
1684.9517596170288,1684.9517596170288,1.0002163571617237,0.0002805559349636458
1684.958704126173,1684.958704126173,0.9999587057273367,0.00028058159428185584
1684.9656486353174,1684.9656486353174,1.000384494372354,0.00028063868959955947
1684.972593144555,1684.972593144555,0.9998208597527407,0.00028052648060820245
1684.9795376537465,1684.9795376537465,1.0000546873845244,0.00028055522978303563
1684.986482162984,1684.986482162984,0.9996467319422475,0.00028046881620575486
1684.9934266722212,1684.9934266722212,1.000038965525444,0.00028053461382280946
1685.0003711814593,1685.0003711814593,0.9996992195370936,0.0002805047397213826
1685.0073156907904,1685.0073156907904,0.9999551887845506,0.0002804778991936231
1685.0142602000742,1685.0142602000742,1.0001980691052519,0.00028059833737169206
1685.021204709358,1685.021204709358,1.0002316448501667,0.00028049152483793224
1685.0281492186891,1685.0281492186891,1.0005583475056627,0.0002805272892607876
1685.0350937280205,1685.0350937280205,0.9997636467464867,0.00028051577048607816
1685.0420382373973,1685.0420382373973,1.0002892665507335,0.00028054389941353574
1685.0489827467743,1685.0489827467743,0.9996865137902317,0.00028044105434416896
1685.055927256199,1685.055927256199,0.999986191967014,0.000280563638423603
1685.0628717656225,1685.0628717656225,0.9998580069726104,0.00028046896718190057
1685.0698162750464,1685.0698162750464,1.0004516568573372,0.00028056657172350534
1685.0767607845166,1685.0767607845166,0.999833118908952,0.00028046778628036136
1685.0837052939874,1685.0837052939874,0.9999971223826278,0.00028054932623151365
1685.0906498034583,1685.0906498034583,0.9998841047354976,0.0002805669375637627
1685.0975943129747,1685.0975943129747,1.0000743557238008,0.0002805338982956328
1685.104538822492,1685.104538822492,0.9998747632214565,0.0002805459116775593
1685.1114833320553,1685.1114833320553,0.999931719645892,0.0002805947144101951
1685.1184278416192,1685.1184278416192,0.9998017651145489,0.0002805116175110856
1685.1253723512295,1685.1253723512295,1.00037126513322,0.0002806182880446993
