time,time,flux,flux_err
1570.5447044336781,1570.5447044336781,0.999592646099714,0.0010049586802395958
1570.5541954514276,1570.5541954514276,1.0018609304261281,0.0010010825646648677
1570.562529028077,1570.562529028077,1.0002567909790232,0.0009972590048699457
1570.5708626048054,1570.5708626048054,1.0000827959949354,0.000994141132753711
1570.5785017168728,1570.5785017168728,0.9999661245109246,0.0009046972108145051
1570.585446364311,1570.585446364311,0.9990019074756329,0.0009017539748191888
1570.5923910118422,1570.5923910118422,0.999700058934281,0.0008993863362496714
1570.5993356593735,1570.5993356593735,1.000070662554935,0.0008969501771058291
1570.6065580928075,1570.6065580928075,0.9992273053131464,0.0008940596549547498
1570.6146138839902,1570.6146138839902,1.0003772987670188,0.0008912752968068683
1570.621558531708,1570.621558531708,0.9996093645813693,0.0008883281447390505
1570.6287809654198,1570.6287809654198,1.000321853201238,0.0008860010220817774
1570.6368367568361,1570.6368367568361,1.0000137589748435,0.0008829297799093892
1570.6437814046474,1570.6437814046474,1.0000233478312264,0.0008805377799477352
1570.6507260525977,1570.6507260525977,1.0001095307736358,0.0008781045156399398
1570.6576707005484,1570.6576707005484,1.0004998967972243,0.0008755151922957658
1570.664615348545,1570.664615348545,1.000834926389188,0.0008729904334263607
1570.671559996636,1570.671559996636,0.999765929080003,0.0008705375844286301
1570.6785046447267,1570.6785046447267,1.000866876971878,0.0008685140401939902
1570.6854492929099,1570.6854492929099,0.9990694094698196,0.0008656950986418723
1570.6923939410929,1570.6923939410929,0.9998126326203561,0.0008633279644924529
1570.6993385893227,1570.6993385893227,1.0008095216696766,0.0008610521182060106
1570.7062832376464,1570.7062832376464,1.0001476210596343,0.0008584432032417887
1570.71322788597,1570.71322788597,0.9992706036165826,0.0008556533573687561
1570.720172534293,1570.720172534293,1.000390608072363,0.0008536019006743715
1570.7271171827088,1570.7271171827088,0.9998453803269779,0.0008510508827597801
1570.734061831218,1570.734061831218,0.9997603064944144,0.0008479910267231584
1570.7410064797289,1570.7410064797289,0.999855118948453,0.0008451657378914313
1570.7479511281908,1570.7479511281908,1.0000883448719537,0.0008424755323790123
1570.7548957768868,1570.7548957768868,1.0008708253301406,0.0008393532517117087
1570.7618404253494,1570.7618404253494,0.9988202488164264,0.0008365333833713847
1570.7687850740444,1570.7687850740444,0.9995111287518421,0.0008342740800735207
1570.7757297227413,1570.7757297227413,1.0006021015915452,0.0008315632349927986
1570.782674371437,1570.782674371437,1.0001339714766928,0.0008295389788279528
1570.789619020365,1570.789619020365,1.0002586906457904,0.0008269932838673286
1570.7965636690608,1570.7965636690608,1.0000316855258256,0.0008248716771582371
1570.8035083179886,1570.8035083179886,0.9997167061735054,0.0008229178277249996
1570.8104529668253,1570.8104529668253,1.0004243392770793,0.0008213847823958509
1570.8173976157536,1570.8173976157536,0.9996751704910348,0.0008192424354297459
1570.8243422646817,1570.8243422646817,1.0002096868461003,0.0008176480755258822
1570.8312869136566,1570.8312869136566,0.9999413277547792,0.0008155061668617363
1570.8382315626782,1570.8382315626782,0.9985978710898922,0.0008136089695090117
1570.8451762117006,1570.8451762117006,1.001047137429425,0.0008119746941773389
1570.8521208608154,1570.8521208608154,1.0006412128147353,0.0008107029162782922
1570.859065509883,1570.859065509883,0.999071337600436,0.0008091859820073694
1570.8660101590444,1570.8660101590444,0.9999718767789268,0.0008078386279085645
1570.8729548082053,1570.8729548082053,1.0005360172429598,0.0008066397037409485
1570.8807328152577,1570.8807328152577,1.0003517169750684,0.000805672174607978
1570.8882330364545,1570.8882330364545,0.999975158668847,0.0008043625686373597
1570.8951776857086,1570.8951776857086,0.9996591044311758,0.0008028461248582813
1570.9021223350094,1570.9021223350094,0.9999968099679218,0.0008017567018539795
1570.9090669842633,1570.9090669842633,0.999726107396819,0.0008003967158944766
1570.9160116336589,1570.9160116336589,1.0009168145095368,0.000799273340414346
1570.9229562830064,1570.9229562830064,0.9995937490495768,0.0007977193608238499
1570.9299009323536,1570.9299009323536,0.9998114692894522,0.0007959699436308094
1570.9368455817942,1570.9368455817942,1.0004462491518598,0.000795060160559829
1570.9437902311881,1570.9437902311881,0.9996436965695455,0.0007930808271466182
1570.950734880676,1570.950734880676,0.9996889535573109,0.0007918943953267839
1570.957679530117,1570.957679530117,1.0001535014277716,0.0007906173765507643
1570.9646241796968,1570.9646241796968,0.9987207314874184,0.0007892858873767927
1570.9715688291842,1570.9715688291842,0.9998705465082564,0.0007874607499206605
1570.978513478718,1570.978513478718,1.001745859999791,0.000786541089687976
1570.9854581282987,1570.9854581282987,0.9993495190951723,0.0007848065361189819
1570.9924027779264,1570.9924027779264,0.9984332783712973,0.0007832472054816311
1570.9993474275063,1570.9993474275063,0.9986272828380738,0.0007814232318363182
1571.006292077133,1571.006292077133,1.0018658200590775,0.0007802488907592589
1571.01323672676,1571.01323672676,1.0002932158653235,0.0007782793781984839
1571.0201813764338,1571.0201813764338,1.00002191850789,0.0007768774844641563
1571.0271260261077,1571.0271260261077,1.0016437842287635,0.0007750811084883546
1571.0340706758743,1571.0340706758743,1.0013318726056488,0.0007738697939019973
1571.041015325501,1571.041015325501,0.9996790634983226,0.0007716920933358537
1571.047959975314,1571.047959975314,0.9982598448640188,0.0007695621079212564
1571.0549046249878,1571.0549046249878,1.000740772719794,0.0007685868812065675
1571.0618492748483,1571.0618492748483,1.0001889367782315,0.0007665265506941639
1571.0687939246147,1571.0687939246147,1.0003448456761785,0.0007654646166420879
1571.0757385743348,1571.0757385743348,0.9985117500233376,0.000763492703754047
1571.0826832241942,1571.0826832241942,0.9991139148707642,0.0007618339954233543
1571.089627874054,1571.089627874054,0.9999761433868667,0.0007604421184085532
1571.0965725239146,1571.0965725239146,1.0004446515819445,0.0007593590930922365
1571.1035171737744,1571.1035171737744,1.0005837376972724,0.0007575931227776084
1571.1104618236343,1571.1104618236343,0.9996230757228842,0.0007563777796298695
1571.1174064734935,1571.1174064734935,1.001094608440732,0.0007549066819752028
1571.1243511233529,1571.1243511233529,1.0005355651739127,0.000753948622058121
1571.1312957732137,1571.1312957732137,0.9990094792593235,0.0007526878324800707
1571.1382404232133,1571.1382404232133,1.0001468344836253,0.0007512744984531094
1571.145185073166,1571.145185073166,1.0006844441620852,0.0007504116727938518
1571.1521297230254,1571.1521297230254,0.9991903598724147,0.0007491618467275923
1571.1590743730249,1571.1590743730249,0.999751850430752,0.0007481886712327558
1571.1660190229784,1571.1660190229784,0.999434746150297,0.0007469045744164594
1571.1729636729317,1571.1729636729317,1.000050415705847,0.0007461707436717874
1571.1799083229312,1571.1799083229312,1.0006262925474778,0.0007452395246746608
1571.1868529728838,1571.1868529728838,0.9995542893030926,0.0007446010998307899
1571.193797622883,1571.193797622883,1.000540197183336,0.0007437430527188276
1571.2007422728832,1571.2007422728832,1.0002281463121734,0.0007429461734762111
1571.2076869228829,1571.2076869228829,1.0008123824423376,0.0007422287664209327
1571.2146315729285,1571.2146315729285,0.999150620396207,0.0007414172658644904
1571.2215762229284,1571.2215762229284,1.0002171040857395,0.0007409033784397209
1571.2285208729272,1571.2285208729272,0.9984508564772187,0.0007398608243959537
1571.2354655229735,1571.2354655229735,1.0004454263806806,0.0007397888957153225
1571.2424101730671,1571.2424101730671,1.0001246870425793,0.0007385408848559415
1571.2493548230661,1571.2493548230661,0.9992674052915522,0.0007380533613731714
1571.2562994731124,1571.2562994731124,1.0006283176120077,0.0007374337086049508
1571.2632441231576,1571.2632441231576,1.0009968337619308,0.0007373706128719254
1571.2701887732037,1571.2701887732037,1.00097515569972,0.0007367113196587408
1571.2771334232973,1571.2771334232973,1.00095642639995,0.0007362938228454239
1571.28407807339,1571.28407807339,1.0001011034480936,0.000735471169061434
1571.2910227234358,1571.2910227234358,0.9992746914842158,0.0007351320334039192
1571.297967373528,1571.297967373528,0.9958345700390387,0.0007342717835549127
1571.3049120235742,1571.3049120235742,0.9966567851688595,0.0007356313510164282
1571.311856673667,1571.311856673667,0.997548140145448,0.0007353913514485074
1571.3188013237136,1571.3188013237136,0.9976175265343883,0.0007348721831602022
1571.3257459738063,1571.3257459738063,0.9986637599818721,0.0007344523864758366
1571.3326906238985,1571.3326906238985,0.9984090373930217,0.0007334969033821535
1571.339635273991,1571.339635273991,0.9975747056320403,0.000732576013554557
1571.346579924037,1571.346579924037,0.9980782142044312,0.0007314984245568456
1571.3535245741302,1571.3535245741302,0.9978427696003873,0.000730910397657287
1571.360469224223,1571.360469224223,0.996880377878654,0.0007300728232683717
1571.3674138743158,1571.3674138743158,0.9981688487681136,0.0007292443798942735
1571.3743585243612,1571.3743585243612,0.9979983422037341,0.0007281152654851087
1571.3813031744537,1571.3813031744537,0.9978385132003087,0.0007267491873695748
1571.3882478245466,1571.3882478245466,0.9967511241073777,0.000725664490607448
1571.3951924746398,1571.3951924746398,0.9964767627784642,0.0007240975607511007
1571.4021371246859,1571.4021371246859,0.9979219866997177,0.0007232490933888054
1571.4090817747779,1571.4090817747779,1.0002404386652919,0.0007225678880218418
1571.4160264248242,1571.4160264248242,1.0022693529679416,0.0007220511167601322
1571.4229710749164,1571.4229710749164,1.0010165219396174,0.0007214074662319446
1571.4299157249632,1571.4299157249632,1.0008824707034958,0.0007201539107774794
1571.4368603750095,1571.4368603750095,1.001245786453456,0.0007199507105393339
1571.443805025055,1571.443805025055,0.9991066751990416,0.000718577797770614
1571.4507496751478,1571.4507496751478,0.9996976280049467,0.0007185058803905874
1571.4576943251936,1571.4576943251936,0.9999909055526324,0.0007176976124074041
1571.4646389752402,1571.4646389752402,1.0000107239205658,0.000717390020676696
1571.4715836252403,1571.4715836252403,0.9998903197651842,0.0007171545957857095
1571.478528275286,1571.478528275286,0.9990306840498521,0.0007170610092608082
1571.485472925378,1571.485472925378,0.9997453254996932,0.000717342917112474
1571.4924175753313,1571.4924175753313,0.9998648273590813,0.0007172269924290004
1571.4993622253303,1571.4993622253303,1.000561681860446,0.0007168613256125207
1571.506306875424,1571.506306875424,1.0000287905111356,0.0007166244745284198
1571.5132515253767,1571.5132515253767,1.0002423094851838,0.0007166578115088178
1571.520196175376,1571.520196175376,1.0009335269850317,0.0007164497042108871
1571.5271408253755,1571.5271408253755,1.0000189321241213,0.0007165271059590445
1571.534085475328,1571.534085475328,0.9989150048328345,0.0007159192441842337
1571.5410301253746,1571.5410301253746,1.0002135234419258,0.0007161386672087355
1571.5479747752815,1571.5479747752815,0.9994200959454218,0.0007159298384452692
1571.5549194252806,1571.5549194252806,1.0007922103613036,0.000715931843302566
1571.5618640752336,1571.5618640752336,1.0005019949424543,0.000715399520610243
1571.5688087250933,1571.5688087250933,0.9993043414477627,0.0007152478045458091
1571.575753375139,1571.575753375139,0.9991920766883059,0.0007151237644727121
1571.5826980250463,1571.5826980250463,0.9994698618255274,0.0007151631713857183
1571.5896426749057,1571.5896426749057,1.0005736286161455,0.0007150505138314144
1571.5965873247656,1571.5965873247656,1.0010898290076058,0.0007151871643494584
1571.603531974672,1571.603531974672,0.9999265777073001,0.0007149043956110629
1571.6104766247172,1571.6104766247172,0.9993538069125503,0.0007146102320303215
1571.6174212745773,1571.6174212745773,1.0009932643916342,0.0007143749522834342
1571.6243659244383,1571.6243659244383,1.0000208367196812,0.000714257965255044
1571.6313105742975,1571.6313105742975,0.9996403628436521,0.0007140804067177519
1571.638255224157,1571.638255224157,0.9996646466097543,0.0007141428712122016
1571.6451998738307,1571.6451998738307,0.9998734798693818,0.0007141202925428155
1571.6521445236435,1571.6521445236435,0.9998053381936721,0.0007140129947112954
1571.6590891735036,1571.6590891735036,1.0000576346175614,0.0007137864646479359
1571.6660338233644,1571.6660338233644,0.9999678837609226,0.0007134765239792819
1571.672978473084,1571.672978473084,1.0000752014232275,0.0007134950854263621
1571.6799231228506,1571.6799231228506,0.9994432852637825,0.0007129238384093922
1571.68686777271,1571.68686777271,1.002254314849235,0.0007133761906067503
1571.6938124223368,1571.6938124223368,0.9999220924175176,0.0007126066515320376
1571.7007570721512,1571.7007570721512,0.999033131721595,0.000712117569872719
1571.7077017218246,1571.7077017218246,1.0000617080383414,0.000711926965048197
1571.7146463715444,1571.7146463715444,1.0009272206462514,0.0007117688867124078
1571.721591021264,1571.721591021264,1.0009126588416435,0.0007117588154160117
1571.7285356709376,1571.7285356709376,0.9991793517806382,0.0007112487091477736
1571.7354803205646,1571.7354803205646,0.9998859591680944,0.0007108698540204195
1571.742424970239,1571.742424970239,0.9993369955843798,0.000710227178862703
1571.7493696198658,1571.7493696198658,1.0000573121920613,0.000709966559648773
1571.7563142694926,1571.7563142694926,0.9993957582994822,0.0007094524243468159
1571.7632589191194,1571.7632589191194,1.0003551226287375,0.0007088759193089242
1571.7702035686993,1571.7702035686993,1.0001597496010528,0.0007085603615505792
1571.7771482182798,1571.7771482182798,1.0003473747717162,0.0007081104116554883
1571.7840928678147,1571.7840928678147,0.9999705721736911,0.0007076957308475134
1571.791037517395,1571.791037517395,1.0003911665438034,0.0007072461553590098
1571.7979821668819,1571.7979821668819,0.9995106490575854,0.0007067095824950171
1571.804926816462,1571.804926816462,1.0009486348760213,0.0007065630641746876
1571.8118714659026,1571.8118714659026,0.9994200880902984,0.0007059127294070153
1571.8188161153898,1571.8188161153898,0.99870130073643,0.0007059311837878126
1571.8257607648782,1571.8257607648782,1.0001817493718081,0.000705639587806167
1571.8327054143185,1571.8327054143185,1.000267145098105,0.0007054413306660541
1571.8396500637123,1571.8396500637123,0.9998597981840385,0.0007050514447955413
1571.846594713153,1571.846594713153,1.0002303935826198,0.0007050046786265153
1571.8535393625466,1571.8535393625466,1.0004928152105783,0.0007047509367616496
1571.8604840119417,1571.8604840119417,1.000930416574643,0.000704781304047077
1571.8674286612898,1571.8674286612898,1.000123144029335,0.0007048291921139991
1571.87437331059,1571.87437331059,0.9998677190994577,0.0007049633258190042
1571.8813179599379,1571.8813179599379,0.9990241705755454,0.0007047396145482695
1571.8882626092852,1571.8882626092852,0.999993110951757,0.0007050654544926854
1571.8952072585391,1571.8952072585391,0.9997634605098483,0.0007051281203337634
1571.902151907841,1571.902151907841,1.000845783842421,0.0007053674603977985
1571.909096557049,1571.909096557049,0.9989842852578071,0.0007054276224540684
1571.9160412062568,1571.9160412062568,1.0005272830653116,0.0007053425182110026
1571.9229858554645,1571.9229858554645,1.0001187988563394,0.0007054802102846954
1571.929930504672,1571.929930504672,0.9994483337345024,0.0007055036542064923
1571.9368751538332,1571.9368751538332,0.9998642902285232,0.0007053610411070721
1571.9438198029948,1571.9438198029948,1.0001771035995495,0.0007051742812224983
1571.9507644521102,1571.9507644521102,0.9996722461018607,0.0007048020057215927
1571.9577091012245,1571.9577091012245,1.0006395973137494,0.0007049379789848007
1571.964653750339,1571.964653750339,1.0003759883768464,0.0007049765042272431
1571.9715983993606,1571.9715983993606,0.9995302085927629,0.0007047310309079601
1571.9785430484283,1571.9785430484283,0.9994983924151004,0.0007043284155453163
1571.9854876974507,1571.9854876974507,1.0011996143237962,0.0007048253225905691
1571.9924323464263,1571.9924323464263,0.9997919022904502,0.0007043221794201728
1571.9993769954008,1571.9993769954008,1.000502382552949,0.0007042812378241357
1572.0063216444223,1572.0063216444223,0.999498971762433,0.0007042093912073932
1572.0132662933506,1572.0132662933506,1.000205576775376,0.0007038786612531206
1572.020210942232,1572.020210942232,0.9980528683704257,0.0007033614439995814
1572.0271555911613,1572.0271555911613,1.000913617643544,0.0007040972298076724
1572.0341002400432,1572.0341002400432,1.0006593577289493,0.000703487389921842
1572.0410448888788,1572.0410448888788,0.9998041343422492,0.0007031668359825161
1572.047989537714,1572.047989537714,1.0001018018856007,0.0007028352339719581
1572.0549341865026,1572.0549341865026,0.999299889802769,0.000702683033570443
1572.0618788353374,1572.0618788353374,1.0001365962429247,0.0007024933894717447
1572.0688234840338,1572.0688234840338,0.9998675339527695,0.0007022299404728313
1572.0757681327298,1572.0757681327298,1.0008763412790902,0.0007019330300108355
1572.0827127814252,1572.0827127814252,1.0002297578361605,0.0007016173899668442
1572.0896574301205,1572.0896574301205,1.0001306511569452,0.000701596104436258
1572.096602078816,1572.096602078816,0.9993597112716032,0.0007011872628052208
1572.1035467275115,1572.1035467275115,0.9996842693762235,0.0007006637834869545
1572.1104913762072,1572.1104913762072,1.0003500002210537,0.0007005035458229967
1572.117436024671,1572.117436024671,0.999462224494251,0.0007003821351366732
1572.1243806733196,1572.1243806733196,1.0002873216881996,0.0007004130608837692
1572.1313253218289,1572.1313253218289,1.000017161623915,0.0006999169322636095
1572.138269970338,1572.138269970338,1.0003392430550189,0.0007000012054740188
1572.1452146188476,1572.1452146188476,1.0002559962990687,0.0006997173003645761
1572.1521592673566,1572.1521592673566,1.0000277675237075,0.0006994196550929855
1572.1591039157738,1572.1591039157738,0.9995190241097898,0.0006994192811807258
1572.1660485642365,1572.1660485642365,0.9999008139605532,0.0006992484917889473
1572.172993212606,1572.172993212606,0.999703942593157,0.0006991781060722673
1572.1799378609753,1572.1799378609753,1.0006138072996356,0.0006989502212744796
1572.1868825092981,1572.1868825092981,0.9992823388471574,0.0006986878596821086
1572.1938271576678,1572.1938271576678,0.9989478289846276,0.000698791513356841
1572.2007718058983,1572.2007718058983,1.0016273400756832,0.0006990468108764773
1572.2077164542218,1572.2077164542218,1.0000477554931597,0.0006989831807328627
1572.2146611024516,1572.2146611024516,1.000791219653848,0.0006987349289888998
1572.2216057506812,1572.2216057506812,0.9996224941020737,0.0006983901493169949
1572.2285503988646,1572.2285503988646,0.9998134947208527,0.0006986518340477987
1572.2354950470476,1572.2354950470476,1.0000266062627217,0.0006983784341811462
1572.242439695185,1572.242439695185,0.999792779021474,0.0006981739747245574
1572.2493843433226,1572.2493843433226,0.9990696608831909,0.0006980477205873216
1572.2563289913658,1572.2563289913658,0.9998222739276562,0.0006977521405685382
1572.2632736394094,1572.2632736394094,0.999389768008719,0.0006980537485102393
1572.270218287453,1572.270218287453,1.0013954493371802,0.0006977973894594575
1572.2771629354502,1572.2771629354502,1.0001619642158273,0.0006976030922940526
1572.2841075834472,1572.2841075834472,1.0018042078849922,0.000697353222638746
1572.2910522313518,1572.2910522313518,0.9997752131413014,0.0006969243788271992
1572.2979968792556,1572.2979968792556,0.9997113900567587,0.0006967556166726531
1572.3049415272062,1572.3049415272062,0.9999271811625121,0.0006963750379349404
1572.3118861750168,1572.3118861750168,1.0004491399350284,0.0006966670283599329
1572.3188308229205,1572.3188308229205,0.9991230503241665,0.0006961244767923513
