time,time,flux,flux_err
1325.299257708184,1325.299257708184,1.0000091471711927,0.00017930721860238375
1325.3075910801751,1325.3075910801751,0.9999886508119816,0.00017931434753594476
1325.3152300047127,1325.3152300047127,0.9999682434760496,0.00016368846736441008
1325.3221744817433,1325.3221744817433,0.9999914633164588,0.0001637112569576206
1325.3291189589402,1325.3291189589402,0.9998686191263136,0.00016370940237073152
1325.336063436301,1325.336063436301,0.999859899376435,0.00016371957170754816
1325.3430079138247,1325.3430079138247,1.0000944084079912,0.0001637488161796538
1325.349952391508,1325.349952391508,0.9999994898091188,0.0001637614462243443
1325.3568968693526,1325.3568968693526,1.0004047712328856,0.00016382135961947746
1325.363841347353,1325.363841347353,1.000014496938141,0.00016380751541276122
1325.3707858255116,1325.3707858255116,1.000071806738438,0.00016383348040675257
1325.3777303038228,1325.3777303038228,0.999835533566548,0.0001638379754987815
1325.3846747822886,1325.3846747822886,0.9999163965333195,0.0001638630451337338
1325.3916192609036,1325.3916192609036,1.000041974896031,0.0001639057852292622
1325.398563739669,1325.398563739669,0.999682977753384,0.00016389837562789724
1325.405508218582,1325.405508218582,1.0005663251505896,0.00016399263422313328
1325.4124526976416,1325.4124526976416,1.0000559823498207,0.00016398524625710565
1325.4193971768468,1325.4193971768468,0.9999927743372563,0.0001640154189831964
1325.4263416561955,1325.4263416561955,0.9998906615034745,0.00016403283621744521
1325.4332861356843,1325.4332861356843,1.0002726128378296,0.00016409494165968295
1325.440230615314,1325.440230615314,0.9998676498092663,0.00016409003524351626
1325.4471750950838,1325.4471750950838,0.9998650021564576,0.00016412191250639774
1325.4541195749887,1325.4541195749887,1.0001213259698791,0.00016416404699056482
1325.4610640550293,1325.4610640550293,0.9999827624873919,0.00016418614186799996
1325.4680085352052,1325.4680085352052,0.9999096466531849,0.00016421020305395893
1325.4749530155136,1325.4749530155136,1.000137068754968,0.00016425315167824684
1325.4818974959533,1325.4818974959533,0.9997138413348973,0.00016426645566784126
1325.4888419765216,1325.4888419765216,0.9999820971670739,0.00016431478579616608
1325.4957864572184,1325.4957864572184,0.9998580500492192,0.00016433947440681459
1325.5027309380423,1325.5027309380423,0.9999610064866268,0.0001643761032673979
1325.5096754189926,1325.5096754189926,1.0001028064759,0.0001644381609608512
1325.5166199000646,1325.5166199000646,0.9998982874070326,0.00016445306561976107
1325.5235643812607,1325.5235643812607,1.000211168300642,0.00016451027516414433
1325.5305088625773,1325.5305088625773,1.0004509016588898,0.0001645738830236031
1325.5374533440136,1325.5374533440136,0.9997508351146355,0.00016454915286465174
1325.5443978255682,1325.5443978255682,0.9999665329357861,0.000164618389545389
1325.5513423072393,1325.5513423072393,1.0003380669634043,0.00016468458817108574
1325.558286789026,1325.558286789026,0.9998222649794896,0.00016467808053717857
1325.565231270927,1325.565231270927,0.9997693418955954,0.00016472816418186661
1325.5721757529413,1325.5721757529413,1.0000687177637289,0.0001647865374062839
1325.5791202350683,1325.5791202350683,0.9998990057984178,0.00016481822891433481
1325.5860647173035,1325.5860647173035,1.0003356389517908,0.00016488075521866734
1325.5930091996483,1325.5930091996483,0.9999127924089677,0.00016488213463877193
1325.5999536821002,1325.5999536821002,1.0000263756198717,0.00016492307025670308
1325.6068981646597,1325.6068981646597,0.9998121040621385,0.0001649483163580391
1325.613842647324,1325.613842647324,1.0000853252872322,0.00016498638124461666
1325.6207871300908,1325.6207871300908,0.9999298969129853,0.00016500815198783005
1325.6277316129617,1325.6277316129617,0.9998596430104163,0.0001650092954653952
1325.6346760959343,1325.6346760959343,1.0003341975967313,0.00016506088799544063
1325.6416205790063,1325.6416205790063,0.9999995230336195,0.0001650528191930335
1325.6485650621773,1325.6485650621773,0.9998236034863268,0.00016505073943490605
1325.6555095454464,1325.6555095454464,1.0000930823938805,0.0001650841901987833
1325.6624540288146,1325.6624540288146,0.9997380966515751,0.00016507076590266157
1325.6693985122781,1325.6693985122781,1.0000055514920976,0.00016509998535236677
1325.6763429958332,1325.6763429958332,1.0001823791697355,0.00016512763932130138
1325.6832874794832,1325.6832874794832,1.0001530534607241,0.00016513149165212177
1325.690231963224,1325.690231963224,0.9999379321445367,0.00016513727132169784
1325.6971764470559,1325.6971764470559,1.0001643561967597,0.00016518990766784845
1325.7041209309791,1325.7041209309791,1.0001456524914711,0.00016519226945389787
1325.7110654149901,1325.7110654149901,0.9997070240419866,0.0001651861986302314
1325.7180098990884,1325.7180098990884,0.9997752913659184,0.00016520825719859038
1325.7249543832747,1325.7249543832747,1.000140746674353,0.00016526135694727213
1325.7318988675447,1325.7318988675447,1.0001205210307966,0.0001652748331750228
1325.7388433519016,1325.7388433519016,0.9997614364626466,0.00016528065799700803
1325.745787836341,1325.745787836341,1.000035550718396,0.00016532865507289132
1325.752732320862,1325.752732320862,0.9998158412740704,0.00016532597739532791
1325.759676805466,1325.759676805466,1.0001266848404682,0.00016537836194977174
1325.766621290149,1325.766621290149,1.000282908774192,0.00016541118272381922
1325.7735657749129,1325.7735657749129,0.9999304062926283,0.00016540305874576382
1325.7805102597545,1325.7805102597545,0.9998013865636566,0.00016540707170524023
1325.7874547446754,1325.7874547446754,0.9998889303495536,0.00016544811298954812
1325.794399229672,1325.794399229672,1.0002451786762552,0.00016549051095058703
1325.8013437147445,1325.8013437147445,1.0002233986723663,0.00016550064348870978
1325.8082881998916,1325.8082881998916,0.9999578796386455,0.00016549050187666554
1325.8152326851123,1325.8152326851123,0.9997674572142259,0.00016549581342231663
1325.8221771704073,1325.8221771704073,0.9999870632740746,0.00016551437647526873
1325.8291216557725,1325.8291216557725,1.0000518862825296,0.00016553507565060491
1325.8360661412105,1325.8360661412105,1.000184613809248,0.00016555934106957023
1325.8430106267192,1325.8430106267192,0.9999592867248561,0.00016553869659604586
1325.8499551122948,1325.8499551122948,1.0000668211974397,0.00016554590177198718
1325.8568995979408,1325.8568995979408,0.9999803938652899,0.00016552380947065906
1325.8638440836553,1325.8638440836553,1.0001010110240944,0.0001655323087627651
1325.870788569436,1325.870788569436,1.0001717463445206,0.0001655091715843376
1325.8777330552828,1325.8777330552828,0.9998650030201993,0.000165450124072106
1325.884677541194,1325.884677541194,1.0002776190033953,0.00016546460869583228
1325.8916220271706,1325.8916220271706,0.9997594218847059,0.0001654084606016961
1325.8985665132107,1325.8985665132107,0.9999083209849413,0.00016540853509673843
1325.9055109993133,1325.9055109993133,1.0000349517559048,0.00016540159528549825
1325.912455485478,1325.912455485478,0.9998304562579463,0.0001653808263104071
1325.9193999717058,1325.9193999717058,1.0000855260560133,0.00016537458043397915
1325.9263444579933,1325.9263444579933,0.9999676620973323,0.00016537675021028087
1325.9332889443394,1325.9332889443394,1.0000763229143785,0.00016536538656227646
1325.9402334307456,1325.9402334307456,1.0003876938093768,0.00016539152169253938
1325.9471779172097,1325.9471779172097,0.9998191883902029,0.00016533369012672198
1325.9541224037323,1325.9541224037323,0.9998748132677306,0.00016534233043298633
1325.9616224492424,1325.9616224492424,0.9999309898414681,0.00016534155692902758
1325.9694002742792,1325.9694002742792,1.0001307076556318,0.0001653605447135486
1325.9763447609826,1325.9763447609826,0.9997167461728098,0.00016533289437289844
1325.9832892477375,1325.9832892477375,1.0000663465134665,0.00016535072411321257
1325.9902337345484,1325.9902337345484,1.0000751866226492,0.00016537164832796446
1325.9971782214118,1325.9971782214118,1.0001258026913131,0.0001653657918939114
1326.0041227083275,1326.0041227083275,1.0000006305522677,0.00016538143000507374
1326.011067195296,1326.011067195296,0.9999436666977294,0.00016538917204171738
1326.0180116823158,1326.0180116823158,0.9997263220375535,0.00016538934393563908
1326.024956169386,1326.024956169386,1.0001359751431438,0.0001654564739630991
1326.0319006565067,1326.0319006565067,1.0000780902937054,0.00016545488514001003
1326.0388451436763,1326.0388451436763,1.0000865711070386,0.00016544527515716836
1326.0457896308944,1326.0457896308944,1.0001813381737068,0.00016543313852638734
1326.0527341181617,1326.0527341181617,1.0000049099451043,0.00016543653401556574
1326.0596786054768,1326.0596786054768,0.9997705326579451,0.00016541855443085585
1326.0666230928377,1326.0666230928377,0.9997554898895229,0.0001654303831857506
1326.0735675802441,1326.0735675802441,0.9998683308785143,0.00016543801912814024
1326.0805120676994,1326.0805120676994,1.000104101732438,0.00016544842758828746
1326.0874565551967,1326.0874565551967,1.0002998234754403,0.00016548400973258212
1326.0944010427406,1326.0944010427406,1.0001521922441636,0.00016547356591090006
1326.1013455303284,1326.1013455303284,0.9997649181764571,0.00016545855883245096
1326.1082900179597,1326.1082900179597,1.0001387079884112,0.00016547572496821192
1326.1152345056335,1326.1152345056335,1.0001251503973836,0.0001654823933542109
1326.1221789933497,1326.1221789933497,0.9999528906254168,0.00016544940816618292
1326.1291234811076,1326.1291234811076,0.9999034186190808,0.00016543956557305432
1326.1360679689071,1326.1360679689071,1.0000421777943211,0.0001654656249007827
1326.1430124567476,1326.1430124567476,0.9998132903831116,0.000165454195467741
1326.1499569446296,1326.1499569446296,0.999820318183646,0.0001654520494671545
1326.156901432548,1326.156901432548,0.9999493138517886,0.00016546375151222395
1326.1638459205092,1326.1638459205092,1.0002850501991456,0.00016548613397653075
1326.1707904085074,1326.1707904085074,1.0000472918434418,0.00016546524638151795
1326.1777348965452,1326.1777348965452,1.0000211131847943,0.0001654583368375109
1326.1846793846198,1326.1846793846198,0.9999498621988507,0.00016545171842893708
1326.1916238727313,1326.1916238727313,1.0001592787351357,0.0001654617281796745
1326.19856836088,1326.19856836088,0.9999914674164033,0.00016543864955883493
1326.2055128490654,1326.2055128490654,0.9999231744099047,0.0001654402767720557
1326.212457337287,1326.212457337287,1.0002605759539605,0.0001654489580951946
1326.219401825543,1326.219401825543,0.9995395129960997,0.00016539446762878319
1326.2263463138352,1326.2263463138352,0.9995762830299508,0.00016539475296554787
1326.233290802161,1326.233290802161,1.0000670331129589,0.0001654325132615306
1326.2402352905206,1326.2402352905206,1.000109855608262,0.00016543399795368102
1326.2471797789144,1326.2471797789144,0.9999629936388035,0.0001654158446168403
1326.2541242673417,1326.2541242673417,0.9998635044700604,0.00016541647444941952
1326.2610687558008,1326.2610687558008,1.0002480953920816,0.00016544132574371147
1326.2680132442922,1326.2680132442922,1.000339195951255,0.0001654371579759047
1326.2749577328154,1326.2749577328154,0.9997831463852773,0.00016540031871986884
1326.2819022213723,1326.2819022213723,1.0002674699113014,0.00016542091307664855
1326.288846709958,1326.288846709958,0.9999478003241805,0.00016538710583028477
1326.295791198574,1326.295791198574,0.9996907282529515,0.00016536648255084424
1326.302735687222,1326.302735687222,1.0001303775138404,0.00016541481847583494
1326.3096801759,1326.3096801759,0.9996703898899261,0.00016537396053723858
1326.3166246646063,1326.3166246646063,0.9998853199810203,0.00016539556974037552
1326.3235691533412,1326.3235691533412,1.0000409182745402,0.00016541054392758662
1326.330513642107,1326.330513642107,1.00014903313609,0.00016541720204694526
1326.3374581308985,1326.3374581308985,1.0000096997355734,0.00016540941167890975
1326.344402619719,1326.344402619719,1.0001511780469141,0.0001654269853704742
1326.354124904115,1326.354124904115,1.0001321375312535,0.0001654433870140339
1326.361069393,1326.361069393,1.0000346712084647,0.00016543041327488696
1326.3680138819122,1326.3680138819122,1.0003078127977565,0.00016546774866556604
1326.3749583708523,1326.3749583708523,0.9996934396667274,0.00016542945309160357
1326.3819028598166,1326.3819028598166,0.9997058574230963,0.00016543373260094672
1326.388847348807,1326.388847348807,0.9998947379118146,0.0001654498032270186
1326.3957918378242,1326.3957918378242,1.000047663185165,0.0001654817565121086
1326.4027363268642,1326.4027363268642,0.9999769545258484,0.00016548299282196182
1326.4096808159297,1326.4096808159297,1.0000651548746715,0.0001654940635941044
1326.416625305019,1326.416625305019,1.0000105573144142,0.00016549465094588218
1326.423569794133,1326.423569794133,1.0001477203293299,0.00016550746250364428
1326.430514283271,1326.430514283271,1.0000056951563638,0.00016551533901736749
1326.43745877243,1326.43745877243,1.00020121087594,0.00016551530841628625
1326.4444032616132,1326.4444032616132,0.9996369625744617,0.00016549924348766942
1326.4513477508208,1326.4513477508208,1.0001298856464902,0.0001655443446350711
1326.4582922400477,1326.4582922400477,1.0002284815211042,0.00016555539305012945
1326.4652367292983,1326.4652367292983,0.9998265071452007,0.0001655169853939482
1326.4721812185705,1326.4721812185705,0.9998966850714901,0.00016554221209219596
1326.4791257078646,1326.4791257078646,1.0000216412913228,0.00016556468788404762
1326.4860701971782,1326.4860701971782,0.9999340745949178,0.0001655635825351234
1326.493014686514,1326.493014686514,0.9999758567636718,0.00016557485644876196
1326.4999591758701,1326.4999591758701,1.0000577251055218,0.000165577491667407
1326.506903665245,1326.506903665245,1.0001635761417207,0.00016559546529639396
1326.5138481546414,1326.5138481546414,0.9998714029387884,0.0001655762458243247
1326.5207926440562,1326.5207926440562,1.0001528739338816,0.0001656120474227067
1326.5277371334917,1326.5277371334917,0.9997225126079975,0.00016559335091790691
1326.5346816229458,1326.5346816229458,0.9999961023842416,0.000165621885208603
1326.541626112418,1326.541626112418,0.9999414761716849,0.00016563276633509583
1326.54857060191,1326.54857060191,1.0003787436819214,0.00016568070618822056
1326.5555150914188,1326.5555150914188,1.0000667554017124,0.0001656702609345156
1326.5624595809466,1326.5624595809466,0.9997140178198934,0.0001656383976096779
1326.5694040704923,1326.5694040704923,0.9997206787443732,0.00016563969247278203
1326.576348560055,1326.576348560055,1.00031653629315,0.00016569969670405366
1326.583293049635,1326.583293049635,0.9997394038917682,0.00016565163701399172
1326.590237539231,1326.590237539231,1.0001530299311912,0.00016568923346633357
1326.5971820288446,1326.5971820288446,1.0000297661879851,0.0001656942894036091
1326.6041265184756,1326.6041265184756,1.0001847501718233,0.00016569518207959407
1326.6110710081218,1326.6110710081218,1.000362905480075,0.00016571676378673964
1326.6180154977833,1326.6180154977833,0.9997690104956126,0.00016569492963462647
1326.624959987461,1326.624959987461,0.9998351636436154,0.0001656769103350832
1326.6319044771542,1326.6319044771542,0.999903487493232,0.00016569703229322956
1326.6388489668639,1326.6388489668639,0.9999086571079546,0.00016568543738460583
1326.6457934565856,1326.6457934565856,0.9999444908318729,0.0001657057827718367
1326.6527379463246,1326.6527379463246,0.9998012717972751,0.00016568715540705498
1326.6596824360781,1326.6596824360781,1.0000148483069713,0.00016570587129083482
1326.6666269258446,1326.6666269258446,1.0002540615776767,0.00016570048415308252
1326.6735714156266,1326.6735714156266,1.0003087011557255,0.0001656928340345282
1326.680515905421,1326.680515905421,1.000110470511027,0.00016566255097601987
1326.688293734008,1326.688293734008,0.9998923155677216,0.00016564105532016737
1326.6957937830189,1326.6957937830189,0.9998169587868595,0.00016560924382739544
1326.7027382728563,1326.7027382728563,0.9999139074390258,0.00016560376021910135
1326.7099605423032,1326.7099605423032,1.0001769079545764,0.00016560968747134262
1326.7180161505453,1326.7180161505453,1.000011620487323,0.0001656032806232591
1326.7249606404246,1326.7249606404246,0.999814493011581,0.000165569696595457
1326.7319051303155,1326.7319051303155,0.9999221489578985,0.00016557775287968942
1326.7388496202193,1326.7388496202193,0.9999965807381732,0.0001655789686302161
1326.7457941101334,1326.7457941101334,1.000010939156411,0.0001655598742278875
1326.7527386000606,1326.7527386000606,0.9998677747327471,0.00016553697616576116
1326.7596830899984,1326.7596830899984,1.0001568835390793,0.00016554412883107152
1326.7666275799484,1326.7666275799484,1.000042252534303,0.00016553076847702336
1326.7735720699086,1326.7735720699086,1.0001270794209345,0.00016554370368414517
1326.78051655988,1326.78051655988,0.9999868333135493,0.0001655249556871223
1326.7874610498632,1326.7874610498632,1.000050769490122,0.00016552641085409162
1326.794405539856,1326.794405539856,1.000237545476559,0.00016552642751782928
1326.8013500298587,1326.8013500298587,0.999849820848157,0.00016552569086869756
1326.8082945198714,1326.8082945198714,0.9999027011666481,0.00016552918659571306
1326.8152390098944,1326.8152390098944,0.9997682284433074,0.00016551211951397357
1326.822183499928,1326.822183499928,0.9999159020093453,0.00016554640965369514
1326.82912798997,1326.82912798997,1.0001708199353851,0.0001655392060278972
1326.8360724800216,1326.8360724800216,1.0001330681900862,0.0001655555539987078
1326.8430169700835,1326.8430169700835,1.0000455773068657,0.00016553917155679435
1326.8499614601537,1326.8499614601537,0.999729264447614,0.0001655097994178024
1326.856905950232,1326.856905950232,1.0000960167672033,0.00016553238756550107
1326.8638504403202,1326.8638504403202,1.0002081859643417,0.00016551610393606778
1326.8707949304176,1326.8707949304176,0.999974637975194,0.00016549317973249309
1326.8777394205222,1326.8777394205222,0.9996115694345858,0.00016545082239975483
1326.8846839106354,1326.8846839106354,1.0000071504499821,0.00016545353150373821
1326.8916284007569,1326.8916284007569,1.0000535199336635,0.00016543562254078017
1326.8985728908863,1326.8985728908863,1.0001084972740326,0.0001654167682213052
1326.905517381023,1326.905517381023,1.0000991777316033,0.00016538963197029028
1326.912461871168,1326.912461871168,1.0001250513343254,0.00016536424696952145
1326.9194063613197,1326.9194063613197,1.000156108911009,0.00016535704309114655
1326.9263508514784,1326.9263508514784,0.9998569612994628,0.0001652994770333127
1326.9332953416447,1326.9332953416447,0.9999092814693181,0.00016528467170925408
1326.9402398318189,1326.9402398318189,0.999978654857404,0.00016526085878313423
1326.9471843219976,1326.9471843219976,0.9998563858782588,0.00016522245077791093
1326.9541288121854,1326.9541288121854,1.000013538414213,0.00016523111329617326
1326.961073302379,1326.961073302379,0.9996765015540181,0.0001651743598023683
1326.9680177925784,1326.9680177925784,1.0003174512590423,0.00016521028222348866
1326.9749622827844,1326.9749622827844,1.0001801247054083,0.0001651867745206915
1326.9819067729964,1326.9819067729964,1.0001867571659815,0.00016517664662621997
1326.9888512632144,1326.9888512632144,0.9998912691783508,0.00016515488987174407
1326.9957957534382,1326.9957957534382,1.0000696711129173,0.00016513539385319066
1327.0027402436674,1327.0027402436674,0.9998097892853222,0.00016512535029762594
1327.0096847339032,1327.0096847339032,1.0000362511544736,0.00016513856483176296
1327.016629224143,1327.016629224143,0.9999466576572356,0.00016513090265395314
1327.023573714388,1327.023573714388,0.9999522712051953,0.00016511782815916968
1327.03051820464,1327.03051820464,0.9998929618405302,0.0001651257409205316
1327.0374626948956,1327.0374626948956,0.9999767195786312,0.00016513621112425577
1327.0444071851555,1327.0444071851555,1.0000140541616036,0.00016513093737260327
1327.051351675421,1327.051351675421,1.0000748025351374,0.00016513537020346105
