time,time,flux,flux_err
1325.2999258002185,1325.2999258002185,1.000010391174026,7.277052011595266e-05
1325.308259083033,1325.308259083033,0.9999682505732893,7.277127511535301e-05
1325.3165923660906,1325.3165923660906,1.000011126179628,7.277461302280841e-05
1325.3249256493805,1325.3249256493805,1.0000732722140604,7.277605497381289e-05
1325.3325644925856,1325.3325644925856,0.9999614726684957,6.643570303763994e-05
1325.3395088956763,1325.3395088956763,0.9999204904045428,6.643569108521401e-05
1325.3464532989303,1325.3464532989303,1.0000280008930449,6.644124655739441e-05
1325.353397702335,1325.353397702335,0.9999591967545604,6.644237242736878e-05
1325.360342105868,1325.360342105868,1.0000668370673433,6.644877459034733e-05
1325.367286509588,1325.367286509588,1.0000360229012983,6.645134399097834e-05
1325.3742309134352,1325.3742309134352,1.000029514469928,6.6449486153673e-05
1325.3811753174225,1325.3811753174225,0.999968458820461,6.645253759269296e-05
1325.388119721584,1325.388119721584,0.9998609248863117,6.64563935960727e-05
1325.3950641258966,1325.3950641258966,1.00000667540017,6.646445667899527e-05
1325.4020085303266,1325.4020085303266,1.0001069750311384,6.646910473542589e-05
1325.4089529348955,1325.4089529348955,1.0000359882902317,6.646878339909722e-05
1325.4158973396395,1325.4158973396395,0.9999808436387753,6.647217827409515e-05
1325.4228417445347,1325.4228417445347,1.0000338304159937,6.647468061917315e-05
1325.4297861495231,1325.4297861495231,0.9999442715264111,6.647625443259898e-05
1325.4367305546975,1325.4367305546975,0.9999158522161171,6.647773652441845e-05
1325.4436749599768,1325.4436749599768,0.9999430912577042,6.648091637789544e-05
1325.4506193654074,1325.4506193654074,1.0001108371598897,6.648812269775421e-05
1325.4575637709663,1325.4575637709663,0.9999204064407227,6.648566796965803e-05
1325.4645081766762,1325.4645081766762,1.000110825966021,6.64951877164948e-05
1325.4714525825027,1325.4714525825027,1.0001357386854433,6.649619029331337e-05
1325.4783969884688,1325.4783969884688,0.9999555248111077,6.649417896584199e-05
1325.4853413945746,1325.4853413945746,0.9998550249238528,6.64942196816903e-05
1325.4922858007856,1325.4922858007856,0.999866504055197,6.649761865938628e-05
1325.4992302071244,1325.4992302071244,1.0000722608009598,6.650654041642342e-05
1325.506174613626,1325.506174613626,1.0000781260804439,6.65106990434747e-05
1325.5131190202324,1325.5131190202324,0.9999793654820893,6.65107035228338e-05
1325.520063426967,1325.520063426967,1.0001270035026817,6.651922968751367e-05
1325.5270078338178,1325.5270078338178,1.0000093340985212,6.651890489408844e-05
1325.533952240797,1325.533952240797,0.9999806524356123,6.65223036643526e-05
1325.5408966479038,1325.5408966479038,0.9999449015478541,6.652312643118535e-05
1325.5478410551043,1325.5478410551043,1.000021910766241,6.652870928314446e-05
1325.554785462467,1325.554785462467,0.9998987800344672,6.652684267547918e-05
1325.5617298699237,1325.5617298699237,0.9999427914017947,6.653002133409535e-05
1325.5686742774965,1325.5686742774965,1.0000121474859573,6.653756756458393e-05
1325.5756186851854,1325.5756186851854,1.000123463703988,6.654253011754059e-05
1325.582563092968,1325.582563092968,0.9999795082800412,6.654135239843613e-05
1325.589507500889,1325.589507500889,1.0000078673089452,6.654291572002975e-05
1325.5964519089164,1325.5964519089164,0.999918879849434,6.65411515877815e-05
1325.6033963170478,1325.6033963170478,1.0000568852043,6.654833878044238e-05
1325.610340725319,1325.610340725319,1.0000771743599974,6.655217495407955e-05
1325.6172851336719,1325.6172851336719,1.0000182983603916,6.654966252950351e-05
1325.624229542141,1325.624229542141,1.0000329967947332,6.654964350240717e-05
1325.6311739507032,1325.6311739507032,0.9999634981207886,6.654757633975631e-05
1325.6381183593935,1325.6381183593935,0.9999917145570958,6.655107967575096e-05
1325.645062768165,1325.645062768165,0.9999580619086441,6.655068601842374e-05
1325.6520071770417,1325.6520071770417,0.9998845204320983,6.655133621280992e-05
1325.6589515860464,1325.6589515860464,1.0000083208143409,6.655519607096936e-05
1325.665895995121,1325.665895995121,1.0000502360720147,6.655600220084712e-05
1325.672840404323,1325.672840404323,0.9999842042768581,6.655515320353345e-05
1325.6797848136075,1325.6797848136075,1.0000053051749622,6.65535727584844e-05
1325.6867292229847,1325.6867292229847,1.0000855352196756,6.655906153811577e-05
1325.6936736324778,1325.6936736324778,1.0000155691072543,6.655747113901981e-05
1325.7006180420303,1325.7006180420303,1.000011038943328,6.655518461722665e-05
1325.707562451733,1325.707562451733,0.9997888195476754,6.655148783134716e-05
1325.7145068614943,1325.7145068614943,1.0000914932287968,6.656046966369e-05
1325.7214512713604,1325.7214512713604,1.0000080703374663,6.656162593889055e-05
1325.728395681308,1325.728395681308,1.0000231978670435,6.656357493965844e-05
1325.7353400913487,1325.7353400913487,1.0000457525270163,6.656424569731503e-05
1325.7422845015058,1325.7422845015058,1.0000009537616537,6.656561308705665e-05
1325.749228911721,1325.749228911721,0.9999424101160622,6.656453904539255e-05
1325.7561733220182,1325.7561733220182,1.0001117953731564,6.65715138477799e-05
1325.7631177324197,1325.7631177324197,0.9999858856848988,6.657010586293663e-05
1325.7700621429026,1325.7700621429026,0.9999275577913685,6.657082504740695e-05
1325.7770065534792,1325.7770065534792,0.9999335892337623,6.657300292382908e-05
1325.7839509641485,1325.7839509641485,1.0000632756449064,6.657938589264367e-05
1325.7908953748642,1325.7908953748642,0.9998806862258709,6.657558720915782e-05
1325.7978397857082,1325.7978397857082,1.000119240825932,6.658272351341864e-05
1325.8047841966104,1325.8047841966104,0.9999701157454881,6.65795249282427e-05
1325.811728607594,1325.811728607594,0.9999923113831001,6.65803553698131e-05
1325.8186730186594,1325.8186730186594,1.0000449155726627,6.65819692048893e-05
1325.825617429806,1325.825617429806,1.0000077006092936,6.658160476991377e-05
1325.8325618410224,1325.8325618410224,0.9999758856641912,6.658258439380503e-05
1325.8395062523323,1325.8395062523323,0.9999631075935967,6.658347641705332e-05
1325.8464506637115,1325.8464506637115,1.0000830109758145,6.658540158220506e-05
1325.8533950751723,1325.8533950751723,1.0000252585720077,6.658326026228683e-05
1325.8603394866918,1325.8603394866918,1.0000336744257514,6.658425300989403e-05
1325.8672838983275,1325.8672838983275,0.9998995614347402,6.657905134086095e-05
1325.8742283099866,1325.8742283099866,1.0000348543388888,6.658112994819566e-05
1325.8811727217267,1325.8811727217267,0.9998918490370651,6.657436559246146e-05
1325.8881171335602,1325.8881171335602,1.0000525914374199,6.65783032691157e-05
1325.8950615454403,1325.8950615454403,0.999792863767383,6.656922073145299e-05
1325.9020059574136,1325.9020059574136,1.0001366304387864,6.657987128885239e-05
1325.9089503694565,1325.9089503694565,0.9999824530453166,6.65725704717481e-05
1325.9158947815579,1325.9158947815579,1.0000453694535225,6.657427392948706e-05
1325.9228391937288,1325.9228391937288,1.0000316374721323,6.657658207905913e-05
1325.9297836059584,1325.9297836059584,1.0000449288212638,6.657512094000518e-05
1325.9367280182692,1325.9367280182692,0.9999241723119103,6.657172683671928e-05
1325.9436724306381,1325.9436724306381,1.0000357269263358,6.657335518152242e-05
1325.9506168430773,1325.9506168430773,0.9999301317966409,6.657058188056394e-05
1325.9575612555977,1325.9575612555977,0.9999241834200401,6.657008072777247e-05
1325.9656167741698,1325.9656167741698,0.9999654538539435,6.65714109379786e-05
1325.9728389633194,1325.9728389633194,1.0000424969437163,6.657317811261583e-05
1325.9797833760142,1325.9797833760142,1.00003220947086,6.657147352401766e-05
1325.986727788779,1325.986727788779,0.9999273084369186,6.656767160701923e-05
1325.9936722016018,1325.9936722016018,0.9999740499278695,6.65715045924229e-05
1326.0006166144951,1326.0006166144951,1.0000380259162018,6.657480778881703e-05
1326.007561027446,1326.007561027446,1.0001371548392892,6.65789502447584e-05
1326.0145054404438,1326.0145054404438,1.0000591006018038,6.657694633459397e-05
1326.0214498535115,1326.0214498535115,0.9999767552710116,6.657637483029241e-05
1326.0283942666258,1326.0283942666258,1.00002624867772,6.657982969620683e-05
1326.035338679821,1326.035338679821,0.9999077944103474,6.657725568166251e-05
1326.0422830930397,1326.0422830930397,0.9998770015505922,6.657408043976146e-05
1326.0492275063402,1326.0492275063402,1.0001321545883404,6.658530238855511e-05
1326.0561719196753,1326.0561719196753,0.9999885085671693,6.657951399127226e-05
1326.0631163330806,1326.0631163330806,0.9999788164511356,6.658263858892936e-05
1326.0700607465437,1326.0700607465437,1.0000317703496537,6.658476780135033e-05
1326.0770051600418,1326.0770051600418,0.9999715200753927,6.658510112542963e-05
1326.0839495736104,1326.0839495736104,0.9999584903466822,6.658230566210451e-05
1326.0908939872252,1326.0908939872252,1.0000670567930208,6.658815660757488e-05
1326.0978384009095,1326.0978384009095,0.999952470390648,6.658387673806794e-05
1326.104782814606,1326.104782814606,1.000024902821365,6.658523824410011e-05
1326.1117272283832,1326.1117272283832,1.0000521900250983,6.65877943112184e-05
1326.1186716421844,1326.1186716421844,0.9999422322779141,6.658173232058596e-05
1326.1256160560665,1326.1256160560665,0.999897338105875,6.658135992093387e-05
1326.1325604699728,1326.1325604699728,1.0000264047076663,6.658502925279582e-05
1326.1395048839597,1326.1395048839597,1.0001148209660289,6.658662057281102e-05
1326.1464492979471,1326.1464492979471,0.9998766567230545,6.658119535593654e-05
1326.153393712004,1326.153393712004,1.0000962475396515,6.658752934668497e-05
1326.1603381261075,1326.1603381261075,1.0000714047268962,6.658763104333059e-05
1326.1672825402577,1326.1672825402577,0.9999760394513331,6.658270370584762e-05
1326.1742269544543,1326.1742269544543,0.9999706157934835,6.658228159232927e-05
1326.181171368698,1326.181171368698,0.9999317672480863,6.658030503277554e-05
1326.1881157829762,1326.1881157829762,0.9998722122493,6.657825544551153e-05
1326.1950601973242,1326.1950601973242,1.0001413075698857,6.65855596442149e-05
1326.2020046116838,1326.2020046116838,1.0000672688282477,6.658534162468156e-05
1326.208949026102,1326.208949026102,0.9999814035367345,6.658200316442173e-05
1326.2158934405663,1326.2158934405663,0.9999802707967982,6.65813039720418e-05
1326.2228378550658,1326.2228378550658,0.9999959349188543,6.658070080412537e-05
1326.2297822696116,1326.2297822696116,1.000036859915868,6.658445978862778e-05
1326.2367266842043,1326.2367266842043,1.0001041192720848,6.65853124732073e-05
1326.2436710988081,1326.2436710988081,0.9998461454366548,6.657700902412888e-05
1326.2506155134827,1326.2506155134827,1.0000107171243202,6.658491198303294e-05
1326.2575599281913,1326.2575599281913,1.0000007866160927,6.658382933150903e-05
1326.2645043429238,1326.2645043429238,0.999987494448589,6.658266561100722e-05
1326.2714487577146,1326.2714487577146,0.999970876179419,6.658239154703585e-05
1326.2783931725512,1326.2783931725512,0.999963926152655,6.65802593983308e-05
1326.2853375874115,1326.2853375874115,1.000051225723937,6.658267236077913e-05
1326.2922820022952,1326.2922820022952,1.0000058057469061,6.658178547928504e-05
1326.2992264172258,1326.2992264172258,0.9999535905629484,6.657985300354124e-05
1326.3061708322018,1326.3061708322018,1.0000878475732728,6.658372606169866e-05
1326.313115247214,1326.313115247214,0.9999375687789611,6.657980981009707e-05
1326.3200596622603,1326.3200596622603,1.000145463113751,6.658953747624612e-05
1326.32700407733,1326.32700407733,1.000009405874947,6.658259792587168e-05
1326.333948492435,1326.333948492435,0.9999853961841282,6.658478333096742e-05
1326.3408929075747,1326.3408929075747,0.9999261485497104,6.657921997208028e-05
1326.3489484292204,1326.3489484292204,0.9999783631341636,6.658236836276532e-05
1326.357559504089,1326.357559504089,0.999968361746288,6.658462404808884e-05
1326.3645039193457,1326.3645039193457,0.9999388457851751,6.658401086549316e-05
1326.371448334648,1326.371448334648,1.000038444565425,6.658530050218292e-05
1326.3783927499742,1326.3783927499742,0.9999129070321537,6.658347109837973e-05
1326.3853371653352,1326.3853371653352,0.9999998093440521,6.658615160174952e-05
1326.3922815807423,1326.3922815807423,1.000163241420769,6.659241165568166e-05
1326.399225996127,1326.399225996127,1.0000369769261768,6.658897908142019e-05
1326.4061704116154,1326.4061704116154,0.9999798307063752,6.658581151310079e-05
1326.4131148270933,1326.4131148270933,1.0000207415402305,6.658962995044829e-05
1326.4200592426052,1326.4200592426052,0.9999733345887731,6.658738595860853e-05
1326.4270036581527,1326.4270036581527,0.9999819886700768,6.658726444623155e-05
1326.4339480737344,1326.4339480737344,0.9999651926829974,6.658868717216095e-05
1326.4408924893282,1326.4408924893282,0.9999728330879849,6.658986423427321e-05
1326.447836904957,1326.447836904957,1.0000447018859437,6.659333796438982e-05
1326.4547813206204,1326.4547813206204,0.9999764452825936,6.659160572137798e-05
1326.461725736331,1326.461725736331,1.0000428902968532,6.659466090253885e-05
1326.4686701520177,1326.4686701520177,0.999928570981224,6.658968679033494e-05
1326.4756145677975,1326.4756145677975,1.0000528089056058,6.659749367241753e-05
1326.4825589835546,1326.4825589835546,1.0001389384310446,6.660082231035184e-05
1326.4895033993457,1326.4895033993457,0.9998969678079739,6.659492681055316e-05
1326.4964478151726,1326.4964478151726,0.9999151460524859,6.659481578541962e-05
1326.5033922310338,1326.5033922310338,1.0001041427322608,6.660157668671312e-05
1326.5103366469073,1326.5103366469073,1.0000297550047315,6.660145859095832e-05
1326.5172810628035,1326.5172810628035,0.9999374141826468,6.659613984990131e-05
1326.524225478723,1326.524225478723,0.9998314360567176,6.659576482984034e-05
1326.5311698946896,1326.5311698946896,0.9999799607541842,6.660101670844228e-05
1326.538114310679,1326.538114310679,0.9999738575309062,6.659941221266582e-05
1326.5450587266457,1326.5450587266457,1.0000448576453054,6.660299998085234e-05
1326.55200314267,1326.55200314267,0.9999908451152841,6.660489164393649e-05
1326.5589475587526,1326.5589475587526,0.9999424716553961,6.660276707874397e-05
1326.5658919748118,1326.5658919748118,1.0000497800258594,6.660625726312924e-05
1326.572836390906,1326.572836390906,1.0000685071371187,6.660664115000473e-05
1326.579780807024,1326.579780807024,1.0000473359470852,6.660419865183915e-05
1326.5867252231646,1326.5867252231646,0.9999944211902381,6.660424144201982e-05
1326.5936696393292,1326.5936696393292,1.0000016332110362,6.660670998296935e-05
1326.6006140555166,1326.6006140555166,1.000033282180383,6.660650737613201e-05
1326.6075584717155,1326.6075584717155,0.9999559174825619,6.660487341581327e-05
1326.6145028879498,1326.6145028879498,0.9999243144573949,6.660594629465153e-05
1326.621447304195,1326.621447304195,0.9999860526858356,6.660934831859237e-05
1326.6283917204644,1326.6283917204644,1.0000022650092335,6.660945831081643e-05
1326.635336136768,1326.635336136768,1.0000510356920607,6.661107406422793e-05
1326.6422805530838,1326.6422805530838,1.0000552686399318,6.661316631966558e-05
1326.649224969399,1326.649224969399,0.9999643304012485,6.661053779051487e-05
1326.6561693857495,1326.6561693857495,1.0000153435083654,6.660994162144005e-05
1326.6631138021235,1326.6631138021235,0.9999862780456675,6.661109923874399e-05
1326.6700582185085,1326.6700582185085,0.9999806273014323,6.660772396363082e-05
1326.6770026349175,1326.6770026349175,0.9999511328505346,6.660537247844619e-05
1326.6839470513492,1326.6839470513492,0.9999967688210685,6.660610974931636e-05
1326.6922803510909,1326.6922803510909,1.0000225556500204,6.660771898588939e-05
1326.6992247675576,1326.6992247675576,0.9999269922124508,6.660180048360581e-05
1326.7061691840358,1326.7061691840358,1.0001108814407023,6.660464661926337e-05
1326.7139469305075,1326.7139469305075,0.9999779341140338,6.660319197671905e-05
1326.721446900373,1326.721446900373,0.9999525416842723,6.659812897670539e-05
1326.7283913169097,1326.7283913169097,1.0000882161227147,6.660113144999237e-05
1326.7353357334578,1326.7353357334578,0.9999118921003929,6.659642651885968e-05
1326.7422801500295,1326.7422801500295,1.000013339396052,6.659475123805834e-05
1326.7492245666126,1326.7492245666126,1.0000511769375695,6.659796403756679e-05
1326.7561689832191,1326.7561689832191,1.0000643010452162,6.659758084059028e-05
1326.7631133998489,1326.7631133998489,0.9999025464698945,6.659103862602206e-05
1326.7700578164904,1326.7700578164904,1.0000128268081112,6.659464274231172e-05
1326.7770022331435,1326.7770022331435,1.0000609408854042,6.659376144707399e-05
1326.7839466498085,1326.7839466498085,1.0000281577920715,6.659437876170064e-05
1326.7908910665085,1326.7908910665085,0.999892926448009,6.659060053756332e-05
1326.7978354832078,1326.7978354832078,1.000027537544615,6.659464624728467e-05
1326.8047798999196,1326.8047798999196,0.9999003050220152,6.659089189776374e-05
1326.8117243166419,1326.8117243166419,1.0000473493776814,6.659499512469285e-05
1326.8186687333882,1326.8186687333882,1.0000677933661144,6.659669136269494e-05
1326.8256131501462,1326.8256131501462,0.9998891600507301,6.658948472151868e-05
1326.832557566916,1326.832557566916,0.9999961734364886,6.65921482510297e-05
1326.8395019836971,1326.8395019836971,0.9999597068192051,6.659432919499842e-05
1326.8464464005015,1326.8464464005015,1.0003484192834458,6.660499442403728e-05
1326.853390817306,1326.853390817306,1.00002384237372,6.659505847663493e-05
1326.8603352341338,1326.8603352341338,0.9998996833520148,6.658872157586067e-05
1326.8672796509616,1326.8672796509616,1.0001506977451204,6.659751916886897e-05
1326.874224067801,1326.874224067801,0.9999954816770507,6.659071546931121e-05
1326.8811684846753,1326.8811684846753,0.9998193555460562,6.658279601092228e-05
1326.888112901538,1326.888112901538,0.9998622968535622,6.658301187486391e-05
1326.8950573184352,1326.8950573184352,0.9999347309150904,6.658259304677303e-05
1326.9020017353332,1326.9020017353332,1.00012574725656,6.658681295202378e-05
1326.9089461522306,1326.9089461522306,1.000068072358237,6.658519487970526e-05
1326.9158905691631,1326.9158905691631,1.0000337490025335,6.65811671235213e-05
1326.9228349860841,1326.9228349860841,1.000006199160707,6.657646367084252e-05
1326.92977940304,1326.92977940304,1.0000550163683448,6.657600270674284e-05
1326.936723819984,1326.936723819984,1.0001075877975096,6.657502102839523e-05
1326.9436682369394,1326.9436682369394,0.9998429788269168,6.656531888440565e-05
1326.9506126539306,1326.9506126539306,0.99996159109127,6.656689812497835e-05
1326.9575570708978,1326.9575570708978,0.9999487518280749,6.656659960784467e-05
1326.9645014879006,1326.9645014879006,0.999939559139895,6.65627596749968e-05
1326.9714459049144,1326.9714459049144,1.0001147776595611,6.656783283146058e-05
1326.9783903219165,1326.9783903219165,1.000084485946434,6.656486630003057e-05
1326.9853347389426,1326.9853347389426,0.9999930618905374,6.655968451503877e-05
1326.9922791559798,1326.9922791559798,1.0000663053452772,6.656247843687754e-05
1326.999223573017,1326.999223573017,0.9998946070330854,6.655205518364012e-05
1327.0061679900778,1327.0061679900778,0.999901176760598,6.655418969922096e-05
1327.0131124071381,1327.0131124071381,0.9998882089910841,6.655303806447831e-05
1327.0200568242103,1327.0200568242103,1.000074039149833,6.655694104999888e-05
1327.0270012412825,1327.0270012412825,1.0000614389726936,6.65573618027622e-05
1327.0339456583665,1327.0339456583665,1.0000796540057177,6.655965714668503e-05
1327.040890075462,1327.040890075462,0.9999216340314885,6.65514569317941e-05
1327.047834492569,1327.047834492569,1.0001592331524118,6.655875347744298e-05
1327.0547789096763,1327.0547789096763,0.9999276795871166,6.654979354960194e-05
1327.062834433534,1327.062834433534,1.0000978890781418,6.655900630681778e-05
1327.0700566273515,1327.0700566273515,0.9998318301053033,6.654948199955687e-05
1327.0770010444821,1327.0770010444821,1.0000262366053683,6.65570436910639e-05
