time,time,flux,flux_err
1325.300049119066,1325.300049119066,0.9996189308035363,0.003327966996684569
1325.3083823293148,1325.3083823293148,0.9945720062853881,0.003329638507864688
1325.3167155398264,1325.3167155398264,1.0021787221137564,0.0033362562680809837
1325.3250487505798,1325.3250487505798,1.00326942032682,0.003338540107370619
1325.3326875273292,1325.3326875273292,1.0060659512842567,0.0030515488035634604
1325.339631870012,1325.339631870012,0.9984049252461439,0.0030502181674887724
1325.346576212823,1325.346576212823,1.0010421749275877,0.0030535758671692502
1325.3535205558317,1325.3535205558317,0.99790397144862,0.003056317085928579
1325.3604648989917,1325.3604648989917,0.9976005737161937,0.0030615214361897564
1325.3674092423503,1325.3674092423503,1.0025182743889518,0.0030680880887424774
1325.3743535858362,1325.3743535858362,0.999205857746713,0.0030722803349605672
1325.381297929497,1325.381297929497,0.992122359325033,0.003072642304610574
1325.3882422733204,1325.3882422733204,1.0045780606383452,0.003086170060460451
1325.3951866172952,1325.3951866172952,1.0012250591766052,0.003090932906239063
1325.4021309614334,1325.4021309614334,1.0031426509384835,0.0030966031953274303
1325.409075305711,1325.409075305711,1.001455342439045,0.003100522257399743
1325.4160196501634,1325.4160196501634,0.9965387892169959,0.003102416323738213
1325.422963994767,1325.422963994767,0.9983700120127347,0.0031072998379108184
1325.4299083395106,1325.4299083395106,1.0037170043216652,0.0031160515224200585
1325.43685268444,1325.43685268444,0.9991238052401638,0.003118038366408642
1325.4437970294862,1325.4437970294862,0.9990001355330549,0.003119604634610931
1325.450741374695,1325.450741374695,0.9965082866361691,0.003122674949527646
1325.4576857200439,1325.4576857200439,0.9985304486766798,0.0031297387115712416
1325.4646300655438,1325.4646300655438,1.0038294300037018,0.0031370862511418524
1325.4715744112068,1325.4715744112068,1.0014741043548112,0.003138764385997057
1325.4785187570096,1325.4785187570096,0.9984627074753977,0.003141666542354697
1325.4854631029402,1325.4854631029402,0.9999332545078076,0.003148990354354381
1325.4924074490111,1325.4924074490111,1.0012916527890696,0.003158221618243722
1325.4993517952446,1325.4993517952446,1.003780392412341,0.0031649983551334526
1325.506296141606,1325.506296141606,0.9981250153208719,0.0031673278494361106
1325.5132404881072,1325.5132404881072,0.9956242041216175,0.0031726596166544254
1325.52018483476,1325.52018483476,1.0036686698647335,0.0031853808309749826
1325.5271291815404,1325.5271291815404,1.0005215184322664,0.0031901072404228667
1325.5340735284608,1325.5340735284608,1.00151525266368,0.0031981597276539812
1325.5410178754973,1325.5410178754973,0.9967878993337302,0.0032019726306207912
1325.5479622226742,1325.5479622226742,0.9976989161355757,0.003207675823143588
1325.5549065700015,1325.5549065700015,1.0030598939981659,0.003219723928297923
1325.5618509174344,1325.5618509174344,0.9994478867100426,0.0032231351790787365
1325.56879526503,1325.56879526503,1.0000409081110588,0.003228967688517758
1325.575739612707,1325.575739612707,0.9954652533013926,0.003229811303651789
1325.5826839605356,1325.5826839605356,1.0044752411624855,0.003241258127895854
1325.5896283085028,1325.5896283085028,1.0011613506496022,0.003242406960791594
1325.5965726565762,1325.5965726565762,0.997334191029146,0.0032447442255461372
1325.603517004777,1325.603517004777,1.0010460418848226,0.0032488647582095695
1325.610461353106,1325.610461353106,0.9980550189685703,0.0032490920547453782
1325.6174057015864,1325.6174057015864,1.000372590776443,0.0032576094028431623
1325.6243500501364,1325.6243500501364,0.9999103153331577,0.0032595894080002658
1325.6312943988264,1325.6312943988264,1.004873710700604,0.0032623584021366997
1325.6382387476444,1325.6382387476444,0.9991092622078517,0.0032628113811325327
1325.6451830965666,1325.6451830965666,1.0009176769033725,0.0032660226043991327
1325.6521274456177,1325.6521274456177,1.0003518298826017,0.00326540609530774
1325.6590717947731,1325.6590717947731,0.9963105342965113,0.003263498895319638
1325.6660161440452,1325.6660161440452,0.9978779919151333,0.0032664397127664816
1325.672960493433,1325.672960493433,0.9981168880101656,0.003266002908435369
1325.6799048429382,1325.6799048429382,1.0004928204106185,0.003269118853527031
1325.6868491925593,1325.6868491925593,0.9989506822981719,0.003272615137504576
1325.6937935422616,1325.6937935422616,0.9992217166437307,0.003273434849933585
1325.700737892093,1325.700737892093,1.0065531030420918,0.003278331124982522
1325.707682242028,1325.707682242028,1.0044065135470064,0.0032773545637404663
1325.71462659208,1325.71462659208,0.9992246757672925,0.0032763736061396874
1325.7215709422367,1325.7215709422367,0.9972102837133547,0.0032788644077060072
1325.7285152924865,1325.7285152924865,0.9952438781505499,0.0032834828333020384
1325.735459642841,1325.735459642841,1.0018481448951202,0.003290504085999316
1325.742403993289,1325.742403993289,1.000317280028532,0.003294845592417204
1325.7493483438643,1325.7493483438643,1.0011812215492224,0.003302070223830839
1325.7562926945336,1325.7562926945336,1.0018403777805927,0.0033042171748572215
1325.763237045307,1325.763237045307,1.000895064409503,0.00331130527372471
1325.7701813961623,1325.7701813961623,0.997711917411354,0.003314426906858581
1325.7771257471225,1325.7771257471225,1.0000432402262895,0.0033202050320374336
1325.7840700981872,1325.7840700981872,0.9957127904540126,0.0033182721467758538
1325.7910144493449,1325.7910144493449,1.0004735061394148,0.0033235398082367396
1325.7979588005958,1325.7979588005958,1.0023576231286515,0.003327948499423259
1325.8049031519283,1325.8049031519283,0.9970246204483241,0.003328229831760677
1325.811847503377,1325.811847503377,1.0030959456116721,0.0033324948997370102
1325.8187918549195,1325.8187918549195,0.9955102847431165,0.003328313507511973
1325.825736206531,1325.825736206531,1.0001937172544055,0.003333312390759255
1325.8326805582478,1325.8326805582478,1.004138586045027,0.003336529700755296
1325.8396249100576,1325.8396249100576,0.9985815817950723,0.0033336865673933612
1325.8465692619488,1325.8465692619488,1.0045816568325772,0.0033379152216758273
1325.8535136139212,1325.8535136139212,0.9987733041865221,0.003336730459054507
1325.860457965999,1325.860457965999,0.9995464785966661,0.0033359669450850173
1325.8674023181582,1325.8674023181582,1.0007626702612251,0.0033347035085778756
1325.8743466703756,1325.8743466703756,1.002128719042466,0.0033347822644493805
1325.8812910227323,1325.8812910227323,0.9965211604343749,0.0033320416897754403
1325.8882353751358,1325.8882353751358,0.9948818562133288,0.003327003829482311
1325.8951797276325,1325.8951797276325,1.0027056134657037,0.0033328971960795853
1325.902124080199,1325.902124080199,1.002029944507178,0.0033305500338232873
1325.9090684328585,1325.9090684328585,0.999143325603337,0.0033272195891657884
1325.916012785588,1325.916012785588,0.9990854702701559,0.0033251817384876902
1325.922957138422,1325.922957138422,1.0016536529692708,0.003327108962116027
1325.9299014913147,1325.9299014913147,1.0008301336743202,0.003323898595371687
1325.9368458442884,1325.9368458442884,0.9964225025539969,0.0033204166619188362
1325.9437901973438,1325.9437901973438,1.002211572381696,0.003322070827978605
1325.9507345504812,1325.9507345504812,1.0011980063464787,0.003321431931256192
1325.9576789036762,1325.9576789036762,1.000507565080394,0.003320075871690501
1325.965734353505,1325.965734353505,1.0004938626964892,0.003321678951664169
1325.9729564810011,1325.9729564810011,0.9991371729130311,0.0033197243366024274
1325.979900834452,1325.979900834452,0.9982741405463894,0.003322116064805809
1325.9868451879615,1325.9868451879615,0.9993312412034578,0.00332230734006119
1325.9937895415524,1325.9937895415524,1.0048924679190943,0.0033247442006785434
1326.0007338952134,1326.0007338952134,0.9981034423054334,0.003319599206487453
1326.0076782489555,1326.0076782489555,0.9945105767945431,0.003319595695583227
1326.014622602733,1326.014622602733,1.0015816061926244,0.0033298163781603747
1326.021566956615,1326.021566956615,0.9997800806087257,0.0033328920554174593
1326.0285113105554,1326.0285113105554,1.0031754325630977,0.0033359776868214707
1326.0354556645652,1326.0354556645652,0.9945894212619946,0.003332108634576511
1326.042400018633,1326.042400018633,1.0081235346938766,0.003337758930075535
1326.0493443727948,1326.0493443727948,1.0049004711580403,0.003337714925343527
1326.0562887269907,1326.0562887269907,0.9985969707784639,0.003335631821507029
1326.0632330812805,1326.0632330812805,0.9960661517798322,0.003335921854302535
1326.0701774356046,1326.0701774356046,0.9948442310934785,0.003332907524705703
1326.0771217900103,1326.0771217900103,0.9972483529753479,0.003336367035033242
1326.0840661444747,1326.0840661444747,1.0022608531290271,0.003339944308493512
1326.0910104990087,1326.0910104990087,1.002452151073559,0.003340903790560109
1326.0979548536006,1326.0979548536006,0.996640289897662,0.0033377909235630097
1326.1048992082513,1326.1048992082513,1.0000510777108098,0.0033381755165257988
1326.1118435629592,1326.1118435629592,1.0051691778356475,0.0033420520283518112
1326.118787917738,1326.118787917738,1.000422958032038,0.0033376351832561427
1326.1257322725858,1326.1257322725858,0.9981826631887788,0.003335557547085922
1326.1326766274694,1326.1326766274694,0.9978068945502538,0.0033372356831308215
1326.1396209824222,1326.1396209824222,1.001841562262897,0.003339619662632124
1326.1465653374337,1326.1465653374337,1.001869351070582,0.0033435594068638567
1326.1535096924913,1326.1535096924913,1.0036291469036442,0.00334262266754614
1326.1604540476187,1326.1604540476187,0.9997064358781775,0.003342558317097745
1326.1673984027814,1326.1673984027814,0.997488958449936,0.0033421671289450595
1326.1743427580368,1326.1743427580368,0.9973378982286352,0.0033384640697355673
1326.1812871133277,1326.1812871133277,0.9998133235617361,0.0033401915842440296
1326.1882314686766,1326.1882314686766,0.9934759232049218,0.003336276356463292
1326.1951758240718,1326.1951758240718,0.9975858528486029,0.003337334024149571
1326.2021201795255,1326.2021201795255,1.0050335943668194,0.0033412726512803783
1326.2090645350256,1326.2090645350256,1.0044044685547147,0.0033417179009035333
1326.216008890584,1326.216008890584,1.003887999518302,0.003340320121010272
1326.222953246212,1326.222953246212,1.001892347220768,0.0033387516843046854
1326.2298976018635,1326.2298976018635,1.0010900738009447,0.003337561288896361
1326.2368419575732,1326.2368419575732,0.9966443135324379,0.0033341609334426557
1326.243786313329,1326.243786313329,0.9958658229196887,0.003334260126299718
1326.250730669144,1326.250730669144,0.99947954180478,0.003337068389639271
1326.257675025005,1326.257675025005,0.9989216075464797,0.0033361493780262852
1326.2646193809128,1326.2646193809128,0.9999557117485885,0.003338525031156747
1326.2715637368788,1326.2715637368788,1.0003882226150846,0.0033389855671869797
1326.278508092879,1326.278508092879,1.001526174632413,0.003338235270100091
1326.285452448938,1326.285452448938,0.9988541129905162,0.0033374432444421244
1326.2923968050436,1326.2923968050436,1.0014584401949596,0.003337359975282522
1326.299341161196,1326.299341161196,1.0013565477993038,0.0033398287654644435
1326.3062855173941,1326.3062855173941,1.0007211997696737,0.003338437380257973
1326.3132298736282,1326.3132298736282,1.001611500448269,0.003340477304545012
1326.320174229908,1326.320174229908,1.000503168024625,0.0033415604718690086
1326.3271185862345,1326.3271185862345,1.000584159597533,0.0033434821456719
1326.3340629425963,1326.3340629425963,0.9904966189811912,0.0033381850418600137
1326.3410072990278,1326.3410072990278,1.0006849823972455,0.0033449909035381904
1326.3490627525239,1326.3490627525239,1.0044918909861404,0.003347885399206444
1326.3576737545982,1326.3576737545982,0.9982122704346306,0.0033461209353475552
1326.364618111158,1326.364618111158,0.9995574983955023,0.0033462970857240258
1326.3715624677639,1326.3715624677639,1.0007009049438662,0.003346979765399709
1326.3785068244167,1326.3785068244167,0.9982984509023176,0.003346084196560465
1326.3854511810928,1326.3854511810928,1.004995923543398,0.0033483919296983717
1326.392395537815,1326.392395537815,0.9983350495889687,0.0033434285009427806
1326.3993398945845,1326.3993398945845,0.99669055804591,0.0033458849694887197
1326.4062842513881,1326.4062842513881,1.0008507862175307,0.0033455118704165746
1326.4132286082274,1326.4132286082274,1.0047295933293108,0.003351171017171164
1326.4201729651127,1326.4201729651127,0.9936386040292703,0.0033466236092102586
1326.4271173220334,1326.4271173220334,1.0016099127450546,0.0033501679009259274
1326.4340616789882,1326.4340616789882,0.9998465725147743,0.003353395192600314
1326.4410060359903,1326.4410060359903,0.9947440268776194,0.003353400965421128
1326.4479503930156,1326.4479503930156,1.0052356650688399,0.003359724803416471
1326.4548947500873,1326.4548947500873,0.99720510833906,0.0033599064548479316
1326.461839107194,1326.461839107194,0.9996455920829534,0.0033609139258662817
1326.4687834643473,1326.4687834643473,1.0049863129286845,0.0033659571032395646
1326.475727821512,1326.475727821512,0.994261457026278,0.0033625138341724383
1326.4826721787472,1326.4826721787472,1.00302032847829,0.0033673629251582244
1326.4896165359814,1326.4896165359814,0.996998369047611,0.00336696896798636
1326.496560893263,1326.496560893263,0.9990152768938139,0.003367591243455692
1326.5035052505905,1326.5035052505905,1.0005053929394307,0.0033694488843232463
1326.5104496079305,1326.5104496079305,1.001967145850212,0.0033712902812695253
1326.5173939653164,1326.5173939653164,0.9983948060994827,0.003372709624207127
1326.5243383227373,1326.5243383227373,1.0015368651199617,0.0033746809739958555
1326.5312826801933,1326.5312826801933,1.0044369483749251,0.003377976487684053
1326.5382270376724,1326.5382270376724,0.9993986268997974,0.003375888768314063
1326.5451713951986,1326.5451713951986,0.9977154195178478,0.003372470323478801
1326.5521157527241,1326.5521157527241,0.9945789343353753,0.0033733272341088137
1326.55906011032,1326.55906011032,1.0025477358297807,0.0033757625524679286
1326.5660044679269,1326.5660044679269,0.9991007000079257,0.003375529234589481
1326.572948825569,1326.572948825569,0.9932651014837208,0.0033696379487319164
1326.5798931832346,1326.5798931832346,1.0100679606600744,0.0033785869242929168
1326.586837540935,1326.586837540935,1.0213466082865104,0.0033889043175815902
1326.5937818986706,1326.5937818986706,1.0087438783245348,0.0033802335209279096
1326.6007262564292,1326.6007262564292,1.0062627812395202,0.003379887435255702
1326.6076706142107,1326.6076706142107,1.0027930839744583,0.0033741775159890027
1326.614614972028,1326.614614972028,0.9953040376114138,0.0033720268386184804
1326.6215593298791,1326.6215593298791,0.9964246162618057,0.003373611799442867
1326.6285036877548,1326.6285036877548,0.9970961012126767,0.0033741694262319063
1326.6354480456528,1326.6354480456528,1.0032509611652871,0.0033794547392444066
1326.6423924035862,1326.6423924035862,0.9975547629519774,0.0033777033699924582
1326.6493367615426,1326.6493367615426,0.9974043379390565,0.003378757002859977
1326.656281119534,1326.656281119534,1.0027734359812466,0.003382430282232206
1326.6632254775373,1326.6632254775373,1.0085517206485977,0.0033863875506666293
1326.670169835575,1326.670169835575,0.9911114362786592,0.0033741267803533252
1326.67711419366,1326.67711419366,0.9975157361947529,0.003374019232576648
1326.6840585517093,1326.6840585517093,1.004187980777939,0.0033731311476159877
1326.6923917814852,1326.6923917814852,1.0000557756153878,0.0033683693009244294
1326.6993361396164,1326.6993361396164,0.9986298203513828,0.0033654129876915517
1326.7062804977938,1326.7062804977938,0.997468012199012,0.0033640121251939043
1326.7140581789681,1326.7140581789681,1.000223819226829,0.003361474780003676
1326.7215580858528,1326.7215580858528,1.0017181036629565,0.003362451668993326
1326.728502444112,1326.728502444112,1.001231205952277,0.0033617498021788574
1326.735446802371,1326.735446802371,1.0013095532192258,0.0033626547374680056
1326.7423911606652,1326.7423911606652,1.0064933367305133,0.0033644013790825288
1326.7493355189824,1326.7493355189824,0.9984124128549297,0.0033616294008218554
1326.756279877323,1326.756279877323,0.9998961776566448,0.003362631216042315
1326.7632242357104,1326.7632242357104,0.995914691894245,0.003359096208698993
1326.770168594051,1326.770168594051,0.9996137753188084,0.0033609853742275174
1326.777112952508,1326.777112952508,0.9968965202867756,0.0033587080388630904
1326.7840573109188,1326.7840573109188,0.9940167510912137,0.0033571545134165317
1326.7910016693763,1326.7910016693763,1.0005798559533423,0.0033597019996629285
1326.7979460278445,1326.7979460278445,1.003463994245006,0.0033602984843555243
1326.804890386337,1326.804890386337,1.0039512645662918,0.003362423963872336
1326.8118347448633,1326.8118347448633,1.0000691391804932,0.0033574841682071145
1326.8187791033904,1326.8187791033904,1.004755206922924,0.0033584741350820096
1326.8257234619525,1326.8257234619525,0.9988250746991966,0.0033525821996768486
1326.8326678205378,1326.8326678205378,0.9957906708425878,0.003349201979745244
1326.839612179123,1326.839612179123,0.9990495499390137,0.0033521231629164592
1326.8465565377428,1326.8465565377428,1.0021313847606048,0.0033516507764120573
1326.8535008963863,1326.8535008963863,0.9984792558660379,0.0033513122016827477
1326.8604452550412,1326.8604452550412,0.9973161006355827,0.003346828945688032
1326.8673896137313,1326.8673896137313,1.0025778409946884,0.0033513342876155434
1326.8743339724213,1326.8743339724213,1.0022764643164848,0.003346899530752398
1326.8812783311112,1326.8812783311112,0.9995274278470896,0.003343943887440608
1326.8882226898595,1326.8882226898595,1.002057596024168,0.0033423592809376595
1326.8951670485953,1326.8951670485953,0.9954265057206083,0.003337165053363007
1326.902111407379,1326.902111407379,1.0033545225249567,0.0033379143701099947
1326.9090557661618,1326.9090557661618,0.9989547672709707,0.0033350256071812876
1326.9160001249566,1326.9160001249566,1.0033199478381296,0.0033326752361071367
1326.9229444837863,1326.9229444837863,0.9986125841127812,0.0033256456216290064
1326.9298888426276,1326.9298888426276,0.9967453889999499,0.003319996890716609
1326.9368332014687,1326.9368332014687,0.9989434928861645,0.003316757630448587
1326.9437775603446,1326.9437775603446,1.0023649257215677,0.003315006272645494
1326.950721919233,1326.950721919233,0.9945039890827385,0.0033073702186760734
1326.9576662781321,1326.9576662781321,1.0023336587764873,0.0033080769067622396
1326.9646106370553,1326.9646106370553,1.0026559274976763,0.0033037821354734687
1326.9715549960013,1326.9715549960013,1.0007239308500728,0.0032966347509035925
1326.9784993549238,1326.9784993549238,1.0031317297792202,0.0032965413260311396
1326.9854437139052,1326.9854437139052,0.9957210592421966,0.003289297751508336
1326.9923880728861,1326.9923880728861,1.0021086415170173,0.0032908686840624085
1326.9993324318668,1326.9993324318668,0.997756155043405,0.0032859735402123356
1327.0062767909062,1327.0062767909062,0.9970798987442029,0.0032879078667831197
1327.013221149922,1327.013221149922,1.0030551475979372,0.0032896010438519577
1327.020165508961,1327.020165508961,1.0017628900784359,0.003286174296690012
1327.0271098680237,1327.0271098680237,1.0041720185678238,0.003290957974705396
1327.0340542270862,1327.0340542270862,1.0000034936318882,0.0032873487886937876
1327.0409985861718,1327.0409985861718,0.99221251474454,0.003281144735196644
1327.0479429452694,1327.0479429452694,0.9995514754349637,0.003286552574225724
1327.0548873043783,1327.0548873043783,0.9965771964351433,0.003284797726548814
1327.0629427609595,1327.0629427609595,1.0037471469799488,0.0032906402754113084
1327.070164894474,1327.070164894474,0.9992477857913714,0.0032891986979924964
1327.0771092536181,1327.0771092536181,1.0011531778180986,0.0032908882768944644
1327.0840536127967,1327.0840536127967,1.0051738636604504,0.003291672968669445
1327.090997971964,1327.090997971964,1.000103881030812,0.003291856606801075
