time,time,flux,flux_err
1385.9552697243544,1385.9552697243544,0.9999824676191102,0.0001260223732260822
1385.9636031558794,1385.9636031558794,1.0000261887443471,0.00012606560643043912
1385.9712421347244,1385.9712421347244,0.9998357507451361,0.00011509973791114814
1385.9781866608669,1385.9781866608669,0.9997500976761289,0.00011513101364311511
1385.9851311869631,1385.9851311869631,0.9999262322078784,0.00011517334370624516
1385.9920757129662,1385.9920757129662,0.9999233926810417,0.00011520439447412869
1385.9990202389681,1385.9990202389681,1.0051632190091304,0.00011543264331066192
1386.0059647648318,1386.0059647648318,1.0006132751710353,0.00011507268066876888
1386.0129092906486,1386.0129092906486,0.9988220349045701,0.00011495167605620148
1386.019853816418,1386.019853816418,0.9978564519872716,0.00011491405753185613
1386.0267983420954,1386.0267983420954,0.9973083061993231,0.00011489603575039396
1386.0337428677262,1386.0337428677262,0.9977587993849426,0.00011492409883468784
1386.0406873932627,1386.0406873932627,0.9982478500138132,0.00011495693634789637
1386.0476319188467,1386.0476319188467,0.9988218917014382,0.00011497833249305923
1386.0545764442911,1386.0545764442911,0.9992975528374807,0.00011499639663635306
1386.0615209696418,1386.0615209696418,0.9997204913538125,0.0001150288047898911
1386.0684654948527,1386.0684654948527,1.0002953564594457,0.0001150579762620383
1386.075410020111,1386.075410020111,1.000394429159499,0.00011505875177761059
1386.0823545452754,1386.0823545452754,1.0014074481142239,0.00011510552646822615
1386.089299070393,1386.089299070393,1.0019830531027047,0.000115131962697411
1386.0962435954186,1386.0962435954186,1.0022256009618349,0.00011512221139848377
1386.103188120397,1386.103188120397,1.00165242511586,0.00011502100575450703
1386.1101326453283,1386.1101326453283,1.0011461081582365,0.00011493122689858561
1386.117077170121,1386.117077170121,1.0004839837990658,0.0001148341154965097
1386.1240216949598,1386.1240216949598,1.0006671352090142,0.00011477949407437036
1386.1309662196581,1386.1309662196581,1.0141419686621156,0.00011545731675044171
1386.137910744311,1386.137910744311,1.0010178705754746,0.00011468759188564426
1386.1448552689176,1386.1448552689176,1.000049558065522,0.0001146107100985007
1386.1517997934293,1386.1517997934293,0.9997083260035587,0.00011457393760978995
1386.1587443178491,1386.1587443178491,0.9998090127703181,0.00011455330781844199
1386.165688842269,1386.165688842269,0.9999313331510885,0.00011454468950314912
1386.1726333665022,1386.1726333665022,0.999690786430538,0.00011451033091253477
1386.1795778907353,1386.1795778907353,0.9998183681853903,0.00011449136292142918
1386.1865224149692,1386.1865224149692,0.9997446233500578,0.00011446305898955558
1386.1934669392024,1386.1934669392024,1.0000903493726296,0.00011446063247838709
1386.2004114632025,1386.2004114632025,1.000156418316471,0.0001144353132193729
1386.2073559872501,1386.2073559872501,1.000054077845051,0.00011440801554316751
1386.214300511158,1386.214300511158,1.0000026112146805,0.0001143765144263927
1386.2212450350642,1386.2212450350642,1.0001399806708882,0.00011436060073270362
1386.2281895588326,1386.2281895588326,1.0001893531577533,0.00011433185145288773
1386.235134082554,1386.235134082554,1.0001525608798534,0.00011430714476254376
1386.2420786062278,1386.2420786062278,0.9998882184560844,0.00011426754976608614
1386.2490231298561,1386.2490231298561,0.999794733330275,0.00011423484704225599
1386.255967653438,1386.255967653438,0.9998529385925344,0.00011421353100005481
1386.2629121769257,1386.2629121769257,1.000181378866006,0.00011419449672182605
1386.2698567003208,1386.2698567003208,0.9999674291032028,0.00011415347180683494
1386.2768012236697,1386.2768012236697,0.9997602347921735,0.0001141123514679548
1386.2837457470184,1386.2837457470184,0.9999792115703088,0.00011408655568517254
1386.2906902702268,1386.2906902702268,0.9999070691268642,0.00011405427312373897
1386.2976347933895,1386.2976347933895,1.0000542896137108,0.00011402897931171064
1386.304579316459,1386.304579316459,1.0000728701947594,0.00011399027587743937
1386.3115238395271,1386.3115238395271,1.0000281273838258,0.00011396789850630685
1386.3184683625038,1386.3184683625038,1.000111476527018,0.00011393911066897458
1386.3254128853873,1386.3254128853873,0.9999966758904494,0.00011390000508022884
1386.3323574082228,1386.3323574082228,1.0001008009317593,0.00011387230975077342
1386.3393019310129,1386.3393019310129,1.0001230841654365,0.00011383556426707937
1386.3462464537101,1386.3462464537101,1.000136321719593,0.00011380877191038681
1386.3531909763599,1386.3531909763599,0.9997143755598927,0.0001137548107962972
1386.3601354989635,1386.3601354989635,0.9997059829140333,0.00011372810126671251
1386.367635583273,1386.367635583273,0.9998478710998429,0.00011370555412947857
1386.375413448412,1386.375413448412,1.0002033732996143,0.00011370032540564961
1386.3823579707823,1386.3823579707823,0.9999133146960698,0.00011365819273779435
1386.389302493107,1386.389302493107,1.0000337257934737,0.0001136363563498746
1386.3962470153383,1386.3962470153383,1.0001158555851348,0.00011361680091621931
1386.4031915375683,1386.4031915375683,1.0001398649722826,0.00011359710264756366
1386.4101360596599,1386.4101360596599,1.0002129113732643,0.00011358179953107313
1386.4170805817982,1386.4170805817982,0.9999674483461408,0.00011354643095132317
1386.4240251037027,1386.4240251037027,1.0001384230416726,0.00011353599477631322
1386.4309696256082,1386.4309696256082,0.9999010817490357,0.00011351365648406277
1386.4379141475133,1386.4379141475133,0.9998283306397926,0.00011349072749940265
1386.4448586693718,1386.4448586693718,1.0000540206452324,0.00011348331124287503
1386.4518031910904,1386.4518031910904,0.9996986564414074,0.00011346175512078828
1386.458747712763,1386.458747712763,1.000045021986914,0.00011346453032963703
1386.4656922343418,1386.4656922343418,1.0001896971455517,0.00011345657659819311
1386.4726367559674,1386.4726367559674,1.0000344753457209,0.00011343738385960437
1386.4795812774069,1386.4795812774069,0.9999195441024552,0.00011342271002744091
1386.4865257988,1386.4865257988,0.9998657279009541,0.00011340201219736394
1386.4934703202384,1386.4934703202384,1.0004164062128518,0.00011342258307369577
1386.5004148414453,1386.5004148414453,0.9998494302429346,0.00011337775273883944
1386.5073593627455,1386.5073593627455,0.9996468655878438,0.000113356255215155
1386.5143038839053,1386.5143038839053,0.9998891080763984,0.00011335682665413317
1386.5212484049719,1386.5212484049719,0.9998737507982163,0.00011334424638786476
1386.5281929260393,1386.5281929260393,1.0000993611586528,0.00011335140925191563
1386.5351374470129,1386.5351374470129,1.000186189997821,0.00011334333272318112
1386.5420819679396,1386.5420819679396,1.0001925997203014,0.00011334862922196328
1386.5490264887742,1386.5490264887742,1.000256599598654,0.00011333480163879497
1386.5559710096552,1386.5559710096552,0.9998576471165223,0.00011331890608099938
1386.5631933111783,1386.5631933111783,0.9998095001026679,0.0001133175771068026
1386.571248955052,1386.571248955052,1.0001039060953605,0.00011333116542619191
1386.5781934756535,1386.5781934756535,0.999845582477602,0.00011332460656384173
1386.5851379962078,1386.5851379962078,1.0000214589670549,0.0001133465747948284
1386.592082516669,1386.592082516669,1.0000974528323012,0.00011335671789246473
1386.599027036991,1386.599027036991,1.0001841488432759,0.00011336476032918707
1386.6059715573597,1386.6059715573597,1.0000547174557035,0.00011337434920695708
1386.612916077634,1386.612916077634,0.9998239409453582,0.00011337808269402696
1386.6198605978632,1386.6198605978632,0.9998301338439891,0.00011339707330669253
1386.6268051179993,1386.6268051179993,0.9998954552719506,0.00011342053646844833
1386.6337496380872,1386.6337496380872,0.99978204992436,0.0001134371125491814
1386.6406941581304,1386.6406941581304,1.0003528184442323,0.00011348665020426635
1386.6476386780334,1386.6476386780334,1.0001753793019634,0.00011350051088139483
1386.6545831979356,1386.6545831979356,1.0000807702759456,0.00011352442797675452
1386.6615277177455,1386.6615277177455,1.0000140344043313,0.00011355002925166412
1386.6684722375085,1386.6684722375085,0.9998944799700169,0.00011357029549808489
1386.6754167572715,1386.6754167572715,1.0000250482631783,0.0001136035242113035
1386.6823612768944,1386.6823612768944,0.9998435479308949,0.00011362772018471417
1386.6893057964712,1386.6893057964712,0.9997406918449041,0.00011365516492472447
1386.696250316002,1386.696250316002,0.9997520765686396,0.0001136950990564543
1386.7031948353915,1386.7031948353915,0.99995811510517,0.00011374192418201882
1386.7101393547823,1386.7101393547823,1.0006178437904922,0.00011382334013854706
1386.717083874127,1386.717083874127,1.0002322639551013,0.00011384275786131682
1386.724028393331,1386.724028393331,1.000028697125659,0.00011387440299929117
1386.7309729125348,1386.7309729125348,1.000048761586429,0.00011392365529742006
1386.7379174316927,1386.7379174316927,0.9999829876528178,0.00011396719332981376
1386.7448619508043,1386.7448619508043,0.9998313101123337,0.00011400958337990695
1386.7518064698215,1386.7518064698215,0.9999862225473091,0.00011406688383595272
1386.7587509887464,1386.7587509887464,0.9998815050308469,0.00011412793987567378
1386.765695507625,1386.765695507625,0.999960831786279,0.00011419114722627572
1386.7729178071932,1386.7729178071932,1.0000095397581314,0.00011424676096007207
1386.7809734489242,1386.7809734489242,1.0002499021124704,0.00011431791145124126
1386.7879179676163,1386.7879179676163,0.9998846442223716,0.0001143566409347727
1386.7948624862618,1386.7948624862618,1.000032813814809,0.00011441900241717829
1386.801807004767,1386.801807004767,1.00000400346277,0.0001144764472718578
1386.8087515233196,1386.8087515233196,0.9997677333070557,0.00011452982466865953
1386.815696041826,1386.815696041826,0.9998111837895095,0.00011458761978832036
1386.8226405600512,1386.8226405600512,1.0000242343877472,0.00011466205626167103
1386.8295850784182,1386.8295850784182,1.000050585090929,0.00011472659867841335
1386.8365295966444,1386.8365295966444,1.0000625733247224,0.00011479108983735726
1386.843474114824,1386.843474114824,1.0002236735088035,0.0001148596610669867
1386.850418632957,1386.850418632957,0.9999079693595201,0.00011490322345712042
1386.8573631509976,1386.8573631509976,1.0001971620644725,0.00011498278342152606
1386.8643076689912,1386.8643076689912,0.9999262213012408,0.00011503584398895437
1386.871252186984,1386.871252186984,1.0001387759081333,0.0001151156505030147
1386.8781967047914,1386.8781967047914,1.0001265455382538,0.00011517122173770173
1386.8851412226459,1386.8851412226459,0.9997673886338188,0.00011522995433745111
1386.8920857403593,1386.8920857403593,1.0000570213640687,0.00011530651073581892
1386.8990302580269,1386.8990302580269,1.000135079318416,0.00011537895540723012
1386.905974775695,1386.905974775695,0.9998856345256282,0.00011543178252764204
1386.9129192932228,1386.9129192932228,0.9997253324563266,0.00011547992798080003
1386.91986381075,1386.91986381075,0.9998049805514752,0.00011554557749974311
1386.9268083281852,1386.9268083281852,1.000173809146822,0.00011561281343553046
1386.9337528455271,1386.9337528455271,0.9998192385431149,0.0001156555688384153
1386.9406973627752,1386.9406973627752,0.9997716598500265,0.00011570943695763556
1386.9476418800234,1386.9476418800234,0.9999838235101922,0.00011577079398013065
1386.9545863972721,1386.9545863972721,1.0001645373334167,0.00011583069934174843
1386.9615309144276,1386.9615309144276,1.0002843397919001,0.00011589468322463583
1386.9684754314892,1386.9684754314892,1.0002807171302943,0.00011594402531549109
1386.9754199484587,1386.9754199484587,1.0001798079891828,0.00011598234112066016
1386.9831978074515,1386.9831978074515,0.9997775158566078,0.0001160205532681547
1386.9906978856602,1386.9906978856602,1.000126729705816,0.00011607883758130745
1386.997642402443,1386.997642402443,0.9999759160819537,0.00011612344371046376
1387.0045869191795,1387.0045869191795,0.9997472191876353,0.00011616400800034971
1387.0115314358688,1387.0115314358688,0.9999522478038175,0.00011622423556212191
1387.018475952465,1387.018475952465,0.9999617960792694,0.0001162736799062022
1387.0254204690154,1387.0254204690154,0.9999120763541545,0.0001163156602174099
1387.0323649854727,1387.0323649854727,1.000212902989555,0.00011636446082464247
1387.0393095019756,1387.0393095019756,1.000152248477733,0.00011639968260278766
1387.0462540183394,1387.0462540183394,1.000013710623415,0.00011644016450752268
1387.0531985346104,1387.0531985346104,0.9997830364097989,0.0001164516665235832
1387.0601430508343,1387.0601430508343,0.999778358474407,0.00011647802650913231
1387.0670875671044,1387.0670875671044,0.9999731532877971,0.00011651498272733747
1387.0740320832358,1387.0740320832358,0.999906176785305,0.00011653309973133645
1387.0809765992738,1387.0809765992738,1.0002377230759771,0.00011657260935078688
1387.087921115171,1387.087921115171,1.0000315380335718,0.00011658524998618199
1387.0948656311625,1387.0948656311625,0.9998203345359744,0.00011658460816183265
1387.1018101470142,1387.1018101470142,0.9996386386435103,0.00011659379880988999
1387.1087546628194,1387.1087546628194,1.0009136478501124,0.0001166833835540222
1387.115699178577,1387.115699178577,1.0001058530216747,0.00011663913172495608
1387.1226436942889,1387.1226436942889,0.9998601223833962,0.00011662812002924434
1387.1295882098616,1387.1295882098616,0.999777319989161,0.00011664915499499828
1387.1365327254796,1387.1365327254796,0.9999551080123004,0.00011665962444669828
1387.143477241005,1387.143477241005,0.9998556272919344,0.0001166622646340903
1387.1504217563916,1387.1504217563916,1.0002454637462879,0.00011669289458761799
1387.157366271777,1387.157366271777,0.9999083628537273,0.00011666594676328716
1387.164310787116,1387.164310787116,0.9998600844439519,0.00011666582678982837
1387.171255302316,1387.171255302316,0.999800068528516,0.00011665798084638861
1387.1781998175625,1387.1781998175625,1.000208347864061,0.00011666978120824474
1387.1851443326684,1387.1851443326684,1.0000176642330292,0.00011664544692953848
1387.1920888477748,1387.1920888477748,0.9997906244274801,0.00011661382600956775
1387.1990333627418,1387.1990333627418,0.9997981116721408,0.00011659923841712879
1387.2059778776625,1387.2059778776625,0.9998469581399629,0.00011658139962652484
1387.2129223925813,1387.2129223925813,1.0002626299844461,0.00011657737624453819
1387.2198669074555,1387.2198669074555,1.0001274028134555,0.00011655557966599394
1387.2268114221897,1387.2268114221897,1.000299074416281,0.00011653362153412918
1387.2337559368768,1387.2337559368768,0.9996447826493619,0.00011648878997508757
1387.2407004515176,1387.2407004515176,1.000067100371234,0.00011648679409198068
1387.247644966112,1387.247644966112,1.0009004072025696,0.00011650785407639817
1387.2545894806133,1387.2545894806133,0.9998952447439722,0.00011642988686918845
1387.261533995067,1387.261533995067,0.9997584246471026,0.00011639995398670228
1387.2684785094286,1387.2684785094286,0.9996846651216093,0.00011637311822223833
1387.2754230237904,1387.2754230237904,0.9997711936999962,0.00011635609544311063
1387.2823675380582,1387.2823675380582,0.9998664027752042,0.0001163451022410573
1387.2893120522797,1387.2893120522797,1.000330290188506,0.00011634165596929869
1387.2962565664086,1387.2962565664086,1.0001102488150164,0.00011630229241527853
1387.3032010805375,1387.3032010805375,1.000022177623831,0.00011625621084825485
1387.3109789362693,1387.3109789362693,1.00003562115894,0.00011623723071745727
1387.3195901335134,1387.3195901335134,0.9999276558101737,0.00011621295159631565
1387.3268124279598,1387.3268124279598,0.9998660080642265,0.0001161721827553647
1387.3345902833662,1387.3345902833662,1.000070658541306,0.00011614462514965187
1387.3420903582225,1387.3420903582225,0.9998314490821943,0.00011610222114606039
1387.3493126525295,1387.3493126525295,0.9998169012675051,0.00011605755986925339
1387.3573682883002,1387.3573682883002,1.000057325343843,0.0001160337600976156
1387.3643128018691,1387.3643128018691,1.0002921283546669,0.00011601238142385219
1387.3712573153462,1387.3712573153462,0.9995663392111845,0.00011593513981944837
1387.37820182873,1387.37820182873,0.999530726804337,0.00011589454747918297
1387.3851463421129,1387.3851463421129,0.9997071032639797,0.00011586968971189049
1387.3920908554496,1387.3920908554496,1.0008083317787793,0.00011589876061756513
1387.3990353686472,1387.3990353686472,1.0006475261667194,0.00011586200654587416
1387.4059798818914,1387.4059798818914,1.000289460106731,0.00011581295670522358
1387.4129243949947,1387.4129243949947,1.0000048571020497,0.00011576686177579396
1387.4198689080526,1387.4198689080526,0.9999954043321578,0.00011574196797914343
1387.4268134210638,1387.4268134210638,0.999830329575137,0.00011570091849006664
1387.4337579339815,1387.4337579339815,0.999884506157706,0.00011568220093976375
1387.4407024468524,1387.4407024468524,0.9998886710078434,0.00011566459285404073
1387.4476469596775,1387.4476469596775,0.999707229975107,0.00011564388708091489
1387.4545914724563,1387.4545914724563,0.9999448727459743,0.00011564643905923023
1387.4615359850472,1387.4615359850472,1.0000798606891426,0.0001156410167551849
1387.468480497872,1387.468480497872,1.000256453610815,0.00011562510407366949
1387.4754250103244,1387.4754250103244,1.000077506020331,0.00011559509290521867
1387.4823695228235,1387.4823695228235,1.0000030094398764,0.00011556957218419044
1387.4893140353213,1387.4893140353213,1.000108355334383,0.00011555793006517794
1387.496258547681,1387.496258547681,0.9998411978121681,0.00011552951854635147
1387.50320306004,1387.50320306004,1.0000946690816013,0.0001155101749551347
1387.5101475723059,1387.5101475723059,0.9997631155520799,0.00011547092909687037
1387.5170920845248,1387.5170920845248,0.9998484908162428,0.0001154471654531643
1387.5240365966515,1387.5240365966515,0.9997563369297531,0.00011541948985915903
1387.5309811087313,1387.5309811087313,0.9998963021588061,0.00011539514552396553
1387.537925620764,1387.537925620764,0.999995461796636,0.00011537026320811013
1387.5448701327036,1387.5448701327036,1.000020748833026,0.00011535352015431032
1387.5518146446443,1387.5518146446443,1.0000301991546194,0.00011531353583747565
1387.558759156445,1387.558759156445,1.000407850649912,0.00011529854550643972
1387.565703668244,1387.565703668244,1.00020555973886,0.0001152595101435342
1387.5726481799516,1387.5726481799516,1.0000556744728328,0.00011522269797079336
1387.579592691659,1387.579592691659,0.9999195590458718,0.00011517707263597723
1387.586537203273,1387.586537203273,0.9998680872378529,0.00011515282475791295
1387.5934817147468,1387.5934817147468,0.999859280200404,0.00011512807434548247
1387.6004262261747,1387.6004262261747,1.0002135864357853,0.00011512049110657915
1387.6073707376029,1387.6073707376029,1.0000451326516786,0.00011508128333567684
1387.6143152490301,1387.6143152490301,0.9999869238405985,0.00011504705171696262
1387.6212597603644,1387.6212597603644,0.999884756531609,0.00011500258683140329
1387.6282042716068,1387.6282042716068,1.0002884985161633,0.0001150028453246995
1387.6351487827553,1387.6351487827553,1.0000087368647808,0.00011495099689331017
1387.642093293903,1387.642093293903,0.9996476632051567,0.0001149050002188569
1387.6490378049116,1387.6490378049116,0.9997241370670729,0.00011486440918429737
1387.6559823159205,1387.6559823159205,0.9996402306435602,0.00011481755601512578
1387.6629268268825,1387.6629268268825,0.9995332061786943,0.00011476987982400914
1387.669871337704,1387.669871337704,0.9995567096039839,0.00011474231887131142
1387.6768158485734,1387.6768158485734,1.000802031975719,0.00011477390670599527
1387.6837603593033,1387.6837603593033,1.0000819895995743,0.00011469973938826301
1387.6907048699854,1387.6907048699854,1.0009813028711907,0.00011472858340477328
1387.6976493806676,1387.6976493806676,1.0006673849914607,0.00011468139590876039
1387.704593891211,1387.704593891211,1.0004806522157554,0.00011465507046065765
1387.7115384017077,1387.7115384017077,0.9997906943777426,0.00011460354275744797
