time,time,flux,flux_err
1437.9999544945968,1437.9999544945968,1.0000778465811082,0.0002709749187171349
1438.0082879717195,1438.0082879717195,0.9999247226894887,0.000270660149678997
1438.0166214488427,1438.0166214488427,1.0000067788470586,0.00027041254479579174
1438.024260469553,1438.024260469553,1.0000808286474558,0.00024665969939635364
1438.0312050338355,1438.0312050338355,0.9998741577542398,0.0002464683640109016
1438.0381495981171,1438.0381495981171,0.9997946206041262,0.00024624139531429623
1438.0450941623064,1438.0450941623064,1.0001416892055786,0.0002461272806813184
1438.0520387264955,1438.0520387264955,1.0000052867994975,0.0002459029672125752
1438.0589832906842,1438.0589832906842,1.0002630919247557,0.0002457415734848904
1438.065927854967,1438.065927854967,0.9998050838021312,0.00024550098873737524
1438.0728724190624,1438.0728724190624,0.9999544846840054,0.00024533746297031783
1438.079816983065,1438.079816983065,1.000191285216856,0.00024515526774678833
1438.0867615472544,1438.0867615472544,0.9998721283053925,0.00024497157921632613
1438.093706111164,1438.093706111164,0.9998743272813073,0.00024474392827781964
1438.1006506749804,1438.1006506749804,0.9999979596776878,0.0002446113361173592
1438.1075952389833,1438.1075952389833,0.9998439102464365,0.00024445607405635474
1438.114539803079,1438.114539803079,1.0003188012288473,0.0002443303118010094
1438.1214843666162,1438.1214843666162,0.9997426681417277,0.00024412313404647114
1438.1284289302464,1438.1284289302464,1.0001152150817885,0.00024403473739777873
1438.1353734940626,1438.1353734940626,0.9997815599613536,0.0002438403695357219
1438.1423180576,1438.1423180576,1.0000881506157495,0.00024378254847796688
1438.14926262123,1438.14926262123,1.0001250921654903,0.0002435946448634206
1438.1562071845813,1438.1562071845813,0.9998849821090641,0.00024346345404855792
1438.163151747932,1438.163151747932,1.0003833004547888,0.00024340070674677266
1438.1700963111896,1438.1700963111896,0.9999410561726257,0.00024325562558588984
1438.1770408744476,1438.1770408744476,1.000207935154625,0.000243148686067409
1438.1839854375187,1438.1839854375187,1.0001560477483111,0.000243054715552283
1438.1909300005902,1438.1909300005902,0.9995875800969767,0.00024287106833354133
1438.1978745634756,1438.1978745634756,0.9998726984304414,0.00024280445008041635
1438.2048191262672,1438.2048191262672,1.000020612780731,0.00024272125357765662
1438.2117636891528,1438.2117636891528,0.9997840929603241,0.0002425538354511615
1438.2187082518515,1438.2187082518515,1.0000478334680976,0.00024248558919813887
1438.225652814271,1438.225652814271,1.0001767277972127,0.00024237975117981776
1438.2325973766908,1438.2325973766908,1.0002699102256096,0.0002422555777040103
1438.239541939017,1438.239541939017,0.999606447641634,0.00024210277116808038
1438.2464865013435,1438.2464865013435,1.0002084523899621,0.00024211647582472452
1438.2534310633905,1438.2534310633905,1.0002234049769683,0.000242046630865483
1438.260375625437,1438.260375625437,0.9993468738842015,0.00024185341237785738
1438.267320187298,1438.267320187298,1.0001689195167267,0.00024184745837441216
1438.2742647489727,1438.2742647489727,1.0000687858612705,0.00024169803277183471
1438.281209310926,1438.281209310926,1.000488503088682,0.00024174646860784403
1438.2881538724146,1438.2881538724146,1.0002212394386718,0.0002416386693699017
1438.2950984338097,1438.2950984338097,0.9993863974522916,0.00024148145684714335
1438.3020429949254,1438.3020429949254,1.0000008777997327,0.00024146247888461983
1438.3089875562273,1438.3089875562273,0.9997915488792039,0.00024136624754315562
1438.31593211725,1438.31593211725,1.00009239446756,0.0002413509010372507
1438.3228766781795,1438.3228766781795,1.00043811368359,0.00024131932252757007
1438.3298212390152,1438.3298212390152,0.9995929998889352,0.00024121112736419877
1438.336765799572,1438.336765799572,1.0001107823610975,0.0002411623607657482
1438.3437103601293,1438.3437103601293,0.9998220149815218,0.00024106390628340473
1438.350654920593,1438.350654920593,1.0001984520354377,0.00024106224013517824
1438.3575994808705,1438.3575994808705,1.0000701626868025,0.00024096165592641896
1438.3645440409614,1438.3645440409614,1.0000282255770525,0.00024088419347425416
1438.3714886009598,1438.3714886009598,0.9999121322724432,0.0002407972480051877
1438.3784331607717,1438.3784331607717,1.0000837552541952,0.00024075573024166176
1438.3853777204902,1438.3853777204902,1.0001992972976654,0.00024069990637157223
1438.3923222800227,1438.3923222800227,0.9998971028037549,0.00024060393033013098
1438.3992668394621,1438.3992668394621,0.9998346005568515,0.00024052198950833743
1438.4062113986217,1438.4062113986217,0.9998056078025452,0.0002404581991517788
1438.4131559577818,1438.4131559577818,0.9999188298568347,0.00024042068335178502
1438.4201005169416,1438.4201005169416,0.9996717346504032,0.0002404189512042186
1438.4270450757292,1438.4270450757292,1.0005074503396159,0.00024044091850171178
1438.4339896345166,1438.4339896345166,1.0001579631113333,0.00024042027794473573
1438.4409341930245,1438.4409341930245,1.000002102799971,0.00024036013522108404
1438.4478787514392,1438.4478787514392,0.9998750126017881,0.00024036705415231323
1438.454823309668,1438.454823309668,1.0001363351672503,0.00024036730094101618
1438.4617678678035,1438.4617678678035,0.999802994588966,0.0002403118876923087
1438.4687124258455,1438.4687124258455,1.0001827194226902,0.00024036817925955344
1438.4756569835154,1438.4756569835154,0.9999367844010539,0.0002403445494689821
1438.482601541185,1438.482601541185,1.0001965418934486,0.00024034971115840525
1438.4895460986686,1438.4895460986686,1.0000123767029845,0.00024031816978585703
1438.4964906560588,1438.4964906560588,0.9999169132488811,0.00024033072990255823
1438.5034352133562,1438.5034352133562,1.0001600206102734,0.0002403826430230451
1438.510379770188,1438.510379770188,0.9998927050921456,0.0002403211129666075
1438.5173243270192,1438.5173243270192,0.9996781711539136,0.00024030331406595817
1438.524268883851,1438.524268883851,0.9997219551341757,0.00024033223235333067
1438.5312134404967,1438.5312134404967,1.000454717717404,0.0002403932454793293
1438.5381579968623,1438.5381579968623,0.9998752785815717,0.00024031243862733583
1438.5451025531352,1438.5451025531352,0.9998608526846786,0.00024030730547322442
1438.5520471091284,1438.5520471091284,1.000150544145541,0.00024035160302290524
1438.5589916651218,1438.5589916651218,0.9997025090600665,0.00024027578338780574
1438.565936221022,1438.565936221022,1.0003875222873826,0.0002403579038816927
1438.5728807765495,1438.5728807765495,1.0002269440728326,0.00024035061714219926
1438.5798253319845,1438.5798253319845,0.9997318506506486,0.0002403069844454258
1438.5867698872323,1438.5867698872323,0.9999203793517346,0.00024027543174044713
1438.5937144424813,1438.5937144424813,1.0003662747630322,0.00024033832642902806
1438.6006589973574,1438.6006589973574,0.9999816645913674,0.00024026708491729125
1438.6076035522326,1438.6076035522326,1.0001667115528279,0.00024027128363785272
1438.6145481068293,1438.6145481068293,0.9996007687894611,0.00024022398473032034
1438.6214926613322,1438.6214926613322,0.9996956950525574,0.0002401320470451886
1438.6284372156492,1438.6284372156492,0.9997705981575271,0.00024026678370048563
1438.63538176978,1438.63538176978,1.000342832427495,0.0002403254319178674
1438.6423263237248,1438.6423263237248,1.000361972714317,0.00024031099414003725
1438.6492708776696,1438.6492708776696,0.9999344483101561,0.00024027341010927485
1438.656215431241,1438.656215431241,0.999839906569053,0.00024029470647243977
1438.66315998472,1438.66315998472,1.0003649394520628,0.0002403352432271759
1438.6701045381058,1438.6701045381058,1.0000051834321457,0.0002402683976674014
1438.6770490913054,1438.6770490913054,1.00043302229562,0.00024029834776930842
1438.6839936442252,1438.6839936442252,1.0002919396903707,0.00024027894207085282
1438.690938197145,1438.690938197145,0.9995607178256833,0.0002402428106500926
1438.6978827497855,1438.6978827497855,0.9997147540122355,0.00024023093462136204
1438.7048273023333,1438.7048273023333,0.999916643907348,0.00024028914253716504
1438.7117718545082,1438.7117718545082,0.9999518976503341,0.00024024222781854877
1438.7187164066831,1438.7187164066831,0.9999609188281052,0.00024024833919567332
1438.7256609588585,1438.7256609588585,0.9999553138493793,0.00024025623977843587
1438.732605510661,1438.732605510661,1.0002203360755417,0.00024029795615031698
1438.7395500623702,1438.7395500623702,1.0001257104077024,0.000240283653928492
1438.7464946138,1438.7464946138,1.0002601473052626,0.0002402905071123086
1438.7534391652298,1438.7534391652298,0.99981302328008,0.00024024544478980637
1438.7603837163808,1438.7603837163808,1.000054753277728,0.0002402283256678364
1438.7673282673447,1438.7673282673447,1.0000000767285564,0.0002401900808079159
1438.7742728183089,1438.7742728183089,1.0002418235955586,0.00024014120581951386
1438.781217368994,1438.781217368994,0.9996788460578564,0.00024019532838588827
1438.7881619194925,1438.7881619194925,1.0003222864312207,0.0002402405549125059
1438.7951064698052,1438.7951064698052,1.0007807446270722,0.0002403203164520758
1438.802051020024,1438.802051020024,0.9996985781028286,0.00024021631135097646
1438.8089955700568,1438.8089955700568,1.0003304158588786,0.00024023249508666215
1438.8159401199039,1438.8159401199039,0.9999452823527195,0.00024022196799562595
1438.8228846696575,1438.8228846696575,1.0001763384980287,0.00024021845363754473
1438.8298292191312,1438.8298292191312,0.9999989746552795,0.00024016873394591218
1438.8367737684196,1438.8367737684196,1.0001233820281423,0.0002401026748137173
1438.8437183176138,1438.8437183176138,0.9999728115388035,0.0002401036469244484
1438.8506628666225,1438.8506628666225,0.9996323714490156,0.0002400862907872356
1438.857607415445,1438.857607415445,0.9998344811939426,0.00024012535961968244
1438.8645519641736,1438.8645519641736,1.0002082846179807,0.0002401378595884354
1438.871496512717,1438.871496512717,0.9999145397141419,0.00024014566001693774
1438.8784410610733,1438.8784410610733,1.0001604651896958,0.00024017018458976185
1438.8853856092435,1438.8853856092435,0.9999009220344786,0.00024011066972060452
1438.8923301572274,1438.8923301572274,0.9998815026019854,0.00024005683743610475
1438.8992747050252,1438.8992747050252,0.999510726895714,0.0002399647440836647
1438.9062192527301,1438.9062192527301,1.0004088831911482,0.00024013530634551394
1438.9131638002484,1438.9131638002484,0.9997872884569485,0.0002401002869320236
1438.9201083475807,1438.9201083475807,1.0000259057255083,0.0002401042096499727
1438.9270528948196,1438.9270528948196,1.0001389985434286,0.00024017145773291447
1438.9339974418724,1438.9339974418724,1.000227786312554,0.0002400880050907923
1438.9409419887384,1438.9409419887384,0.9999018236885868,0.00024008637206819478
1438.947886535419,1438.947886535419,1.0000457858823812,0.00024006634995012827
1438.954831081913,1438.954831081913,0.9999276228558788,0.00024006208076977046
1438.9617756283137,1438.9617756283137,0.9994781068616374,0.00023995444348247802
1438.968720174435,1438.968720174435,1.0001808845149998,0.00024012813271469778
1438.9756647204633,1438.9756647204633,1.000428939295099,0.00024018382931319457
1438.9826092663054,1438.9826092663054,1.000121556264635,0.00024013881951116976
1438.989553812054,1438.989553812054,1.0001103895621135,0.00024013328912474225
1438.9964983576167,1438.9964983576167,0.9996189350860059,0.00024010685434183108
1439.0034429028997,1439.0034429028997,0.9998482570896728,0.00024011688057201474
1439.0103874480901,1439.0103874480901,1.0002201079069597,0.00024016517781996608
1439.01733199328,1439.01733199328,0.9998105606745116,0.00024004834618183973
1439.0242765380049,1439.0242765380049,0.9998048781658113,0.00024006519381026105
1439.031221082822,1439.031221082822,1.0001380240969309,0.0002401469399170427
1439.038165627267,1439.038165627267,1.0003765137848237,0.00024013287788827902
1439.0451101717122,1439.0451101717122,0.999966987213621,0.00024010528985683182
1439.0520547158774,1439.0520547158774,0.9998268658706643,0.0002400659558492297
1439.058999259857,1439.058999259857,0.9999721511678299,0.0002401295447457869
1439.0659438038365,1439.0659438038365,1.0000811723163017,0.00024009224573413868
1439.0728883475363,1439.0728883475363,0.9997947966926077,0.00024007330281029582
1439.0798328910498,1439.0798328910498,0.9999782320268299,0.00024007299706015677
1439.0867774344706,1439.0867774344706,1.0003335669468343,0.0002400945843858001
1439.0937219777982,1439.0937219777982,0.9997037565061891,0.0002400417762853929
1439.10066652066,1439.10066652066,0.9998003063987149,0.00024005825901275718
1439.1076110635215,1439.1076110635215,1.0002705875789613,0.0002400975137584532
1439.1145556063834,1439.1145556063834,1.0001426283307255,0.00024005703336415934
1439.1215001490589,1439.1215001490589,1.0000076274846843,0.0002400294381481984
1439.1284446914553,1439.1284446914553,0.9999926163847206,0.00024003151614142548
1439.1353892337581,1439.1353892337581,0.9998984374031747,0.00024000477216779004
1439.1423337757817,1439.1423337757817,0.9998949883250594,0.00024003975632976346
1439.1492783178053,1439.1492783178053,1.0001312594944216,0.00024006215537036307
1439.1562228594562,1439.1562228594562,0.9999373868136766,0.00023999526375115173
1439.1631674012003,1439.1631674012003,1.0002154529971023,0.000240076144705281
1439.170111942572,1439.170111942572,0.9999152138198978,0.00024001998453100642
1439.177056483944,1439.177056483944,0.9999755463314559,0.00024001270720631074
1439.1840010250357,1439.1840010250357,1.000095267831131,0.00024006740896224298
1439.190945565942,1439.190945565942,1.0004221448192305,0.00024004717799166244
1439.1978901067546,1439.1978901067546,0.9997698124287151,0.0002400041917554387
1439.2048346472884,1439.2048346472884,1.0000602757595707,0.0002400952698097117
1439.2117791878218,1439.2117791878218,1.000355727940279,0.00024009959103185024
1439.218723728262,1439.218723728262,0.9999344355800698,0.00024003283653813845
1439.225668268423,1439.225668268423,0.9997865412359687,0.0002400151978657574
1439.2326128083978,1439.2326128083978,1.0001597441900762,0.00024004561797147852
1439.2395573482795,1439.2395573482795,1.000178010057442,0.00024003723534805687
1439.246501887975,1439.246501887975,0.9998781119669218,0.00024002420620997697
1439.2534464273904,1439.2534464273904,0.9999922112243015,0.00023999773992050338
1439.2603909668064,1439.2603909668064,1.0001001435004444,0.00024004968262408914
1439.267335506036,1439.267335506036,0.9997485974608772,0.0002399714932536222
1439.2742800449862,1439.2742800449862,0.9998990618888446,0.00024001785981824742
1439.2812245840296,1439.2812245840296,1.0004216468982858,0.00024006544394152398
1439.2881691227003,1439.2881691227003,0.9997280393269664,0.0002400057553767778
1439.295113661185,1439.295113661185,1.0000701807464365,0.00024005163771106643
1439.3020581998555,1439.3020581998555,1.0001005027278038,0.00024002120951516857
1439.3090027380608,1439.3090027380608,0.9996585709516097,0.00023991563673586322
1439.31594727608,1439.31594727608,1.000012408801852,0.00023998759036764753
1439.3228918140057,1439.3228918140057,1.0003220241941801,0.00023999585803421842
1439.3298363518384,1439.3298363518384,1.0000153651524375,0.0002399666508180156
1439.3367808893915,1439.3367808893915,0.9996131308799467,0.00023994696059770408
1439.3437254269447,1439.3437254269447,1.0004704955933057,0.0002400658328993174
1439.3506699642185,1439.3506699642185,1.0000668962621801,0.0002399942278876439
1439.3576145013994,1439.3576145013994,1.0004132695959647,0.00024007181418259467
1439.3645590383935,1439.3645590383935,0.9999678629127173,0.00023994321714408136
1439.371503575202,1439.371503575202,0.9997089118619185,0.00023993420812929486
1439.378448111917,1439.378448111917,0.9997624176133085,0.00023999517740902202
1439.3853926484455,1439.3853926484455,1.000284012855203,0.00024000042466664617
1439.3923371847882,1439.3923371847882,0.9996704189129872,0.0002399590781060064
1439.3992817211308,1439.3992817211308,0.9997587398246365,0.00023996951629815235
1439.406226257101,1439.406226257101,1.0003167480782067,0.00023997263654699442
1439.4131707929773,1439.4131707929773,1.0002095345384316,0.0002399907096346316
1439.4201153288545,1439.4201153288545,0.99990570367817,0.0002399618134291241
1439.4270598643589,1439.4270598643589,1.0002614126502403,0.00023995875148164424
1439.4340043998632,1439.4340043998632,1.000162943341428,0.0002399527121018609
1439.440948935181,1439.440948935181,0.9997598937470317,0.00023989819113898162
1439.4478934703131,1439.4478934703131,0.999912147296507,0.00023998515847503357
1439.4548380052588,1439.4548380052588,1.000084875904632,0.0002399477500829444
1439.4617825400178,1439.4617825400178,0.9997441055336234,0.00023996319967965833
1439.4687270747775,1439.4687270747775,1.0004256453495204,0.00024002328196712471
1439.47567160935,1439.47567160935,1.000060754725277,0.00023998406236209986
1439.4826161436438,1439.4826161436438,1.000040344818486,0.00023991542707750007
1439.4895606779376,1439.4895606779376,0.9995078143929448,0.00023986602403160045
1439.4965052119514,1439.4965052119514,0.9998388719360809,0.00023994318431768804
1439.5034497458728,1439.5034497458728,1.000004726311985,0.00023996660143028292
1439.510394279701,1439.510394279701,1.000250866041472,0.0002399630923428251
1439.5173388134353,1439.5173388134353,1.0001019207591113,0.00023993158600716193
1439.5242833467044,1439.5242833467044,1.0001543597954698,0.00023997989806976452
1439.531227880067,1439.531227880067,0.9997212425026492,0.00023994018177192332
1439.5381724131498,1439.5381724131498,0.9998910967912998,0.00023993245141851576
1439.5451169461398,1439.5451169461398,1.0001129136797267,0.00023995361902288173
1439.5520614790362,1439.5520614790362,1.0001977083992082,0.00023997513665287496
1439.5590060117468,1439.5590060117468,0.9999415378427315,0.00023991445125349102
1439.5659505442707,1439.5659505442707,0.9999265500267434,0.00023993680988327243
1439.5728950767018,1439.5728950767018,0.9999249045285301,0.00023990426702204286
1439.5798396089463,1439.5798396089463,0.9999364591086085,0.00023990428746191984
1439.5867841410047,1439.5867841410047,1.0001476575170645,0.00023994234085382253
1439.59372867297,1439.59372867297,0.9999903723878129,0.00023997237021712594
1439.6006732047495,1439.6006732047495,1.0000763445513847,0.00023995002106779422
1439.607617736528,1439.607617736528,1.0000910544346133,0.00023995569118373116
1439.6145622679348,1439.6145622679348,1.0001074429323444,0.00024002111116430396
1439.6215067994344,1439.6215067994344,1.000161256682965,0.00023999730267038286
1439.628451330655,1439.628451330655,0.9996658234492001,0.00023992428453105223
1439.6353958615023,1439.6353958615023,0.9998269210220595,0.0002399410862570481
1439.6423403924432,1439.6423403924432,0.9999988325910343,0.00023998443116102992
1439.649284923198,1439.649284923198,0.9999109950631322,0.0002399461912194597
1439.6562294538594,1439.6562294538594,0.9998363459733508,0.0002399124737299828
1439.6631739842412,1439.6631739842412,0.9999978758285666,0.00023993392846668546
1439.6701185146237,1439.6701185146237,1.0000334796497612,0.00023991101495058335
1439.677063044633,1439.677063044633,1.0000776910125826,0.0002399350059219649
1439.6840075747357,1439.6840075747357,1.0007322522638602,0.00023999946060879364
1439.690952104652,1439.690952104652,1.0001370619310959,0.00023992667784624935
1439.697896634289,1439.697896634289,1.000054765690128,0.00023990455863646146
1439.7048411639257,1439.7048411639257,0.9997864820407191,0.0002399153944240437
1439.711785693377,1439.711785693377,0.9998604442747319,0.00023986944602379434
1439.718730222548,1439.718730222548,0.9997709129958243,0.00023993516668757573
1439.7256747519061,1439.7256747519061,1.000193300133494,0.00023991542545388767
1439.7326192807977,1439.7326192807977,0.9998173652350608,0.00023987071380438576
1439.73956380969,1439.73956380969,1.0001443541345552,0.0002399336050102388
1439.746508338209,1439.746508338209,1.0001301098128728,0.00023990658201402697
1439.7534528668216,1439.7534528668216,1.0001396884008305,0.00023994278726214104
