time,time,flux,flux_err
1325.2997808427024,1325.2997808427024,0.9994881270998448,0.00048623359971462386
1325.3081140908444,1325.3081140908444,1.0001279535000012,0.00048653718693790585
1325.3164473392394,1325.3164473392394,1.0002903250596746,0.00048669149168081665
1325.324780587886,1325.324780587886,1.0004340429691296,0.0004869438278195089
1325.3324193993735,1325.3324193993735,1.0001135914676222,0.0004446115609821003
1325.3393637736167,1325.3393637736167,1.0003894836169145,0.0004448966907778765
1325.3463081480345,1325.3463081480345,0.9999156798100375,0.0004450202777074807
1325.3532525226499,1325.3532525226499,0.9992114283462156,0.0004452463023651482
1325.3601968973933,1325.3601968973933,0.99989383585825,0.0004455276896979483
1325.3671412723354,1325.3671412723354,1.0002300607581418,0.000445906465029252
1325.3740856474165,1325.3740856474165,0.9996410953737461,0.00044613628291582366
1325.3810300226723,1325.3810300226723,0.9996542732686539,0.00044642520025225767
1325.387974398091,1325.387974398091,0.9999475997347919,0.0004467120188741835
1325.3949187736723,1325.3949187736723,0.9997756888919553,0.00044699831103585716
1325.4018631494291,1325.4018631494291,0.9999840227255833,0.0004473678742202841
1325.4088075253135,1325.4088075253135,1.000421056408212,0.0004476514884815868
1325.4157519013843,1325.4157519013843,0.9999659334171096,0.00044777049146832015
1325.422696277583,1325.422696277583,1.0005990129038094,0.00044815480876406915
1325.4296406539565,1325.4296406539565,0.9996939410441282,0.0004482484356455185
1325.4365850304696,1325.4365850304696,0.9999307676629302,0.0004485443014235928
1325.4435294071573,1325.4435294071573,0.9989615196534661,0.0004486163233347294
1325.450473783973,1325.450473783973,0.9999837476716917,0.00044894890099343433
1325.45741816094,1325.45741816094,1.000086112348654,0.00044927061898055603
1325.4643625380702,1325.4643625380702,1.0000357648986449,0.00044948920812088323
1325.4713069153283,1325.4713069153283,1.0006196645770362,0.0004497840927802766
1325.4782512927495,1325.4782512927495,0.9999595112719717,0.00045001174552711227
1325.4851956702985,1325.4851956702985,1.000690585710569,0.0004504125571911695
1325.4921400480112,1325.4921400480112,0.9994065814593622,0.00045043560791326043
1325.499084425863,1325.499084425863,0.9997989648918372,0.0004508467600325636
1325.5060288038312,1325.5060288038312,0.9999528541117494,0.0004511868379503734
1325.5129731819507,1325.5129731819507,0.9997895906038151,0.00045151367056036143
1325.5199175602218,1325.5199175602218,1.0001143930112426,0.00045189692754549204
1325.5268619386209,1325.5268619386209,1.0002874766192626,0.00045224656444820585
1325.533806317148,1325.533806317148,1.0006227601420123,0.0004525675355591755
1325.5407506958145,1325.5407506958145,0.9998536107186584,0.0004527630900750449
1325.5476950746097,1325.5476950746097,0.9995218417559594,0.0004529919882530549
1325.5546394535438,1325.5546394535438,0.999484145250111,0.00045322586438714587
1325.5615838326069,1325.5615838326069,1.0002561700038595,0.00045362286053870235
1325.5685282117975,1325.5685282117975,1.0000403904862278,0.00045390244117685655
1325.5754725911277,1325.5754725911277,1.0003462736366482,0.00045423683194952035
1325.5824169705515,1325.5824169705515,0.9992581712382858,0.00045432919471628623
1325.5893613501255,1325.5893613501255,1.000358074423471,0.00045470187257482
1325.5963057298172,1325.5963057298172,1.0005900022560952,0.00045494499250793954
1325.6032501096481,1325.6032501096481,0.9997587164210587,0.0004550778847621088
1325.610194489584,1325.610194489584,0.9998413907374903,0.00045519066817408926
1325.6171388696362,1325.6171388696362,0.9997865567855799,0.0004553131130086061
1325.6240832498047,1325.6240832498047,1.0006663229416932,0.0004555088407333655
1325.6310276301128,1325.6310276301128,0.9998363895067698,0.0004554709324527154
1325.637972010526,1325.637972010526,1.0002625550513622,0.00045564163844121494
1325.6449163910552,1325.6449163910552,0.9995527339562915,0.0004556278088813392
1325.6518607717012,1325.6518607717012,0.9992737430557976,0.0004555899807298829
1325.6588051524518,1325.6588051524518,0.9998615382294084,0.0004556828705050249
1325.6657495333423,1325.6657495333423,1.0002757208985875,0.0004559144993822735
1325.6726939143136,1325.6726939143136,1.0007065767030157,0.0004560816920273143
1325.679638295414,1325.679638295414,1.0001405836349864,0.0004559554031769903
1325.6865826766068,1325.6865826766068,1.0004706884198256,0.0004562187141518268
1325.6935270579158,1325.6935270579158,0.9997500166471778,0.00045620069188546264
1325.700471439354,1325.700471439354,0.9997448930310437,0.0004562375672271499
1325.7074158208727,1325.7074158208727,0.9995579086951016,0.0004563065198805471
1325.714360202473,1325.714360202473,0.999662887942776,0.00045649829838777624
1325.7213045842363,1325.7213045842363,0.9995926422428972,0.0004566174260117753
1325.7282489660697,1325.7282489660697,0.9998266915770863,0.000456861641183967
1325.7351933479845,1325.7351933479845,1.0005965910573167,0.000457169489471597
1325.742137730039,1325.742137730039,1.0007837161884252,0.00045739552070129684
1325.7490821121748,1325.7490821121748,1.0001644710493671,0.00045744986500998217
1325.7560264944275,1325.7560264944275,0.9999911417942011,0.0004576412898635086
1325.7629708767379,1325.7629708767379,0.9999150988503585,0.0004578626574527848
1325.7699152591765,1325.7699152591765,0.9989279201313055,0.0004579140795155833
1325.7768596416968,1325.7768596416968,1.0004947288770987,0.00045834130643304617
1325.7838040243219,1325.7838040243219,1.0004808587910619,0.00045863616494536304
1325.7907484070397,1325.7907484070397,1.0000256348617849,0.00045887680045640617
1325.797692789874,1325.797692789874,0.999948281752903,0.0004590249736884925
1325.8046371727437,1325.8046371727437,1.000050322490952,0.0004592658269870851
1325.8115815557408,1325.8115815557408,1.0000887349530583,0.0004593790029189087
1325.8185259388201,1325.8185259388201,0.9991304817683341,0.00045940288449256044
1325.825470321992,1325.825470321992,1.0002179146118135,0.0004597160879872443
1325.8324147052572,1325.8324147052572,1.0001538172155096,0.00045971517013553963
1325.8393590885923,1325.8393590885923,0.9994001417622878,0.00045981466036667146
1325.846303472032,1325.846303472032,1.0003087712502505,0.0004599180189998562
1325.8532478555414,1325.8532478555414,0.9999040805929837,0.000459874597373139
1325.8601922391679,1325.8601922391679,1.0001379830099801,0.00045989571327140314
1325.8671366228289,1325.8671366228289,1.0003386916700354,0.0004597688320720293
1325.874081006618,1325.874081006618,1.0001290562490126,0.0004595396310586187
1325.8810253904653,1325.8810253904653,0.9998407528322704,0.00045933532153571006
1325.887969774394,1325.887969774394,1.0004398473616285,0.00045927887139917393
1325.8949141584042,1325.8949141584042,0.999921163475004,0.0004591339806685941
1325.9018585425076,1325.9018585425076,0.9998702037139081,0.00045896393483686244
1325.908802926681,1325.908802926681,0.9997606467104859,0.000458867014767804
1325.9157473109472,1325.9157473109472,0.9997285764842264,0.00045878380524400064
1325.9226916952598,1325.9226916952598,1.0002709305682629,0.00045890925257560786
1325.9296360796548,1325.9296360796548,1.0002716281523962,0.00045882867704005444
1325.9365804641536,1325.9365804641536,0.9992655118631146,0.0004586909754777744
1325.9435248486761,1325.9435248486761,1.0004252168890102,0.0004587926833123041
1325.950469233327,1325.950469233327,1.0004762574171624,0.0004587425463956479
1325.957413618024,1325.957413618024,0.9994520928990756,0.0004585853559063338
1325.965469104384,1325.965469104384,0.9999153147745492,0.0004586534339105186
1325.9726912646045,1325.9726912646045,1.0008595533918483,0.00045891737712047383
1325.9796356495576,1325.9796356495576,0.9996360265416012,0.00045876137916509463
1325.9865800345574,1325.9865800345574,1.0000621187779044,0.0004588114098301806
1325.9935244196267,1325.9935244196267,0.999157152977066,0.00045881319430563774
1326.0004688047782,1326.0004688047782,1.0001803795207649,0.000459106003604948
1326.0074131899758,1326.0074131899758,1.0001344114383761,0.0004592228677293724
1326.014357575255,1326.014357575255,1.0004829475831278,0.0004594989158309619
1326.0213019605926,1326.0213019605926,0.9996846732580129,0.00045958904012191533
1326.028246346,1326.028246346,1.0005902688705641,0.00045990936158945336
1326.0351907314653,1326.0351907314653,1.0006102978791158,0.00045996833069362407
1326.0421351170119,1326.0421351170119,0.9997555863861572,0.000459805682227142
1326.0490795026174,1326.0490795026174,0.9993347932976275,0.00045968335158365635
1326.0560238882686,1326.0560238882686,1.0000270664857076,0.0004599539708211362
1326.0629682739905,1326.0629682739905,0.99953194805158,0.00045991687465718597
1326.0699126597933,1326.0699126597933,1.000615291741824,0.0004600999440688828
1326.0768570456428,1326.0768570456428,1.0000220351412445,0.00046005345593475976
1326.083801431551,1326.083801431551,1.0005828699502095,0.00046016116749707096
1326.0907458175172,1326.0907458175172,1.00001092555401,0.00046005617963242745
1326.0976902035645,1326.0976902035645,1.0000795813606314,0.0004601842860946681
1326.1046345896357,1326.1046345896357,0.9999820036985352,0.00046019212457962196
1326.1115789757757,1326.1115789757757,0.9993667153218542,0.00046008939617577497
1326.118523361975,1326.118523361975,0.9999072910037503,0.00046018530215361777
1326.1254677482434,1326.1254677482434,0.9992929051388636,0.0004600603742588996
1326.1324121345592,1326.1324121345592,0.999874899259334,0.0004602449983453812
1326.1393565209323,1326.1393565209323,0.9998347472512437,0.0004602463281657974
1326.1463009073527,1326.1463009073527,1.0009882205045066,0.0004604537194901605
1326.1532452938422,1326.1532452938422,0.9994519783424668,0.00046020938248776
1326.1601896803788,1326.1601896803788,1.0004873696584047,0.00046029357181245363
1326.1671340669502,1326.1671340669502,0.9998199354343689,0.00046018165544825534
1326.1740784536028,1326.1740784536028,0.9997005143270028,0.00046017577511862597
1326.1810228403026,1326.1810228403026,0.9998441391551726,0.0004602218667005847
1326.1879672270602,1326.1879672270602,1.0001529794066972,0.0004602163344366978
1326.1949116138412,1326.1949116138412,0.9995010575632698,0.00046007944943064646
1326.201856000692,1326.201856000692,0.9996009449566359,0.00046013326032802405
1326.208800387601,1326.208800387601,0.9996506175464809,0.00046008436201609037
1326.2157447745333,1326.2157447745333,1.000196579576697,0.0004600623510577459
1326.2226891615353,1326.2226891615353,0.9999010216338344,0.0004600680056400145
1326.229633548584,1326.229633548584,1.0007700937177613,0.0004602094735667278
1326.2365779356676,1326.2365779356676,0.9995497266112663,0.00046006500031630336
1326.2435223228208,1326.2435223228208,1.000004706686273,0.00046009799092733815
1326.250466709998,1326.250466709998,1.0005827480823446,0.00046016631172766075
1326.2574110972444,1326.2574110972444,1.000165984555136,0.0004600868172753644
1326.2643554845145,1326.2643554845145,0.9998273238024729,0.00045999469254240843
1326.2712998718544,1326.2712998718544,0.9999490864746319,0.00046006544805696486
1326.278244259217,1326.278244259217,0.9994312507982268,0.00045988781869624575
1326.2851886466383,1326.2851886466383,0.9997086754970894,0.0004599948054012891
1326.2921330340828,1326.2921330340828,1.0002159856328317,0.000460129190117468
1326.299077421586,1326.299077421586,0.9996918723733774,0.0004600035323508179
1326.306021809158,1326.306021809158,1.0007180124884265,0.0004602239698006987
1326.3129661967428,1326.3129661967428,1.0005008460657527,0.000460205276648804
1326.319910584373,1326.319910584373,0.9996816780541085,0.0004600891073712196
1326.3268549720387,1326.3268549720387,0.9998206475306406,0.0004601633108499783
1326.333799359763,1326.333799359763,0.9996984374346812,0.00046018805372215345
1326.3407437475332,1326.3407437475332,0.999969168746634,0.0004603110022816578
1326.3487992373744,1326.3487992373744,0.999510856261263,0.00046035047357075476
1326.357410278308,1326.357410278308,1.0001022812167841,0.0004605113438512998
1326.3643546661951,1326.3643546661951,1.0003770143965578,0.0004605478453046129
1326.3712990541285,1326.3712990541285,1.0000008600391501,0.00046053476709072315
1326.3782434420968,1326.3782434420968,0.9997675229055171,0.00046061461476886584
1326.3851878301002,1326.3851878301002,1.00002772068192,0.00046064022997115974
1326.3921322181382,1326.3921322181382,1.0002052545283688,0.0004608106778954695
1326.3990766062234,1326.3990766062234,0.9993454717940959,0.00046073696427050145
1326.4060209943543,1326.4060209943543,1.0000640303279673,0.0004609055454614133
1326.4129653825096,1326.4129653825096,1.0005682903289674,0.00046114073768586543
1326.4199097706987,1326.4199097706987,0.9995764537275227,0.00046101282184766643
1326.4268541589352,1326.4268541589352,0.999622211443635,0.0004611069753014333
1326.4337985471943,1326.4337985471943,1.000028604037285,0.0004611889026446767
1326.4407429355003,1326.4407429355003,0.9998620252514192,0.0004613680368358573
1326.4476873238298,1326.4476873238298,1.0000834520712945,0.00046140213302680433
1326.4546317121822,1326.4546317121822,1.0008687891421741,0.0004615801885285805
1326.4615761006164,1326.4615761006164,0.9999817143870284,0.0004614788924515435
1326.4685204890388,1326.4685204890388,0.9996714861795388,0.00046147860362842397
1326.4754648775074,1326.4754648775074,0.9993700036266102,0.0004615510289636151
1326.4824092660233,1326.4824092660233,1.0001338302102205,0.0004616812238799556
1326.48935365455,1326.48935365455,1.000465495484939,0.0004618540418723482
1326.4962980431123,1326.4962980431123,0.9999395682742482,0.0004618344548303733
1326.503242431721,1326.503242431721,1.000106334005197,0.0004618696975977951
1326.5101868203533,1326.5101868203533,0.9996157181228179,0.00046193984303456
1326.51713120902,1326.51713120902,1.0002962843932164,0.0004621267874786869
1326.5240755976984,1326.5240755976984,0.9995144722072651,0.00046215032325239494
1326.5310199864352,1326.5310199864352,1.0008794557646787,0.0004624101023612999
1326.5379643751717,1326.5379643751717,0.9994886054019971,0.00046233519753470915
1326.5449087639672,1326.5449087639672,1.0002213697736086,0.00046266555432980386
1326.5518531527734,1326.5518531527734,0.9997477568705818,0.00046276433269899027
1326.5587975416267,1326.5587975416267,0.9996458120087806,0.00046274190898030695
1326.5657419304912,1326.5657419304912,1.0000727191877625,0.0004627882210791191
1326.5726863193909,1326.5726863193909,1.0003754257348694,0.0004628329502696782
1326.5796307083024,1326.5796307083024,1.0003245708643242,0.0004628888614129385
1326.5865750972603,1326.5865750972603,0.999551676612256,0.0004628403998122298
1326.5935194862534,1326.5935194862534,1.000201281577206,0.00046302052066566365
1326.600463875258,1326.600463875258,1.0001561440104505,0.00046311264887232936
1326.607408264297,1326.607408264297,0.9995300350825682,0.0004630292788704177
1326.6143526533601,1326.6143526533601,1.0001974968924103,0.00046318246031183327
1326.6212970424453,1326.6212970424453,1.000228012252693,0.00046327994865521025
1326.628241431567,1326.628241431567,1.000202070078379,0.000463277504700783
1326.6351858206992,1326.6351858206992,0.9998527818321079,0.0004632410862520064
1326.6421302098784,1326.6421302098784,1.0000244143609045,0.000463221013565641
1326.649074599069,1326.649074599069,0.9997943348027183,0.00046323710390611757
1326.6560189882946,1326.6560189882946,0.999688381416394,0.0004630936514016256
1326.662963377544,1326.662963377544,0.9993459519936818,0.00046296680676608155
1326.6699077667924,1326.6699077667924,1.0001374350440022,0.0004629502856988121
1326.6768521560766,1326.6768521560766,1.0007625631236632,0.00046293003773251195
1326.6837965453954,1326.6837965453954,1.000182516262374,0.0004627115498859392
1326.6921298125988,1326.6921298125988,0.9998420606619607,0.00046256896217404064
1326.6990742019757,1326.6990742019757,1.0006630118955286,0.0004625458119065787
1326.7060185913526,1326.7060185913526,0.9997081939106203,0.00046233860612192974
1326.713796307498,1326.713796307498,0.9999653848733903,0.00046232276135961526
1326.7212962480849,1326.7212962480849,0.9993281901019941,0.0004619380260695312
1326.7282406375434,1326.7282406375434,1.0002899775887748,0.00046210137859482105
1326.735185027025,1326.735185027025,0.9998330272552508,0.0004620330236629404
1326.7421294165301,1326.7421294165301,0.9997048248045344,0.00046186346503793
1326.749073806035,1326.749073806035,0.9995922061212145,0.0004618984237766496
1326.756018195575,1326.756018195575,1.00107200229717,0.00046195372302587374
1326.7629625851732,1326.7629625851732,1.000529499149623,0.00046178012448874425
1326.7699069747482,1326.7699069747482,0.9996581750383802,0.00046168835671939667
1326.7768513643464,1326.7768513643464,1.000333383372171,0.00046175152413904764
1326.7837957539912,1326.7837957539912,0.999316916584649,0.00046158555964872307
1326.7907401436246,1326.7907401436246,0.9995099526789499,0.0004615550569978707
1326.7976845332923,1326.7976845332923,0.9999404878534488,0.00046159439083161264
1326.8046289229842,1326.8046289229842,0.9998242768797236,0.0004616981984123392
1326.8115733126865,1326.8115733126865,1.0008963125856383,0.0004618290659560911
1326.818517702401,1326.818517702401,1.0002966529489288,0.00046163337304452217
1326.825462092151,1326.825462092151,0.9990260252111607,0.00046149077422420347
1326.8324064819121,1326.8324064819121,1.0002978105247518,0.00046169142757585555
1326.839350871685,1326.839350871685,1.0002771492917422,0.00046171861360611184
1326.846295261481,1326.846295261481,1.0005350252236247,0.00046170658008708203
1326.8532396512887,1326.8532396512887,1.000296089511161,0.00046161372720688167
1326.8601840411197,1326.8601840411197,0.999374726296459,0.00046137850686317066
1326.8671284309744,1326.8671284309744,0.9993742014999152,0.00046137193169054077
1326.8740728208402,1326.8740728208402,1.0004737978434437,0.00046133691931394524
1326.8810172107294,1326.8810172107294,0.9998064261193209,0.000461050953049072
1326.8879616006304,1326.8879616006304,0.9998402857305791,0.0004609569845034658
1326.8949059905424,1326.8949059905424,0.999734373839793,0.00046073594692217363
1326.9018503804787,1326.9018503804787,1.000199470506759,0.00046062884179187767
1326.908794770426,1326.908794770426,1.0002440462803144,0.0004604411739709163
1326.9157391603967,1326.9157391603967,1.0003643562115634,0.00046009769673539266
1326.9226835503675,1326.9226835503675,0.999899605658036,0.00045983486743818807
1326.9296279403616,1326.9296279403616,1.0002249020409952,0.00045961368100458166
1326.9365723303672,1326.9365723303672,0.9996160225476057,0.0004593172883988774
1326.9435167203958,1326.9435167203958,0.9999166728338041,0.0004591286461422767
1326.9504611104485,1326.9504611104485,1.00022052275683,0.0004590594638033161
1326.9574055005003,1326.9574055005003,1.0000368745540222,0.00045868626638104724
1326.9643498905648,1326.9643498905648,0.9993840902591445,0.0004583753081764134
1326.97129428064,1326.97129428064,1.0000157300580113,0.0004583247645499784
1326.9782386707502,1326.9782386707502,1.0001238874576275,0.0004582903521410858
1326.9851830608727,1326.9851830608727,1.000530227516529,0.0004581080690017809
1326.9921274509948,1326.9921274509948,1.0001019286825097,0.00045799813932406134
1326.9990718411166,1326.9990718411166,0.9994424953833103,0.00045772095217879187
1327.0060162312852,1327.0060162312852,0.9996859421223394,0.00045780570476475663
1327.0129606214423,1327.0129606214423,1.000570095305636,0.00045777993571494293
1327.0199050116225,1327.0199050116225,0.9996303595193003,0.00045759525430380765
1327.0268494018144,1327.0268494018144,1.0004825371143151,0.0004576635655575855
1327.033793792018,1327.033793792018,0.9992352291854733,0.0004574800316203675
1327.040738182233,1327.040738182233,1.0004547125437508,0.0004576506231463758
1327.0476825724602,1327.0476825724602,0.9998958184556563,0.0004576331432505088
1327.0546269626986,1327.0546269626986,0.9998143392105142,0.00045765931608098996
1327.0626824554033,1327.0626824554033,1.0005146206496907,0.00045784164229086975
