time,time,flux,flux_err
1325.29924285785,1325.29924285785,1.0000862719360377,0.00023714335389627317
1325.3075761315934,1325.3075761315934,0.9998778620911951,0.00023716347524710586
1325.3159094056173,1325.3159094056173,1.0000442830783711,0.0002371822773438547
1325.323548240379,1325.323548240379,0.9998687340993244,0.00021653198885496406
1325.3304926358214,1325.3304926358214,1.0000194153909068,0.00021653896843535093
1325.3374370314527,1325.3374370314527,1.0000696416642725,0.0002165787165294272
1325.3443814272732,1325.3443814272732,1.0001112595948412,0.00021661940816623628
1325.351325823279,1325.351325823279,0.9998316507831897,0.00021660162452164351
1325.3582702194692,1325.3582702194692,1.0001885617578414,0.00021668656007407062
1325.3652146158431,1325.3652146158431,1.0000428215852084,0.00021672967034913458
1325.3721590123973,1325.3721590123973,1.000205308118232,0.0002167803590311475
1325.3791034091319,1325.3791034091319,0.9994253604173415,0.00021675188816631927
1325.3860478060456,1325.3860478060456,1.0000527298118698,0.00021685274675695954
1325.3929922031343,1325.3929922031343,1.000230812827671,0.00021692644725928006
1325.3999366003993,1325.3999366003993,0.9998892717422396,0.0002169356807868727
1325.4068809978369,1325.4068809978369,1.0003066886163334,0.00021699831636663125
1325.413825395446,1325.413825395446,0.9996046830088969,0.00021695900804003643
1325.4207697932266,1325.4207697932266,1.0001242439731537,0.00021706153457484771
1325.4277141911746,1325.4277141911746,1.000080585685557,0.0002171127023377269
1325.4346585892902,1325.4346585892902,0.9999724023174673,0.00021713078127445968
1325.4416029875706,1325.4416029875706,0.99970957661446,0.00021713793394215279
1325.448547386015,1325.448547386015,1.0000497217816315,0.00021721152633346054
1325.4554917846222,1325.4554917846222,0.9998823075207245,0.00021723381906758565
1325.4624361833892,1325.4624361833892,1.000430725536044,0.00021731810494877418
1325.4693805823163,1325.4693805823163,1.000010345689742,0.0002173224476097464
1325.476324981401,1325.476324981401,0.999973566595477,0.00021737278425163056
1325.4832693806416,1325.4832693806416,0.9997889834476077,0.00021740264566718574
1325.4902137800368,1325.4902137800368,1.0004276670845358,0.00021751495758965157
1325.497158179585,1325.497158179585,0.9998608246441016,0.00021751672332857497
1325.504102579284,1325.504102579284,0.9999424643407174,0.00021757601005092017
1325.5110469791346,1325.5110469791346,0.9999775434211491,0.00021760884369546966
1325.5179913791333,1325.5179913791333,0.9997976876841811,0.0002176637020839835
1325.5249357792782,1325.5249357792782,0.9999468498848862,0.00021773537807402759
1325.5318801795693,1325.5318801795693,1.000058613253906,0.00021779431818544858
1325.5388245800045,1325.5388245800045,0.999852097360644,0.0002178327982775616
1325.545768980583,1325.545768980583,1.000206962109231,0.00021790717756316392
1325.552713381302,1325.552713381302,1.0001993660971529,0.0002179607398600459
1325.5596577821623,1325.5596577821623,1.0000264399969607,0.000217996980484227
1325.5666021831594,1325.5666021831594,1.000005948070649,0.0002180385206975612
1325.573546584294,1325.573546584294,0.9998083383811902,0.00021807902803420764
1325.580490985564,1325.580490985564,1.0000629435668804,0.0002181271647266593
1325.5874353869683,1325.5874353869683,0.999975646245937,0.00021817137843051283
1325.5943797885056,1325.5943797885056,0.9995037393126174,0.00021813791981404538
1325.6013241901742,1325.6013241901742,1.0000980168926805,0.00021823060434777243
1325.6082685919732,1325.6082685919732,1.0001091145276684,0.0002182540699474141
1325.615212993901,1325.615212993901,1.000177317626129,0.00021828640508456896
1325.6221573959556,1325.6221573959556,1.0001234006611937,0.0002183068780159993
1325.629101798137,1325.629101798137,1.0002791502535169,0.0002183465778905946
1325.6360462004438,1325.6360462004438,0.9999011848525946,0.0002183158725063624
1325.6429906028727,1325.6429906028727,1.0003760482738118,0.0002183762357754379
1325.649935005425,1325.649935005425,1.000054545088878,0.00021835808256281424
1325.6568794080977,1325.6568794080977,0.9998953838856688,0.0002183498498384799
1325.6638238108933,1325.6638238108933,0.9996975182606012,0.0002183374541401848
1325.6707682138044,1325.6707682138044,0.9997568955260585,0.0002183214696649094
1325.677712616833,1325.677712616833,0.9999797444476384,0.00021835858703342674
1325.6846570199768,1325.6846570199768,1.0000862478643935,0.00021839653547705965
1325.691601423236,1325.691601423236,0.9999808914199134,0.00021838577962424475
1325.6985458266088,1325.6985458266088,1.000212242414732,0.0002184273978433382
1325.7054902300938,1325.7054902300938,1.0002270080124198,0.00021844894012711656
1325.7124346336896,1325.7124346336896,0.9995388689179034,0.000218400921545739
1325.7193790373956,1325.7193790373956,1.0003681059442708,0.00021846766027377724
1325.7263234412112,1325.7263234412112,1.0000514990578544,0.0002184958687424066
1325.7332678451335,1325.7332678451335,1.0002409186432526,0.00021853917831521894
1325.740212249163,1325.740212249163,1.0000863766917452,0.00021855135993083634
1325.7471566532975,1325.7471566532975,0.9999314420094481,0.00021857721301097587
1325.7541010575367,1325.7541010575367,0.999891878121914,0.00021860396193303246
1325.7610454618791,1325.7610454618791,0.9997749151566921,0.0002186222971459666
1325.7679898663232,1325.7679898663232,0.999925399847848,0.00021866199597291358
1325.7749342708685,1325.7749342708685,0.999874966932665,0.00021867641060654253
1325.7818786755138,1325.7818786755138,0.9999070286119075,0.0002187261642218078
1325.7888230802585,1325.7888230802585,0.999835098705667,0.00021875141016591276
1325.795767485101,1325.795767485101,1.0000741489584275,0.00021881204676873508
1325.8027118900395,1325.8027118900395,1.0004734946587432,0.00021885637665145213
1325.8096562950752,1325.8096562950752,1.000103647823204,0.0002188400856446418
1325.8166007002037,1325.8166007002037,0.9999880791137776,0.0002188529186845727
1325.8235451054275,1325.8235451054275,1.0001102705188747,0.00021887974144416244
1325.8304895107437,1325.8304895107437,0.999952000368385,0.0002188686060470178
1325.837433916152,1325.837433916152,0.9999662251605279,0.00021888364713883363
1325.8443783216505,1325.8443783216505,0.9997770566067914,0.0002188432778895378
1325.8513227272388,1325.8513227272388,0.9996684939392597,0.0002188403304457218
1325.8582671329164,1325.8582671329164,0.9998183782106708,0.00021884185035875818
1325.8652115386817,1325.8652115386817,1.0000999675622642,0.00021884433316050807
1325.8721559445346,1325.8721559445346,1.0003239790214358,0.00021885093452481854
1325.8791003504728,1325.8791003504728,1.0000089693955423,0.00021878417175397448
1325.8860447564969,1325.8860447564969,1.0001966132607836,0.00021878950310410373
1325.8929891626046,1325.8929891626046,1.0000881065779907,0.0002187582680163274
1325.8999335687963,1325.8999335687963,0.9998336801473423,0.0002187133555532897
1325.90687797507,1325.90687797507,0.9999496705036778,0.00021869890627444367
1325.9138223814257,1325.9138223814257,0.9999741783440207,0.00021867828433139833
1325.9207667878609,1325.9207667878609,1.0001416524690832,0.0002186949171387715
1325.9277111943775,1325.9277111943775,1.0001602773433114,0.00021869982017415492
1325.9346556009723,1325.9346556009723,1.0001545795738644,0.00021868551986524556
1325.941600007645,1325.941600007645,1.0001656941789627,0.00021868444834375573
1325.9485444143959,1325.9485444143959,0.9999889837942689,0.00021864956364084408
1325.9554888212233,1325.9554888212233,0.9996665947890753,0.00021860490484997447
1325.963266556962,1325.963266556962,0.9998588411655561,0.00021863753708054745
1325.9707665165083,1325.9707665165083,0.9998727642935659,0.00021862061114722047
1325.977710923575,1325.977710923575,0.9998595489044458,0.00021862059111165945
1325.9846553307143,1325.9846553307143,1.0001698815666111,0.00021867407278491915
1325.9915997379264,1325.9915997379264,0.9999528150498908,0.00021865431203691682
1325.9985441452106,1325.9985441452106,1.0004962414633383,0.0002187068697385349
1326.005488552565,1326.005488552565,0.9998659481272437,0.00021867046335991158
1326.0124329599898,1326.0124329599898,0.9999156975422251,0.00021869212079103712
1326.019377367484,1326.019377367484,1.0004547107585435,0.00021877733075622614
1326.0263217750469,1326.0263217750469,0.9999771109613903,0.00021874804558614323
1326.0332661826776,1326.0332661826776,0.9998518965688543,0.0002187719313984131
1326.0402105903752,1326.0402105903752,0.9997064428164064,0.00021877916285122827
1326.0471549981394,1326.0471549981394,0.9998515661735423,0.00021874519296516396
1326.0540994059693,1326.0540994059693,1.0000625225543387,0.0002188064846083367
1326.0610438138647,1326.0610438138647,0.9998908132941893,0.00021877620183672616
1326.0679882218242,1326.0679882218242,1.0002739676021326,0.0002188478354432007
1326.0749326298471,1326.0749326298471,1.0001270053973852,0.0002188300653968097
1326.081877037934,1326.081877037934,0.9999306474840821,0.00021880442305281618
1326.0888214460822,1326.0888214460822,1.000021246927291,0.0002188257768184315
1326.0957658542925,1326.0957658542925,0.9998923419615716,0.00021882551111253144
1326.1027102625637,1326.1027102625637,1.0002108541497794,0.00021886357092207228
1326.1096546708955,1326.1096546708955,1.0000691407531224,0.00021886008897780562
1326.116599079287,1326.116599079287,0.9998349997024805,0.00021884579123982004
1326.1235434877374,1326.1235434877374,1.0000232085883436,0.00021886780753136359
1326.1304878962467,1326.1304878962467,0.9996448041049713,0.00021882857455180626
1326.1374323048137,1326.1374323048137,1.0001697968389085,0.00021888175007408065
1326.1443767134376,1326.1443767134376,1.0000793871350735,0.00021886623200884976
1326.1513211221188,1326.1513211221188,0.9999076906195427,0.0002188459893108326
1326.1582655308557,1326.1582655308557,0.9997603935676078,0.00021884026379537957
1326.1652099396483,1326.1652099396483,1.0001908163228321,0.00021887950240506672
1326.172154348495,1326.172154348495,1.0001621958354374,0.0002188777610817109
1326.1790987573972,1326.1790987573972,0.9997969846473254,0.00021881607049392964
1326.1860431663522,1326.1860431663522,1.000342360134335,0.00021887544360259798
1326.1929875753608,1326.1929875753608,0.9998513136893031,0.00021883251749066726
1326.199931984422,1326.199931984422,1.0001123503074758,0.0002188274129705548
1326.206876393535,1326.206876393535,0.9999196775053827,0.00021881466292202547
1326.2138208027002,1326.2138208027002,0.9998988970556038,0.00021878959407128427
1326.2207652119155,1326.2207652119155,0.9999751200893444,0.00021882409139286634
1326.2277096211817,1326.2277096211817,1.0000142697126226,0.00021881032212925917
1326.2346540304977,1326.2346540304977,0.9999223104402395,0.0002187993691685986
1326.2415984398624,1326.2415984398624,1.000143587557956,0.00021882428067328605
1326.2485428492776,1326.2485428492776,0.9999723590387154,0.00021881605328256362
1326.2554872587393,1326.2554872587393,1.0002463458196553,0.0002188357916014277
1326.26243166825,1326.26243166825,0.9999015823554517,0.0002187964897634483
1326.2693760778072,1326.2693760778072,0.9999772212127667,0.00021878543102117764
1326.276320487412,1326.276320487412,0.9997330744044758,0.00021877319278485109
1326.283264897063,1326.283264897063,0.9997641388008539,0.00021877700077545958
1326.2902093067592,1326.2902093067592,1.000519457926923,0.00021886657819455987
1326.2971537165013,1326.2971537165013,0.9995892040901154,0.00021876405897488718
1326.304098126288,1326.304098126288,1.000286025484933,0.00021881927322952842
1326.311042536119,1326.311042536119,0.9998193886411594,0.0002187901579915646
1326.3179869459948,1326.3179869459948,1.0003150891668384,0.0002188307598418412
1326.3249313559133,1326.3249313559133,1.0000776113746137,0.00021884845534461366
1326.3318757658753,1326.3318757658753,1.0000497144334197,0.00021884397005167018
1326.3388201758792,1326.3388201758792,0.9999261440797003,0.00021883124027311085
1326.3463201387326,1326.3463201387326,0.999904624885521,0.00021883875442255514
1326.35548676006,1326.35548676006,0.9994875767362634,0.0002188374579229286
1326.3624311702063,1326.3624311702063,1.000349656630633,0.00021893946424285715
1326.3693755803924,1326.3693755803924,0.9998424361423881,0.0002188850036296409
1326.3763199906184,1326.3763199906184,1.0003090906115168,0.0002189375766882251
1326.3832644008849,1326.3832644008849,0.999787808111595,0.0002188784956787317
1326.3902088111906,1326.3902088111906,1.0000209711281407,0.00021893155887705074
1326.3971532215353,1326.3971532215353,1.0004979556993463,0.00021898495489698806
1326.4040976319181,1326.4040976319181,0.9997366683079397,0.00021893858007550034
1326.4110420423397,1326.4110420423397,1.000089764389663,0.00021897446095894157
1326.4179864527987,1326.4179864527987,0.9996951789896169,0.00021893675717033883
1326.4249308632948,1326.4249308632948,1.0001038568724185,0.00021899017122400821
1326.4318752738277,1326.4318752738277,1.0000281642570927,0.00021899482572912675
1326.4388196843975,1326.4388196843975,0.9998823867918647,0.00021898967594883721
1326.4457640950038,1326.4457640950038,0.9999198139799805,0.00021901301069038797
1326.4527085056448,1326.4527085056448,0.9998981749945626,0.00021901928572350956
1326.459652916322,1326.459652916322,1.0001304524737396,0.0002190540329275151
1326.466597327034,1326.466597327034,1.0002677108971318,0.0002190792822596751
1326.473541737781,1326.473541737781,1.0001328898402266,0.00021906986547710693
1326.480486148562,1326.480486148562,0.9998187628070113,0.00021904791296217606
1326.4874305593767,1326.4874305593767,0.999926402181876,0.00021907924091325441
1326.4943749702254,1326.4943749702254,1.0000857175408981,0.0002191030593320956
1326.501319381107,1326.501319381107,1.0000825466375998,0.00021910547051330463
1326.5082637920211,1326.5082637920211,1.0000713633233003,0.0002191178585469621
1326.5152082029683,1326.5152082029683,0.9998969225847929,0.00021913108611080817
1326.5221526139478,1326.5221526139478,0.999661646461336,0.0002191295989128283
1326.529097024959,1326.529097024959,0.9998390714747114,0.00021916783840009293
1326.5360414360011,1326.5360414360011,1.0001113077995258,0.00021922256199114861
1326.542985847075,1326.542985847075,0.9999062175412641,0.00021920767379186835
1326.5499302581793,1326.5499302581793,1.0002431377165424,0.00021923884808940962
1326.5568746693143,1326.5568746693143,0.9996139149273597,0.0002191877945070368
1326.5638190804796,1326.5638190804796,1.0003732659170743,0.0002192797389103144
1326.5707634916748,1326.5707634916748,1.0004133635672212,0.0002192623902361801
1326.5777079028996,1326.5777079028996,0.9997208081968398,0.00021923879103397933
1326.5846523141527,1326.5846523141527,0.9999571032237797,0.0002192618056326024
1326.5915967254355,1326.5915967254355,1.0002490847196615,0.00021927558126152074
1326.5985411367465,1326.5985411367465,1.0000142088810813,0.0002192905483436449
1326.6054855480863,1326.6054855480863,0.9999648243578918,0.0002192774504964864
1326.6124299594544,1326.6124299594544,0.9997156900077707,0.0002192888593284458
1326.6193743708488,1326.6193743708488,0.9999335442481654,0.00021932987310191817
1326.6263187822717,1326.6263187822717,0.9998641289068111,0.00021930090814442204
1326.633263193721,1326.633263193721,1.0002180121388922,0.00021936885907440417
1326.640207605198,1326.640207605198,1.0001827454617696,0.00021935811128673662
1326.6471520167006,1326.6471520167006,0.9999155977376685,0.00021932305980249767
1326.65409642823,1326.65409642823,1.0001433179271462,0.0002193491884409053
1326.6610408397855,1326.6610408397855,0.999884531156866,0.00021930032993554418
1326.6679852513657,1326.6679852513657,0.9996885495161806,0.00021926174466290848
1326.6749296629728,1326.6749296629728,0.9998152826323228,0.00021924876847381395
1326.6818740746037,1326.6818740746037,1.000095694809651,0.00021924413495097054
1326.6899295921276,1326.6899295921276,1.0001575889608543,0.00021923756686125949
1326.6971517802795,1326.6971517802795,1.0001124519857254,0.00021921559316459858
1326.7040961919895,1326.7040961919895,1.0002553463719206,0.0002192158794451708
1326.7115961566637,1326.7115961566637,0.9997158899277231,0.0002191546247072874
1326.7193738978353,1326.7193738978353,0.9999667384734581,0.00021915811272533374
1326.7263183096213,1326.7263183096213,1.0002413504718242,0.00021917014709981245
1326.7332627214303,1326.7332627214303,1.0002103205289488,0.00021915716677787248
1326.7402071332622,1326.7402071332622,0.999916779844997,0.00021910311019423964
1326.7471515451161,1326.7471515451161,0.9998758560631067,0.00021911442448402322
1326.754095956993,1326.754095956993,0.9999788861294702,0.00021911327727488169
1326.7610403688927,1326.7610403688927,0.9998377850471126,0.00021908976360907008
1326.7679847808135,1326.7679847808135,0.9997599648431066,0.00021906667365813385
1326.7749291927562,1326.7749291927562,1.0000154276886042,0.0002191007741410753
1326.7818736047207,1326.7818736047207,1.00003106703143,0.0002191187101107459
1326.788818016706,1326.788818016706,1.0005800405931544,0.0002191741132075554
1326.7957624287124,1326.7957624287124,1.0001543645177917,0.00021912040436029246
1326.8027068407396,1326.8027068407396,0.9999752104168801,0.0002190994209939167
1326.8096512527868,1326.8096512527868,0.9998335955332193,0.00021911757103495018
1326.8165956648547,1326.8165956648547,0.9998928758119847,0.00021911792069052608
1326.8235400769431,1326.8235400769431,1.0000873822512346,0.00021911863224827188
1326.8304844890504,1326.8304844890504,1.000163644569746,0.00021915506711080488
1326.8374289011783,1326.8374289011783,0.9999850842008309,0.00021911494739967853
1326.844373313325,1326.844373313325,1.0000373465718915,0.00021912901486577423
1326.8513177254908,1326.8513177254908,1.0000727342363969,0.0002191244170037934
1326.8582621376759,1326.8582621376759,0.9999308782071736,0.0002190974889995635
1326.8652065498798,1326.8652065498798,0.9998266316353064,0.0002190675248724005
1326.8721509621016,1326.8721509621016,0.9999340883639857,0.0002190688687980826
1326.8790953743421,1326.8790953743421,0.9997363740861152,0.00021900947891237833
1326.8860397866008,1326.8860397866008,1.0002522787873342,0.00021902851275777628
1326.892984198877,1326.892984198877,1.0001436088838025,0.00021901407819686062
1326.899928611172,1326.899928611172,0.9998541234038141,0.00021892749475309112
1326.9068730234833,1326.9068730234833,1.0002428402078025,0.00021892685925277363
1326.9138174358125,1326.9138174358125,1.0002750001202767,0.00021891153712045886
1326.920761848159,1326.920761848159,0.9997527817145404,0.00021883586965877705
1326.9277062605217,1326.9277062605217,1.0000280899022183,0.00021882720654805153
1326.9346506729016,1326.9346506729016,1.0001197933742838,0.0002188036266516842
1326.9415950852976,1326.9415950852976,1.0000741482944981,0.00021873393752060437
1326.9485394977105,1326.9485394977105,0.9998767807602975,0.00021868764632880663
1326.9554839101397,1326.9554839101397,0.999906556275809,0.00021865675356739115
1326.9624283225844,1326.9624283225844,0.9999844430338808,0.00021864172857517116
1326.9693727350445,1326.9693727350445,0.9999657054550907,0.00021860425654073224
1326.9763171475204,1326.9763171475204,1.0001404054581982,0.0002185902246585836
1326.9832615600126,1326.9832615600126,0.9998357099776705,0.0002185507396405927
1326.9902059725187,1326.9902059725187,1.0002195264446068,0.00021857539377797124
1326.9971503850406,1326.9971503850406,1.0004336402311256,0.00021857479596529983
1327.0040947975772,1327.0040947975772,0.9998846031889606,0.00021850438254417638
1327.0110392101287,1327.0110392101287,1.0001124224610876,0.000218532337700141
1327.0179836226944,1327.0179836226944,1.0001491188401768,0.00021854859232764418
1327.0249280352743,1327.0249280352743,0.9998746004523287,0.00021848571604719783
1327.0318724478689,1327.0318724478689,0.9993317253306934,0.00021847344229441817
1327.0388168604768,1327.0388168604768,0.9997592194262568,0.0002185175961698067
1327.0457612730993,1327.0457612730993,1.0003313973728596,0.0002185777526200462
1327.052705685735,1327.052705685735,1.0000704984801643,0.00021854010702035414
