time,time,flux,flux_err
1437.999189490509,1437.999189490509,0.9997735378010973,0.0004569664630636118
1438.0075230665852,1438.0075230665852,1.0003320796984134,0.00045647997291558125
1438.015162178161,1438.015162178161,1.000155763902272,0.0004161516421537678
1438.0221068249589,1438.0221068249589,1.0002823362826319,0.0004155647636742742
1438.0290514720355,1438.0290514720355,0.9997873547293803,0.0004152199588593913
1438.0359961191123,1438.0359961191123,1.0000673790222065,0.00041446474363703646
1438.0429407662823,1438.0429407662823,0.9999077514336913,0.00041422886755920665
1438.0498854135453,1438.0498854135453,1.0000847977646472,0.00041372361257347074
1438.0568300609943,1438.0568300609943,0.9991630882553844,0.00041340728545255544
1438.0637747082576,1438.0637747082576,0.9996583450968327,0.0004127522783586861
1438.0707193557996,1438.0707193557996,0.9999947885767669,0.00041210784334526454
1438.077664003435,1438.077664003435,1.0003618262031329,0.00041163015762920967
1438.0846086510705,1438.0846086510705,1.0000964859189785,0.00041139917077878267
1438.0915532987062,1438.0915532987062,1.000405613430399,0.00041078820752469744
1438.0984979463421,1438.0984979463421,0.999869823636441,0.000410739938562757
1438.1054425939774,1438.1054425939774,1.0000996990953657,0.0004099674035659926
1438.1123872416129,1438.1123872416129,1.000275249822114,0.0004098589859389411
1438.1193318892483,1438.1193318892483,1.0000677563354248,0.0004096200147853333
1438.1262765373497,1438.1262765373497,0.9994587136359356,0.00040962135918251195
1438.1332211849851,1438.1332211849851,1.0001123242074028,0.0004090105201274251
1438.1401658329933,1438.1401658329933,0.9998951114827654,0.000408729991662169
1438.147110480722,1438.147110480722,1.0000545188945913,0.00040837274367791314
1438.1540551287303,1438.1540551287303,0.9997723536243829,0.00040842554817720233
1438.1609997765518,1438.1609997765518,0.9998285801496565,0.00040801511034947046
1438.1679444245597,1438.1679444245597,0.9997029604785093,0.0004076798381990476
1438.174889072475,1438.174889072475,0.999852428509761,0.00040765068420520477
1438.1818337202965,1438.1818337202965,1.0004033256890739,0.00040735992841029145
1438.1887783683046,1438.1887783683046,1.0003122685225176,0.00040703189709144006
1438.1957230161265,1438.1957230161265,1.0002639906047324,0.0004065521735709274
1438.2026676641344,1438.2026676641344,1.0006476922957712,0.0004063995610757311
1438.2096123120496,1438.2096123120496,0.9997672754430933,0.0004062376153267175
1438.2165569598712,1438.2165569598712,0.9997970763531259,0.0004059837960661551
1438.2235016078791,1438.2235016078791,0.9993917805315273,0.0004056829838328344
1438.230446255608,1438.230446255608,1.0003312427079218,0.000405462340804884
1438.2373909035227,1438.2373909035227,0.9996097678470972,0.00040522252052477384
1438.2443355513449,1438.2443355513449,0.9999452753686668,0.00040516114715460775
1438.2512801989803,1438.2512801989803,1.0003409999898738,0.0004053888357554605
1438.258224846895,1438.258224846895,1.00019105322689,0.0004077127303700155
1438.2651694947167,1438.2651694947167,0.9999445383195044,0.00040440130705335294
1438.2721141423524,1438.2721141423524,1.0010531350489722,0.00040438404506513704
1438.2790587899879,1438.2790587899879,1.000086568865995,0.0004041693616288097
1438.2860034376235,1438.2860034376235,0.9997505416711595,0.0004039708633198076
1438.2929480852592,1438.2929480852592,0.999567494090606,0.00040389428065636053
1438.2998927327087,1438.2998927327087,0.9997484056304546,0.0004039280661339335
1438.3068373800647,1438.3068373800647,0.999813060226012,0.0004036709605535923
1438.3137820277,1438.3137820277,1.0003527357847928,0.00040356924925095543
1438.3207266749632,1438.3207266749632,0.9997439510678152,0.000403269164909907
1438.3276713224122,1438.3276713224122,1.0001565592778028,0.00040376097954524756
1438.3346159696753,1438.3346159696753,1.0004307247988575,0.00040373991079972044
1438.341560616845,1438.341560616845,0.9998473018319924,0.00040320998387270897
1438.3485052641083,1438.3485052641083,1.0002082513738841,0.0004029923280768276
1438.3554499111854,1438.3554499111854,0.9997421739104638,0.0004030141314401065
1438.3623945581687,1438.3623945581687,1.000161971158241,0.0004030760630303647
1438.3693392052453,1438.3693392052453,0.9997868416959678,0.0004026183247383558
1438.3762838521357,1438.3762838521357,0.9999708227675523,0.00040249834722484
1438.3832284991195,1438.3832284991195,0.9994564631398299,0.00040236963402266214
1438.3901731458236,1438.3901731458236,1.0001730789718415,0.00040253139866064884
1438.3971177925282,1438.3971177925282,1.0007024017301585,0.0004027154664046482
1438.404062439139,1438.404062439139,1.0001735659211108,0.00040236911441852784
1438.4110070858435,1438.4110070858435,1.0001115144854191,0.00040232848749495947
1438.4179517323612,1438.4179517323612,0.9997232318666918,0.0004022994058214442
1438.424896378786,1438.424896378786,1.0000023590318865,0.00040214263099339786
1438.4318410250246,1438.4318410250246,0.9998316324308926,0.000402061700825606
1438.438785671356,1438.438785671356,0.9995440816217996,0.0004020993084931961
1438.4457303175946,1438.4457303175946,1.0000972801537453,0.00040203911683071495
1438.4526749636473,1438.4526749636473,0.999842160450304,0.00040194592822930696
1438.4596196096995,1438.4596196096995,1.0004507286856998,0.00040233048488319415
1438.4665642555656,1438.4665642555656,1.0000222266372694,0.00040207655660853576
1438.4735089015242,1438.4735089015242,0.9999856085838689,0.00040222981291892146
1438.4804535472974,1438.4804535472974,1.0000522728949413,0.00040196826565156433
1438.4873981929773,1438.4873981929773,0.9998010972809471,0.00040216900946678225
1438.4943428386568,1438.4943428386568,1.0000071797027767,0.00040191031379437645
1438.5012874840572,1438.5012874840572,1.0002093018107023,0.00040206964389463885
1438.5082321293648,1438.5082321293648,0.9998822063755796,0.0004020755156435141
1438.5151767746715,1438.5151767746715,1.0000702291361672,0.00040207488598740956
1438.522121419979,1438.522121419979,0.9999226443601007,0.0004022295451319252
1438.5290660652863,1438.5290660652863,0.9997649384993593,0.00040199749648204945
1438.536010710221,1438.536010710221,1.000157575379959,0.0004019910120023016
1438.5429553552488,1438.5429553552488,1.0000319286654735,0.0004017801675015903
1438.5499000000905,1438.5499000000905,1.000367103911549,0.0004020970866495949
1438.556844644839,1438.556844644839,0.9996317557310708,0.0004020816484049701
1438.563789289494,1438.563789289494,1.0001633363534914,0.0004020475631383253
1438.570733934056,1438.570733934056,0.9994084612658385,0.0004017932201104158
1438.5776785785256,1438.5776785785256,1.0003735906000013,0.0004018829367925444
1438.5846232228077,1438.5846232228077,1.0003996060920046,0.0004018979330288418
1438.591567867091,1438.591567867091,0.9999549087282344,0.000402007958007115
1438.5985125112807,1438.5985125112807,0.9997399022531461,0.0004018757003731724
1438.605457155284,1438.605457155284,1.0002355504496074,0.0004020850711943231
1438.6124017991945,1438.6124017991945,0.9999691618107164,0.0004021120095524266
1438.6193464431044,1438.6193464431044,0.9997745104978902,0.0004017448066702043
1438.6262910868286,1438.6262910868286,0.9998647014394735,0.0004022035508646006
1438.633235730366,1438.633235730366,0.999819930216199,0.000402179152085009
1438.6401803739036,1438.6401803739036,1.0003336294708292,0.00040191740379409864
1438.6471250173483,1438.6471250173483,1.000195563048126,0.0004020340866667797
1438.6540696607,1438.6540696607,0.9999449921745114,0.00040180795721466025
1438.6610143037722,1438.6610143037722,0.9997870122868052,0.0004017673650348391
1438.667958946751,1438.667958946751,1.0001789441465956,0.0004020399659800481
1438.67490358973,1438.67490358973,0.999816665961258,0.0004017074371526581
1438.681848232709,1438.681848232709,1.000002335502234,0.000401881255467483
1438.6887928755013,1438.6887928755013,1.0000540191293428,0.0004019476260578482
1438.6957375181078,1438.6957375181078,0.9998917464633801,0.00040185116439520166
1438.702682160621,1438.702682160621,1.0003148421858847,0.00040208510396194864
1438.7096268030414,1438.7096268030414,1.0002255399480202,0.0004022239631130468
1438.7165714452751,1438.7165714452751,0.9995388667319098,0.0004019320774719659
1438.723516087509,1438.723516087509,1.000217534218537,0.00040181261694584547
1438.7304607295566,1438.7304607295566,0.999884618969701,0.0004021346447809669
1438.7374053715112,1438.7374053715112,1.0002427994657723,0.0004019322579189291
1438.7443500133727,1438.7443500133727,0.9997051112489815,0.00040196821347038617
1438.7512946551406,1438.7512946551406,1.0000178341244434,0.0004019746449259413
1438.7582392967226,1438.7582392967226,0.9999497348978524,0.0004019480249236273
1438.7651839382113,1438.7651839382113,1.0002756254256542,0.0004019877458434877
1438.7721285796074,1438.7721285796074,1.000008605937853,0.0004020165577558876
1438.7790732208166,1438.7790732208166,1.0000995882362136,0.0004018653923065655
1438.7860178619326,1438.7860178619326,0.9995851273941776,0.00040180673778230996
1438.792962502956,1438.792962502956,0.9998599117146905,0.00040223357158727545
1438.799907143793,1438.799907143793,1.000479249772221,0.0004020345593482252
1438.8068517844436,1438.8068517844436,0.9993170959271798,0.00040187754995702174
1438.813796425094,1438.813796425094,0.9999383227704435,0.00040205709375682244
1438.8207410657446,1438.8207410657446,0.9999954885505442,0.00040211391478935327
1438.8276857063024,1438.8276857063024,1.0004751177761455,0.0004019647783205985
1438.8346303465808,1438.8346303465808,1.0007561085286159,0.0004019526868241141
1438.8415749866722,1438.8415749866722,1.0000743952878683,0.00040174344486764644
1438.8485196267643,1438.8485196267643,0.9995367675977078,0.000401789554516342
1438.8554642667627,1438.8554642667627,0.999611570102027,0.0004018989670589563
1438.8624089065754,1438.8624089065754,0.9997190214534546,0.0004017585563806993
1438.8693535462016,1438.8693535462016,0.9996648291631972,0.0004017407923740641
1438.8762981859206,1438.8762981859206,1.0000743898634488,0.0004016805085077516
1438.8832428252676,1438.8832428252676,1.0009507283670924,0.0004019541295588075
1438.8901874646144,1438.8901874646144,0.9996988282435731,0.00040199985404357945
1438.897132103868,1438.897132103868,1.0003831106761711,0.00040182154019151984
1438.9040767429353,1438.9040767429353,0.9996587228239562,0.00040187022640193976
1438.9110213819097,1438.9110213819097,0.9998230466636138,0.00040164053743165656
1438.9179660206978,1438.9179660206978,1.0001192587055168,0.00040205689992149326
1438.9249106594857,1438.9249106594857,1.0002767630615894,0.0004021729809611823
1438.9318552979944,1438.9318552979944,1.0002885799380254,0.00040200079592693516
1438.9387999363166,1438.9387999363166,0.9999862860079155,0.00040185559757698215
1438.945744574639,1438.945744574639,1.0004384320287838,0.000402052438496905
1438.952689212961,1438.952689212961,1.0002251791830528,0.0004018248645880763
1438.9596338511906,1438.9596338511906,0.9997453468113433,0.0004017347353246571
1438.96657848914,1438.96657848914,1.0000358992566425,0.00040192948105599965
1438.973523126997,1438.973523126997,0.9996612899015436,0.00040214032850939844
1438.9804677646675,1438.9804677646675,0.999328772915572,0.00040200743318859444
1438.9874124023377,1438.9874124023377,1.0002311978522889,0.0004018266925476241
1438.994357039822,1438.994357039822,0.9999533220408416,0.0004023247179001391
1439.0013016771195,1439.0013016771195,1.0002752236513266,0.00040194064182335785
1439.0082463143244,1439.0082463143244,1.0002483231237864,0.0004022764355219615
1439.0151909514361,1439.0151909514361,1.0006365686247682,0.0004020237063762953
1439.0221355884546,1439.0221355884546,0.9997078607091042,0.00040179929475002267
1439.0290802253799,1439.0290802253799,0.9995042620315499,0.00040181736811021067
1439.036024862026,1439.036024862026,1.0004456330172518,0.00040187342641439226
1439.042969498672,1439.042969498672,0.999824388934823,0.0004019498549695193
1439.0499141351315,1439.0499141351315,0.9995657848095053,0.000401924966854558
1439.0568587714984,1439.0568587714984,1.0002471386112926,0.00040195840623148693
1439.063803407585,1439.063803407585,1.00029069456154,0.00040213576739323584
1439.0707480439519,1439.0707480439519,0.9997685960276842,0.00040183743642539994
1439.0776926799456,1439.0776926799456,0.9999447562051778,0.0004019893707502507
1439.084637315474,1439.084637315474,1.0000214773774438,0.00040217476895594285
1439.091581951375,1439.091581951375,0.9997637637332477,0.00040213080484972284
1439.0985265869035,1439.0985265869035,0.999903215485882,0.00040174477847341946
1439.1054712223388,1439.1054712223388,1.0006089030243641,0.0004019819026754012
1439.112415857774,1439.112415857774,0.9998033937148231,0.00040191159458518347
1439.1193604929297,1439.1193604929297,1.0002318414229285,0.0004018799765166891
1439.126305128086,1439.126305128086,0.9998559025204606,0.00040180940163696917
1439.133249762962,1439.133249762962,0.9998941236617789,0.00040205583434836076
1439.1401943978385,1439.1401943978385,1.0002302182445846,0.0004017623017187391
1439.1471390325287,1439.1471390325287,0.9997258459016465,0.00040183666636916594
1439.1540836671259,1439.1540836671259,0.9998367902263894,0.00040179348422451406
1439.1610283016296,1439.1610283016296,1.0004490169757032,0.0004019510218005771
1439.167972935947,1439.167972935947,0.9997615457046075,0.00040202705154480733
1439.1749175701718,1439.1749175701718,1.0002440136586797,0.0004019642238630424
1439.1818622042101,1439.1818622042101,0.9998800645951388,0.000401679612878748
1439.1888068381552,1439.1888068381552,1.0003918598456703,0.000401952592640533
1439.1957514718208,1439.1957514718208,0.9996126745955592,0.0004019296696014736
1439.2026961054867,1439.2026961054867,1.0004606185313634,0.00040203298476462334
1439.2096407391523,1439.2096407391523,1.0002504116848,0.00040184021934592276
1439.216585372818,1439.216585372818,0.9995550680551775,0.00040194754977263165
1439.223530006018,1439.223530006018,0.9997844719099878,0.00040186971900744994
1439.2304746393115,1439.2304746393115,1.000043010188164,0.0004017902084409229
1439.237419272325,1439.237419272325,1.0000185148971341,0.00040204794312162447
1439.244363905339,1439.244363905339,1.0001070910830585,0.000401918569726775
1439.2513085380733,1439.2513085380733,1.000126400336603,0.0004019139102409234
1439.2582531707149,1439.2582531707149,0.9997854654753722,0.00040197567582739605
1439.2651978032627,1439.2651978032627,0.9999367015612852,0.0004017737158247617
1439.2721424357178,1439.2721424357178,1.0004385041942863,0.0004018496350884452
1439.2790870680797,1439.2790870680797,1.000472563542767,0.00040196417448909666
1439.2860317003483,1439.2860317003483,0.9993080431005328,0.0004020390784613539
1439.2929763323377,1439.2929763323377,1.0001559251630971,0.0004019869339895037
1439.299920964327,1439.299920964327,1.0000796931921072,0.00040208972060731574
1439.3068655960367,1439.3068655960367,1.0001355897632755,0.0004015989415407795
1439.3138102278403,1439.3138102278403,0.999493533485297,0.00040172506131420807
1439.3207548591777,1439.3207548591777,1.0001143807627082,0.00040192139208070803
1439.327699490515,1439.327699490515,0.9997043183533842,0.00040181969516962546
1439.3346441218525,1439.3346441218525,1.0001863873445993,0.00040183927299330366
1439.3415887531896,1439.3415887531896,1.000474430634211,0.00040218981029216914
1439.348533384248,1439.348533384248,0.9998248819344479,0.00040184290027428873
1439.3554780152126,1439.3554780152126,0.9995131056106483,0.0004017927361970642
1439.3624226459913,1439.3624226459913,1.0002614938961762,0.00040194611847811835
1439.3693672766772,1439.3693672766772,0.9999411032926293,0.0004019447695700784
1439.3763119072694,1439.3763119072694,1.0000758561656187,0.0004018143435957426
1439.383256537582,1439.383256537582,1.0003794687357033,0.0004020294730204484
1439.3902011679882,1439.3902011679882,0.9998344545327198,0.00040186735294866084
1439.3971457981147,1439.3971457981147,0.9997768448911823,0.0004019243013443658
1439.4040904281487,1439.4040904281487,1.000185679418592,0.00040182518562664803
1439.4110350579958,1439.4110350579958,1.0001753205228006,0.00040184539840848276
1439.417979687843,1439.417979687843,0.9993249369826586,0.0004015528406225628
1439.4249243175043,1439.4249243175043,1.0003288688735865,0.00040182666130215305
1439.4318689470724,1439.4318689470724,0.9997304530428848,0.0004019693719470231
1439.4388135765469,1439.4388135765469,1.0007709607944866,0.0004020023348112655
1439.4457582057423,1439.4457582057423,1.0002514393924262,0.0004019146767592867
1439.4527028350308,1439.4527028350308,1.0002993098175894,0.0004016944640807656
1439.4596474640402,1439.4596474640402,0.9999995562272062,0.0004018546066178306
1439.466592093049,1439.466592093049,1.0001082294356387,0.00040185272295317504
1439.4735367215924,1439.4735367215924,0.9995477374031545,0.0004018372309634462
1439.4804813504156,1439.4804813504156,0.9996659394649164,0.00040180470621000374
1439.487425978866,1439.487425978866,0.999651971886712,0.0004018406816685909
1439.494370607409,1439.494370607409,1.0000628955920035,0.0004022226571304108
1439.50131523558,1439.50131523558,1.0002831601353195,0.00040197392208565964
1439.508259863751,1439.508259863751,1.0001541673437147,0.00040212958239482587
1439.5152044918289,1439.5152044918289,0.999936353552699,0.0004019549862258766
1439.5221491196273,1439.5221491196273,1.0001788938348328,0.00040201439672509447
1439.5290937475188,1439.5290937475188,1.0001409985416914,0.0004019760136419882
1439.5360383752238,1439.5360383752238,1.000000733016281,0.00040189515545770507
1439.5429830027433,1439.5429830027433,0.9996391778499039,0.00040184897954015743
1439.549927630169,1439.549927630169,1.000261182668631,0.00040202136997356737
1439.5568722575017,1439.5568722575017,1.0000514563613587,0.0004022425120896239
1439.563816884648,1439.563816884648,0.9998878428785449,0.0004017659694261585
1439.570761511702,1439.570761511702,1.0001710999822673,0.0004017133014949339
1439.5777061385686,1439.5777061385686,0.9998942266838065,0.00040187613206707886
1439.5846507652493,1439.5846507652493,0.999619621788724,0.0004018062982910557
1439.5915953919302,1439.5915953919302,1.0003076732923637,0.00040198490717149627
1439.5985400186114,1439.5985400186114,0.9996690145276574,0.00040184091318778157
1439.6054846451057,1439.6054846451057,1.0001080959277764,0.0004018561372834169
1439.612429271414,1439.612429271414,0.9997856831690977,0.00040187689699722336
1439.6193738975358,1439.6193738975358,1.000179318442067,0.0004020805467403926
1439.6263185236583,1439.6263185236583,1.0004490850073913,0.00040190316205320815
1439.6332631495006,1439.6332631495006,0.9999973391259583,0.00040211350155619567
1439.6402077753432,1439.6402077753432,1.0000778093985974,0.0004020499918016195
1439.6471524010926,1439.6471524010926,1.0001091249177292,0.0004019836916407992
1439.6540970265628,1439.6540970265628,0.9993705203504346,0.0004017484306601734
1439.661041652126,1439.661041652126,1.0004486073470173,0.00040182257084978127
1439.6679862774101,1439.6679862774101,1.0005162807926493,0.0004016938807407172
1439.6749309026006,1439.6749309026006,0.9999284980531877,0.00040185326476715663
1439.6818755276986,1439.6818755276986,0.9999209098057097,0.00040197878161430745
1439.6888201526094,1439.6888201526094,0.9996118699175691,0.00040170315608266795
1439.6957647774275,1439.6957647774275,1.0001373682489365,0.0004019800386990312
1439.7027094020593,1439.7027094020593,1.0001601289959763,0.00040180896763002604
1439.7096540267846,1439.7096540267846,1.000111434487686,0.00040198669641750554
1439.7165986512305,1439.7165986512305,1.000118873872022,0.0004018335812413969
1439.7235432755829,1439.7235432755829,0.9998161426910848,0.0004021719543888442
1439.7304878997488,1439.7304878997488,0.9997008254967501,0.0004018796632106416
1439.7374325238225,1439.7374325238225,1.0000445391387296,0.0004021202751314995
1439.7443771478022,1439.7443771478022,1.0000700186663616,0.0004017325660845039
1439.751321771689,1439.751321771689,1.0003861234779907,0.00040192744020513217
