time,time,flux,flux_err
1325.2999744554784,1325.2999744554784,0.9994767666617049,0.0005261769190706871
1325.3083077553574,1325.3083077553574,1.000291211591381,0.0005266528985152142
1325.3159466137529,1325.3159466137529,1.000335637866917,0.00048089696948519717
1325.3228910306505,1325.3228910306505,1.0002026185478745,0.00048104846964414224
1325.3298354477108,1325.3298354477108,1.0001303771916146,0.0004812074642250068
1325.3367798649113,1325.3367798649113,1.0003198445424994,0.00048151754816966937
1325.343724282263,1325.343724282263,0.9999607671429185,0.00048181279520937245
1325.3506686997541,1325.3506686997541,0.9995311497053919,0.0004820109537695634
1325.3576131173968,1325.3576131173968,1.0004348694640322,0.00048254793624750975
1325.364557535191,1325.364557535191,0.9998023460854185,0.00048276238092516486
1325.3715019531248,1325.3715019531248,0.9998585534466647,0.00048312372415690595
1325.378446371198,1325.378446371198,1.0002592996151074,0.0004835422123899985
1325.385390789423,1325.385390789423,1.0001154631497224,0.00048391448379957023
1325.392335207787,1325.392335207787,0.9992596004470615,0.00048413815288709877
1325.3992796263026,1325.3992796263026,1.0004414197555793,0.00048462642861233144
1325.4062240449466,1325.4062240449466,1.0002503506085527,0.00048482411410627317
1325.4131684637182,1325.4131684637182,1.0002775185919601,0.00048520800579222536
1325.4201128826303,1325.4201128826303,1.0001691362467342,0.0004854789979489633
1325.4270573016813,1325.4270573016813,0.9999556955248341,0.00048576405453202974
1325.4340017208604,1325.4340017208604,0.999988961570683,0.0004859514081310969
1325.4409461401797,1325.4409461401797,0.9993714342693003,0.00048614374349312435
1325.44789055965,1325.44789055965,0.999832099157101,0.00048644917057201286
1325.4548349792135,1325.4548349792135,1.000273801303854,0.00048680855931201096
1325.4617793989166,1325.4617793989166,1.00014380319486,0.0004870335990150034
1325.4687238187594,1325.4687238187594,0.9998502326819725,0.000487304943128063
1325.4756682387306,1325.4756682387306,0.9999374553043221,0.00048756802695685213
1325.4826126588175,1325.4826126588175,1.000497729252507,0.0004879639567598608
1325.4895570790216,1325.4895570790216,0.9998156922431324,0.0004882074403794903
1325.4965014993536,1325.4965014993536,1.0004766703010335,0.0004885531536717118
1325.5034459198246,1325.5034459198246,0.9999506101677674,0.0004888046326656602
1325.5103903404015,1325.5103903404015,0.9991360119568278,0.0004890064352015411
1325.517334761094,1325.517334761094,1.0002071466858886,0.0004894728055282795
1325.5242791819264,1325.5242791819264,0.9995056571042019,0.0004896376533607236
1325.5312236028517,1325.5312236028517,1.0005678407643892,0.0004901782647429151
1325.5381680238938,1325.5381680238938,1.0004003163248238,0.0004905283123180051
1325.5451124450638,1325.5451124450638,0.9995649579128367,0.0004905676034606735
1325.5520568663387,1325.5520568663387,0.9998517023579965,0.0004909230259873574
1325.5590012877417,1325.5590012877417,1.0001260349015506,0.0004912661213888523
1325.5659457092493,1325.5659457092493,1.00031818356955,0.0004915080788468086
1325.5728901308498,1325.5728901308498,1.0005799073000428,0.0004918478334870991
1325.5798345525675,1325.5798345525675,0.9996367881548816,0.0004920036758400413
1325.5867789744007,1325.5867789744007,0.9992735450091329,0.0004921504076398173
1325.5937233963507,1325.5937233963507,1.0003583991585756,0.000492569204354174
1325.600667818382,1325.600667818382,0.9996996939321579,0.0004926412911108394
1325.60761224053,1325.60761224053,1.0000631647532587,0.0004928705601026336
1325.6145566627945,1325.6145566627945,1.0006906196403451,0.0004931241442435786
1325.6215010851404,1325.6215010851404,1.0002911770720058,0.000493131694566638
1325.6284455076143,1325.6284455076143,0.9998654263525373,0.0004931925872486357
1325.6353899301696,1325.6353899301696,0.999145301750343,0.000493069459956014
1325.6423343528063,1325.6423343528063,1.0004113970335824,0.0004932692643084595
1325.6492787755828,1325.6492787755828,0.9991627707287336,0.0004929996983751894
1325.656223198441,1325.656223198441,0.9996569422801158,0.0004931596295205245
1325.6631676213688,1325.6631676213688,1.000656206679897,0.0004932693181185126
1325.6701120444247,1325.6701120444247,1.0002295816583207,0.0004932035353926228
1325.6770564675621,1325.6770564675621,1.0001932425182045,0.0004931739459172673
1325.6840008908046,1325.6840008908046,0.9999980566435787,0.000493275431833076
1325.6909453141284,1325.6909453141284,1.000332427992116,0.000493316157360927
1325.6978897375452,1325.6978897375452,1.000304539238409,0.0004933937504452179
1325.7048341610553,1325.7048341610553,0.9990670795193022,0.0004932151568531655
1325.7117785846463,1325.7117785846463,1.0003064392215522,0.000493585023053215
1325.718723008343,1325.718723008343,1.0000476008656987,0.0004936949113201004
1325.7256674321086,1325.7256674321086,0.9998382962087421,0.0004937762471439142
1325.732611855968,1325.732611855968,0.9993852063750976,0.0004937910229803157
1325.7395562799206,1325.7395562799206,0.9999479108298128,0.000494036639337682
1325.746500703954,1325.746500703954,1.0007111067229153,0.0004943769434246643
1325.7534451280576,1325.7534451280576,1.0000084929280777,0.0004944337586981416
1325.7603895522666,1325.7603895522666,1.0002630170581344,0.0004947149569461715
1325.7673339765329,1325.7673339765329,1.0002553436601684,0.0004949186238818047
1325.7742784009047,1325.7742784009047,0.9997470489535601,0.0004950570883265228
1325.781222825334,1325.781222825334,1.000171030998731,0.000495320245255732
1325.7881672498806,1325.7881672498806,1.0001879438276746,0.0004955310635491874
1325.7951116744728,1325.7951116744728,0.9993172154220862,0.0004955229586101214
1325.8020560991467,1325.8020560991467,1.0000225720966893,0.0004958216558989907
1325.8090005239028,1325.8090005239028,1.0001191380420746,0.0004960161061309101
1325.8159449487396,1325.8159449487396,1.0004808332807191,0.0004961507699364331
1325.8228893736587,1325.8228893736587,0.9999786541167953,0.0004961725651949583
1325.8298337986234,1325.8298337986234,1.0002576231753582,0.000496295309559384
1325.8367782236814,1325.8367782236814,1.000006993723461,0.0004963547576584232
1325.8437226488102,1325.8437226488102,1.0000732416374207,0.0004963613396293488
1325.8506670740194,1325.8506670740194,0.9995152518687753,0.000496201537718387
1325.8576114992757,1325.8576114992757,1.0005398772827907,0.0004962532292488166
1325.8645559246136,1325.8645559246136,1.0000244046041338,0.0004961998800368581
1325.8715003500329,1325.8715003500329,0.999207311803129,0.000495874609379848
1325.8784447755102,1325.8784447755102,0.9999961989375695,0.0004958113715951022
1325.885389201057,1325.885389201057,1.00049615643363,0.0004957841952297491
1325.892333626663,1325.892333626663,1.0005357236560835,0.0004955244314921409
1325.8992780523615,1325.8992780523615,0.999706092214171,0.0004953489999390173
1325.9062224781064,1325.9062224781064,1.0002300030553655,0.0004952838660880543
1325.9131669039211,1325.9131669039211,0.9991851082070969,0.0004950560196357351
1325.9201113298177,1325.9201113298177,0.9997456575285183,0.0004950086271598279
1325.927055755738,1325.927055755738,1.0000666187237273,0.0004949595986751137
1325.9340001817386,1325.9340001817386,1.0006390267763523,0.0004949662613631472
1325.9409446078103,1325.9409446078103,1.0003154181369072,0.0004949228121840333
1325.9478890339278,1325.9478890339278,0.9997310201860146,0.0004947479623249
1325.9548334601154,1325.9548334601154,0.9998886809392215,0.000494718933643133
1325.9623334404814,1325.9623334404814,0.9995812337293618,0.0004946820647538203
1325.970111197942,1325.970111197942,0.9998182074076982,0.0004945860685120088
1325.9770556243277,1325.9770556243277,0.9998606452596939,0.0004946538646187888
1325.9840000507825,1325.9840000507825,1.0002663032150605,0.0004946862631257237
1325.990944477273,1325.990944477273,1.0002303763960596,0.000494825079212416
1325.9978889038098,1325.9978889038098,1.000458892943554,0.0004949441373564582
1326.0048333304162,1326.0048333304162,1.0006108706926606,0.0004950947913424145
1326.0117777570815,1326.0117777570815,1.0001489892906954,0.00049525509111695
1326.0187221838044,1326.0187221838044,0.9995929361761453,0.0004953404494016393
1326.0256666105506,1326.0256666105506,0.9998988505305156,0.0004956143616778567
1326.0326110374021,1326.0326110374021,0.9995158102562701,0.00049565723214265
1326.039555464276,1326.039555464276,0.9999362103559406,0.0004956608107387451
1326.046499891209,1326.046499891209,0.9996818953881362,0.0004956603893136091
1326.0534443181994,1326.0534443181994,0.9996122899260614,0.0004956785080704101
1326.0603887452137,1326.0603887452137,1.0000170499897534,0.0004957734193071787
1326.0673331722974,1326.0673331722974,1.0001375564019637,0.0004958062650742773
1326.0742775994509,1326.0742775994509,1.0006077356566696,0.0004959609640222201
1326.0812220266284,1326.0812220266284,1.0002949884729937,0.0004958818251993294
1326.0881664538636,1326.0881664538636,0.9997206542924968,0.0004956849255386906
1326.095110881134,1326.095110881134,1.000106755758308,0.0004958759955736728
1326.102055308474,1326.102055308474,0.9994528401972552,0.000495744867683771
1326.108999735849,1326.108999735849,1.000075486942373,0.0004958868065144202
1326.1159441632703,1326.1159441632703,1.0006593841186007,0.000496052440326799
1326.122888590738,1326.122888590738,0.9995075854736186,0.000495740079104381
1326.129833018253,1326.129833018253,0.9998536196421351,0.0004959328323576465
1326.1367774458145,1326.1367774458145,1.0002476986929627,0.0004959217065284929
1326.1437218734222,1326.1437218734222,0.9995941237186157,0.0004958366170627136
1326.1506663010882,1326.1506663010882,1.000931679054829,0.0004960670038056656
1326.1576107287538,1326.1576107287538,0.9999711763589506,0.0004959640761391907
1326.164555156502,1326.164555156502,1.000131689619336,0.000495937518545079
1326.1714995842722,1326.1714995842722,0.9991235794033935,0.0004957388716805534
1326.1784440120896,1326.1784440120896,0.9995599267344353,0.0004957283157159936
1326.1853884399538,1326.1853884399538,0.9999829221367935,0.0004958941369444891
1326.1923328678406,1326.1923328678406,1.0003306895895638,0.0004958879739394978
1326.1992772957979,1326.1992772957979,0.99965642059393,0.0004957479292220263
1326.206221723778,1326.206221723778,0.9991328858556623,0.0004956385231032784
1326.2131661517938,1326.2131661517938,1.0007199621672807,0.0004959398060917187
1326.2201105798551,1326.2201105798551,1.0002433670571922,0.0004957386960788547
1326.2270550079636,1326.2270550079636,0.9999601390321127,0.000495708447261528
1326.2339994361068,1326.2339994361068,1.0003198043361003,0.0004957448780808612
1326.2409438642733,1326.2409438642733,0.999806290059064,0.0004956616972515301
1326.2478882924868,1326.2478882924868,1.0001517156169508,0.0004956520930445971
1326.2548327207346,1326.2548327207346,0.9996161900018157,0.0004955702203258172
1326.2617771490181,1326.2617771490181,0.9994330640251251,0.0004955052801904937
1326.2687215773476,1326.2687215773476,1.0002457934553384,0.0004956246744141489
1326.2756660056998,1326.2756660056998,1.0009027704870934,0.0004958421329093856
1326.2826104340882,1326.2826104340882,0.9997430291379816,0.0004955648052671602
1326.2895548625224,1326.2895548625224,1.0004951863528477,0.0004955889789806344
1326.2964992909917,1326.2964992909917,0.9998825935312159,0.0004956062127052003
1326.3034437194724,1326.3034437194724,1.0001099062170917,0.0004956558487514345
1326.3103881480001,1326.3103881480001,0.9994812642434656,0.0004955441705154719
1326.3173325765742,1326.3173325765742,0.999943198798998,0.0004956458006435649
1326.324277005171,1326.324277005171,0.9992669006713507,0.0004956415200401199
1326.3312214337923,1326.3312214337923,0.9998502712055002,0.0004957839045951034
1326.338165862459,1326.338165862459,1.0005620247799176,0.0004959137229851591
1326.34511029115,1326.34511029115,1.0005010355077937,0.0004959640926492879
1326.3548324913725,1326.3548324913725,0.9994711128340642,0.0004958188877919559
1326.3617769201323,1326.3617769201323,1.0001329622243664,0.0004960040622741211
1326.368721348928,1326.368721348928,1.0002481408069201,0.0004961309524377243
1326.3756657777344,1326.3756657777344,0.9997816233135023,0.0004960042266614121
1326.3826102066116,1326.3826102066116,1.0001886088503897,0.000496217155103785
1326.3895546354881,1326.3895546354881,0.9998540314396649,0.0004962324745808941
1326.3964990643997,1326.3964990643997,1.0007831730347287,0.00049642927488251
1326.4034434933346,1326.4034434933346,0.9998946580213681,0.0004963101972501544
1326.410387922293,1326.410387922293,0.9995301754301187,0.000496243111508553
1326.4173323512978,1326.4173323512978,0.999382334484937,0.0004962582529093181
1326.4242767803257,1326.4242767803257,0.9992364317339504,0.0004963249521606386
1326.4312212093773,1326.4312212093773,1.0003893571806626,0.0004965410802540611
1326.4381656384517,1326.4381656384517,1.0005791655964,0.0004966853302670684
1326.445110067538,1326.445110067538,1.0005022531232437,0.0004967325985760617
1326.452054496671,1326.452054496671,1.0004051931524773,0.0004967109177701631
1326.4589989258388,1326.4589989258388,1.0002215860093626,0.0004967901447575068
1326.4659433550064,1326.4659433550064,0.9997664192089435,0.0004967681035113089
1326.4728877842208,1326.4728877842208,0.9998523371562845,0.000496843302857632
1326.4798322134468,1326.4798322134468,0.9997240941782634,0.0004969214486021297
1326.486776642696,1326.486776642696,0.9991897832916932,0.0004968924722559981
1326.4937210719802,1326.4937210719802,0.9999220240663697,0.0004970403377591915
1326.5006655012878,1326.5006655012878,1.001035185236404,0.0004973064271851628
1326.507609930595,1326.507609930595,0.9999103286079674,0.0004971516843818491
1326.5145543599492,1326.5145543599492,0.9992533755333268,0.0004971760423427512
1326.5214987893264,1326.5214987893264,0.9997616574260759,0.0004972989368733302
1326.5284432187273,1326.5284432187273,1.0001961508221746,0.0004975100887191365
1326.5353876481508,1326.5353876481508,1.0005144340180456,0.000497615519105509
1326.5423320775633,1326.5423320775633,1.000736306597983,0.0004977972509603002
1326.5492765070221,1326.5492765070221,0.9996565236347761,0.0004977851263580611
1326.5562209364923,1326.5562209364923,0.9997463472244681,0.0004979008096011802
1326.563165365998,1326.563165365998,0.9998060374218436,0.000497939350056384
1326.5701097955264,1326.5701097955264,1.0008205284699336,0.0004980667828381785
1326.5770542250668,1326.5770542250668,0.9994537802917692,0.0004978233333187917
1326.5839986546302,1326.5839986546302,0.9997370748635378,0.0004979892684000506
1326.5909430842057,1326.5909430842057,0.9998804034848044,0.000498144690867649
1326.5978875138157,1326.5978875138157,0.9995481045120009,0.0004980952206322359
1326.6048319434258,1326.6048319434258,1.0003693158634597,0.0004983153539288777
1326.611776373071,1326.611776373071,1.0005788373111906,0.0004983935448599835
1326.6187208027277,1326.6187208027277,0.9995257700077124,0.0004982399899024827
1326.625665232396,1326.625665232396,0.9995449713887268,0.0004981946429893547
1326.632609662076,1326.632609662076,1.0007703371759713,0.0004984220600241885
1326.6395540918024,1326.6395540918024,1.000169525857584,0.0004983246869631315
1326.646498521541,1326.646498521541,1.0002572705019688,0.0004983747988515265
1326.6534429512906,1326.6534429512906,1.0001208499782928,0.000498189373823021
1326.6603873810523,1326.6603873810523,0.9994018593645325,0.0004981273080559594
1326.6673318108367,1326.6673318108367,1.0000530276802793,0.000498095533135585
1326.6742762406334,1326.6742762406334,0.9995943579032633,0.0004980400156782381
1326.681220670453,1326.681220670453,0.9997377466219479,0.0004978108167060206
1326.6889984318486,1326.6889984318486,1.0002389908029392,0.0004978660413423647
1326.6964984160911,1326.6964984160911,0.9999310967353928,0.0004977052585145363
1326.7034428459688,1326.7034428459688,0.9999081530749123,0.0004976158095006739
1326.710665053047,1326.710665053047,1.0007254938858139,0.0004976486682330193
1326.718720591724,1326.718720591724,1.000297735569666,0.00049745745393455
1326.7256650216368,1326.7256650216368,0.9999429695489539,0.0004972330091806726
1326.732609451573,1326.732609451573,0.9996461606513538,0.0004971942463396116
1326.7395538815206,1326.7395538815206,0.9997719897973752,0.0004971888065840907
1326.74649831148,1326.74649831148,0.9998248999328391,0.0004970348019274109
1326.7534427414507,1326.7534427414507,0.9998734759417249,0.000497045638817799
1326.7603871714105,1326.7603871714105,0.9999061657543793,0.0004969122117595752
1326.7673316014393,1326.7673316014393,1.0003026883502306,0.0004970227785658243
1326.7742760314572,1326.7742760314572,1.0004854130129144,0.000496942926010565
1326.7812204614747,1326.7812204614747,1.0000538966879247,0.0004968009981925635
1326.7881648915154,1326.7881648915154,0.9993969371579852,0.0004967138875782838
1326.7951093215684,1326.7951093215684,0.9995026963125703,0.000496659371012242
1326.8020537516327,1326.8020537516327,0.9999126961455932,0.0004968293051002901
1326.808998181708,1326.808998181708,1.0004480384018068,0.0004968789728232233
1326.8159426117952,1326.8159426117952,1.0002020920763592,0.0004969464430131965
1326.8228870419064,1326.8228870419064,1.0007535721550624,0.0004969512149698548
1326.829831472017,1326.829831472017,0.9999993627404203,0.0004967329032068762
1326.8367759021512,1326.8367759021512,1.0000957753852684,0.0004968209540383487
1326.843720332285,1326.843720332285,0.9997842505890567,0.000496670852819279
1326.8506647624306,1326.8506647624306,0.9995236496359257,0.0004966066224139709
1326.857609192588,1326.857609192588,0.9995186695995167,0.0004965584883568441
1326.8645536227573,1326.8645536227573,1.0004349480163435,0.0004965944678146357
1326.8714980529262,1326.8714980529262,0.9998225247344703,0.0004964417859536622
1326.8784424831183,1326.8784424831183,0.9999744469247656,0.0004963026491647635
1326.885386913322,1326.885386913322,1.0002806740792909,0.0004961519751537853
1326.8923313435378,1326.8923313435378,0.9998186599614666,0.0004959210589222001
1326.899275773753,1326.899275773753,0.9998562881051202,0.0004956295122639281
1326.9062202039802,1326.9062202039802,1.0004436467541062,0.0004956371737258834
1326.913164634219,1326.913164634219,1.0003713968588903,0.0004953979495590635
1326.9201090644813,1326.9201090644813,0.9996908066021737,0.0004950851167177032
1326.9270534947198,1326.9270534947198,1.0003301910076112,0.0004949274240499694
1326.933997924994,1326.933997924994,0.999739124648839,0.0004947030722510452
1326.9409423552788,1326.9409423552788,0.999889597229999,0.0004945507385944664
1326.9478867855644,1326.9478867855644,0.9995795852277759,0.0004942201786469501
1326.9548312158497,1326.9548312158497,0.999717449779123,0.000494084312674846
1326.9617756461353,1326.9617756461353,0.9995351435020432,0.0004938671080404642
1326.9687200764672,1326.9687200764672,1.0008792588615365,0.000493974825111391
1326.9756645067637,1326.9756645067637,1.0002505611762722,0.000493775346163467
1326.9826089371077,1326.9826089371077,0.9998546791217127,0.0004934928846581411
1326.9895533674394,1326.9895533674394,1.0003487093318397,0.0004934746647301207
1326.996497797772,1326.996497797772,0.9996053948644384,0.0004932275427314486
1327.0034422281149,1327.0034422281149,1.0005470101099458,0.0004934594875113601
1327.0103866584702,1327.0103866584702,0.9994536276505809,0.0004931456426754446
1327.0173310888372,1327.0173310888372,0.9996643087957999,0.0004932083418881996
1327.024275519204,1327.024275519204,1.0003322580297953,0.0004931883722266415
1327.0312199495706,1327.0312199495706,0.9998939158415187,0.0004932255943690003
1327.038164379949,1327.038164379949,1.0002586784489609,0.0004932085071614689
1327.0451088103396,1327.0451088103396,1.000023039893432,0.0004931724252380816
1327.0520532407413,1327.0520532407413,0.9996256858665223,0.0004931434212312356
1327.0595532255543,1327.0595532255543,0.9997284326988879,0.0004932386351382556
1327.0673309876252,1327.0673309876252,0.9999367361377007,0.0004932825604464936
1327.074275418027,1327.074275418027,0.999725549462927,0.000493226913718544
