time,time,flux,flux_err
1325.2985719095234,1325.2985719095234,1.0002394724706178,0.0005345248195492463
1325.306905244754,1325.306905244754,1.0001576129394858,0.0005347137662013309
1325.3152385802762,1325.3152385802762,0.9992253538642673,0.000534863648116607
1325.3228774714325,1325.3228774714325,1.0003369851052324,0.00048870122838248
1325.3298219181438,1325.3298219181438,1.000558126194805,0.000488925102162145
1325.336766365065,1325.336766365065,0.9990824079957985,0.000489087430596445
1325.343710812184,1325.343710812184,1.000718442294533,0.0004896595365784179
1325.3506552595127,1325.3506552595127,1.0001193298415567,0.000489914609644699
1325.3575997070275,1325.3575997070275,0.9995104445962892,0.0004902791094565462
1325.3645441547287,1325.3645441547287,0.9998848813637853,0.0004906698541484176
1325.3714886026391,1325.3714886026391,1.000050322522563,0.000491069375598423
1325.3784330507128,1325.3784330507128,0.9997295777600582,0.0004913304316044858
1325.3853774990077,1325.3853774990077,1.0000803793418518,0.0004919168189540785
1325.3923219474655,1325.3923219474655,0.99941765583695,0.0004921439575174653
1325.3992663961094,1325.3992663961094,1.00090488608749,0.0004927398349907903
1325.40621084494,1325.40621084494,1.0006061913526385,0.0004930346177543859
1325.4131552939446,1325.4131552939446,0.9997610610147032,0.0004933267660647787
1325.4200997431242,1325.4200997431242,0.9998811773285073,0.0004936568910497667
1325.4270441924898,1325.4270441924898,0.999087794033344,0.0004938149289810043
1325.4339886420305,1325.4339886420305,1.0003351897754609,0.0004943761385572161
1325.4409330917456,1325.4409330917456,1.0002985526636003,0.0004946599493583393
1325.447877541612,1325.447877541612,0.9997733005717844,0.0004948871016073203
1325.454821991676,1325.454821991676,1.0005063520461484,0.0004952626157669844
1325.46176644188,1325.46176644188,0.9997279378367072,0.0004955122273964263
1325.468710892247,1325.468710892247,1.0000909049149076,0.0004958991303881451
1325.4756553427887,1325.4756553427887,1.0002826154363706,0.0004962068265610657
1325.4825997935047,1325.4825997935047,0.9991062028053879,0.0004964141141513256
1325.4895442443726,1325.4895442443726,1.000081705195254,0.0004968976484412165
1325.4964886953917,1325.4964886953917,0.9993516480444982,0.0004971362755192564
1325.5034331465617,1325.5034331465617,1.000439161720242,0.0004977469596752416
1325.510377597895,1325.510377597895,1.0010421653652617,0.0004981990603483831
1325.5173220493912,1325.5173220493912,0.9995157667073287,0.0004983596850133324
1325.524266501004,1325.524266501004,1.0001881935266062,0.0004988585530800967
1325.5312109528027,1325.5312109528027,1.0003526225552015,0.0004992849001668984
1325.5381554047294,1325.5381554047294,1.0000568311200067,0.0004997238237774867
1325.5450998567965,1325.5450998567965,1.0000466459817843,0.0005001523712176689
1325.552044309014,1325.552044309014,0.9996198483709055,0.0005004296375800022
1325.5589887613837,1325.5589887613837,0.9993710337737604,0.0005008105027956753
1325.565933213881,1325.565933213881,1.0000517535679134,0.0005013433339074642
1325.5728776665296,1325.5728776665296,1.0006481017232947,0.0005018097476911964
1325.5798221193186,1325.5798221193186,0.9993779510078509,0.0005019543278189798
1325.5867665722112,1325.5867665722112,1.0000573328541864,0.0005023168878333837
1325.5937110252792,1325.5937110252792,1.000032263780852,0.0005025427651140183
1325.6006554784751,1325.6006554784751,1.000545571875921,0.0005028485091674674
1325.6075999317873,1325.6075999317873,0.9996184534328478,0.0005029306414488209
1325.6145443852279,1325.6145443852279,0.9994659677085279,0.0005030822684361685
1325.6214888388076,1325.6214888388076,1.0001525075451068,0.0005032061682997641
1325.6284332925159,1325.6284332925159,1.0002859283619059,0.0005033552524348088
1325.6353777463405,1325.6353777463405,0.9999331128173947,0.0005033915189954218
1325.6423222002927,1325.6423222002927,1.0007243641020573,0.0005036060898382194
1325.6492666543852,1325.6492666543852,0.9996108095601357,0.0005034647620642922
1325.6562111085707,1325.6562111085707,1.0001525599579513,0.000503529276387194
1325.6631555628842,1325.6631555628842,1.0000666096760735,0.0005035858875527355
1325.6701000173255,1325.6701000173255,0.9994303548666089,0.0005036839128950216
1325.6770444718836,1325.6770444718836,1.0000982875755684,0.0005038155284450987
1325.6839889265345,1325.6839889265345,1.0000245112046218,0.0005039382633203317
1325.6909333813487,1325.6909333813487,0.9996958412776845,0.000504139582056137
1325.6978778362445,1325.6978778362445,1.00082088155677,0.0005043488684552567
1325.7048222912565,1325.7048222912565,1.0005184861694878,0.000504488916758425
1325.7117667463613,1325.7117667463613,0.9997174470765626,0.0005046685240139287
1325.7187112015945,1325.7187112015945,1.0000648113972328,0.0005049290330850072
1325.7256556569323,1325.7256556569323,0.999286698580627,0.0005050718583778604
1325.732600112375,1325.732600112375,0.9996557665907408,0.0005053572666114581
1325.739544567946,1325.739544567946,1.0001506452030042,0.0005055947051890101
1325.7464890235744,1325.7464890235744,0.999443130122313,0.0005057315139457827
1325.7534334793434,1325.7534334793434,1.0000622747346029,0.0005061206648700895
1325.7603779352053,1325.7603779352053,1.0003860812263246,0.0005063745024366355
1325.7673223911715,1325.7673223911715,1.0004268078865761,0.000506699707374576
1325.7742668472197,1325.7742668472197,1.0001730946734453,0.0005069298196982156
1325.781211303384,1325.781211303384,0.9998072294487933,0.0005071282633338514
1325.7881557596418,1325.7881557596418,1.0000711453849143,0.0005074336706805722
1325.7951002160044,1325.7951002160044,1.0003138145625805,0.0005076664064999458
1325.8020446724481,1325.8020446724481,0.9997459492791329,0.0005077702959909573
1325.8089891289853,1325.8089891289853,0.9996747295025801,0.0005079705083259069
1325.8159335856267,1325.8159335856267,0.999783725181165,0.0005081401719098102
1325.8228780423735,1325.8228780423735,1.000078951670807,0.000508310271080986
1325.8298224991665,1325.8298224991665,1.0001397920597117,0.0005084762054654156
1325.8367669560762,1325.8367669560762,1.0001216721818902,0.0005085913782513126
1325.8437114130907,1325.8437114130907,1.0001219838256818,0.0005086026357013877
1325.8506558701624,1325.8506558701624,1.0000283281063789,0.0005085639325728044
1325.8576003273404,1325.8576003273404,1.000257049899512,0.0005085427207348062
1325.8645447845872,1325.8645447845872,0.9997927794275272,0.0005083336495696007
1325.8714892419277,1325.8714892419277,0.9995968606346581,0.0005081638500243969
1325.8784336993726,1325.8784336993726,1.0001578125021853,0.0005080405575184536
1325.885378156876,1325.885378156876,1.0000871076193873,0.0005077927355847708
1325.892322614472,1325.892322614472,0.9995990348899166,0.0005075962928634453
1325.8992670721505,1325.8992670721505,0.9999104238723506,0.0005074131501312495
1325.9062115298861,1325.9062115298861,1.0012571806762474,0.0005074699358547283
1325.9131559877271,1325.9131559877271,1.0000235018182844,0.0005071950939167399
1325.9201004456493,1325.9201004456493,0.9995217229877275,0.0005070067717342565
1325.9270449036185,1325.9270449036185,0.9999237303666331,0.0005069760027117755
1325.9339893616918,1325.9339893616918,1.000065461471752,0.0005069046192104764
1325.940933819824,1325.940933819824,1.001007536124169,0.0005069982149339769
1325.9478782780375,1325.9478782780375,0.9994295018759519,0.0005067690904624778
1325.9548227363325,1325.9548227363325,1.0005736151245523,0.0005068624351916328
1325.9626005297075,1325.9626005297075,0.9995473895849214,0.0005066726907899299
1325.9701005448114,1325.9701005448114,0.9999882363516924,0.0005067763585346815
1325.9770450033393,1325.9770450033393,0.9991467102248308,0.0005067184651473886
1325.9839894619365,1325.9839894619365,1.0004997744443336,0.0005069207495067418
1325.9909339205922,1325.9909339205922,0.9993439948129902,0.0005068510582438941
1325.997878379318,1325.997878379318,1.000257809138872,0.0005071450180962596
1326.0048228381133,1326.0048228381133,1.0000072177608967,0.000507290404694625
1326.0117672969789,1326.0117672969789,1.0003946462100113,0.0005075248428844484
1326.0187117559258,1326.0187117559258,1.0002806996569673,0.0005077675884837939
1326.0256562149075,1326.0256562149075,1.0000511181455727,0.0005080445534480294
1326.032600673959,1326.032600673959,1.000573089410057,0.0005082487974779943
1326.039545133092,1326.039545133092,0.9997070800327288,0.0005080048981385757
1326.0464895922835,1326.0464895922835,1.0000875481661144,0.0005080141054823092
1326.0534340515328,1326.0534340515328,0.9995371437386232,0.0005081425849056754
1326.060378510852,1326.060378510852,0.9994432691147651,0.0005081623052127597
1326.0673229702065,1326.0673229702065,1.0005998275693775,0.0005084910998015903
1326.0742674296648,1326.0742674296648,0.9995929314601806,0.0005084033946437528
1326.081211889148,1326.081211889148,0.999302858391135,0.0005085134466248562
1326.0881563487114,1326.0881563487114,1.000520319147238,0.0005087524348223233
1326.0951008083337,1326.0951008083337,1.0009095662562997,0.0005087810847575987
1326.1020452680023,1326.1020452680023,1.0001315074365074,0.0005087996064488446
1326.1089897277288,1326.1089897277288,0.9994542042048495,0.0005087770383038363
1326.115934187514,1326.115934187514,1.0001981566156417,0.0005089440306976647
1326.1228786473569,1326.1228786473569,0.9995467832547256,0.0005088338684726783
1326.1298231072587,1326.1298231072587,1.000102432794369,0.0005089561198827672
1326.1367675671947,1326.1367675671947,0.999248000599356,0.0005088756538331408
1326.1437120272244,1326.1437120272244,1.0006952423541475,0.0005091104922170254
1326.150656487277,1326.150656487277,0.9998680998811708,0.0005091113050680905
1326.157600947388,1326.157600947388,0.9996146723313751,0.0005090508677541245
1326.1645454075574,1326.1645454075574,1.0006201691420211,0.0005091750220436458
1326.171489867796,1326.171489867796,0.9996525435588814,0.0005090475070613648
1326.1784343280585,1326.1784343280585,1.0007041073424854,0.0005091672178567826
1326.1853787883556,1326.1853787883556,1.0000226585346712,0.0005090978969051007
1326.1923232487457,1326.1923232487457,0.9997906999626333,0.0005090931177924545
1326.1992677091598,1326.1992677091598,1.0002056244160342,0.0005092766645082051
1326.2062121696313,1326.2062121696313,0.9997380756698643,0.0005091819746524316
1326.2131566301268,1326.2131566301268,0.999696960907958,0.0005092359629784455
1326.2201010907033,1326.2201010907033,1.0008917879681785,0.0005093075431450361
1326.2270455513149,1326.2270455513149,0.9996918833559439,0.0005091930471882269
1326.2339900119728,1326.2339900119728,0.9993994965105859,0.0005091629362813483
1326.2409344726889,1326.2409344726889,1.0001376928750711,0.0005092400354512986
1326.2478789334407,1326.2478789334407,1.0002987673037524,0.0005091919674283977
1326.254823394238,1326.254823394238,0.9997632800945929,0.0005091680638815634
1326.2617678550828,1326.2617678550828,1.0000775606596923,0.0005092214651523227
1326.2687123159735,1326.2687123159735,0.9998517313472816,0.0005091526722668495
1326.2756567768993,1326.2756567768993,1.000072166020317,0.0005092249155009428
1326.282601237872,1326.282601237872,0.9995292291553403,0.0005091598531794223
1326.2895456988908,1326.2895456988908,1.0010218276865426,0.0005094034288218848
1326.2964901599448,1326.2964901599448,0.9999850291759362,0.0005092520133710942
1326.303434621045,1326.303434621045,0.9995952277400711,0.0005091976278765468
1326.3103790821806,1326.3103790821806,0.999991172236593,0.0005094188237258311
1326.317323543386,1326.317323543386,0.9993086649977014,0.0005094424849923008
1326.3242680046026,1326.3242680046026,1.000339743108824,0.000509691492062973
1326.3312124658667,1326.3312124658667,1.0000879174563224,0.0005097848561274822
1326.3381569271648,1326.3381569271648,0.9999156619801312,0.0005099797818048821
1326.3456569454356,1326.3456569454356,1.0000452138005413,0.0005102327524740803
1326.3548236344484,1326.3548236344484,1.0012614122031689,0.0005106259936629418
1326.3617680959098,1326.3617680959098,1.0001389873541922,0.0005106306207554681
1326.3687125573713,1326.3687125573713,0.9990439709643244,0.0005106429820196109
1326.3756570188907,1326.3756570188907,1.000147478310499,0.0005110036280487744
1326.3826014804338,1326.3826014804338,0.9996092877926136,0.0005110588296235682
1326.3895459420232,1326.3895459420232,0.9998753058769896,0.0005113980946337827
1326.3964904036475,1326.3964904036475,1.000428102810185,0.0005116856287805515
1326.403434865295,1326.403434865295,0.9994127463054591,0.000511670288275678
1326.4103793270128,1326.4103793270128,1.00003582355417,0.0005119237185644569
1326.4173237887303,1326.4173237887303,0.9996471251105927,0.0005120528882810846
1326.4242682504823,1326.4242682504823,1.000473709362246,0.0005123312217092852
1326.4312127122814,1326.4312127122814,1.000190418553747,0.0005124716528614526
1326.4381571741037,1326.4381571741037,1.0002860025753235,0.0005126575798526432
1326.4451016359726,1326.4451016359726,1.000238819144511,0.0005128554095153715
1326.4520460978763,1326.4520460978763,0.9997333205284888,0.0005129721466935518
1326.4589905598034,1326.4589905598034,1.000396078465766,0.0005132486056954048
1326.465935021765,1326.465935021765,0.9989979502882207,0.0005131540000252305
1326.4728794837506,1326.4728794837506,1.0003972509513759,0.0005135625565852776
1326.4798239457828,1326.4798239457828,1.000030376287176,0.0005136505874445715
1326.486768407849,1326.486768407849,0.9992940081109085,0.0005137178128082952
1326.4937128699278,1326.4937128699278,1.0004711784899607,0.0005141590448048309
1326.5006573320638,1326.5006573320638,0.9993062846995245,0.0005141203296363682
1326.5076017942124,1326.5076017942124,1.0005688932523433,0.0005145034581252659
1326.5145462563837,1326.5145462563837,0.9993199696252516,0.0005146120760399617
1326.5214907185905,1326.5214907185905,0.999549636517763,0.0005148414651698129
1326.5284351808318,1326.5284351808318,1.0010517008433693,0.0005153077059751223
1326.5353796431077,1326.5353796431077,0.9993314307041364,0.0005153221526396791
1326.5423241054075,1326.5423241054075,1.0001976362219103,0.0005156936984688633
1326.5492685677305,1326.5492685677305,0.9994245626156468,0.0005159644482803469
1326.5562130300882,1326.5562130300882,1.0002022320360298,0.0005162058569155182
1326.5631574924573,1326.5631574924573,1.0002929031066743,0.000516381932977849
1326.5701019548735,1326.5701019548735,0.9998518556052378,0.0005164065707310589
1326.5770464173015,1326.5770464173015,1.0002655557258242,0.0005165476797506986
1326.5839908797752,1326.5839908797752,1.0000124351274575,0.0005167824044266695
1326.590935342273,1326.590935342273,1.0004971057443892,0.000517020873110548
1326.597879804782,1326.597879804782,0.9998489004494271,0.0005170617592457342
1326.6048242673262,1326.6048242673262,0.9995995272918824,0.0005170715584567469
1326.6117687299168,1326.6117687299168,0.9994103581077626,0.0005171067540243642
1326.6187131925071,1326.6187131925071,0.9999556146093731,0.000517269753127091
1326.625657655098,1326.625657655098,0.9999695438650082,0.0005173120458707319
1326.632602117758,1326.632602117758,0.9999458902325713,0.0005173601858532923
1326.6395465804187,1326.6395465804187,0.9989627195908645,0.0005172053820700877
1326.646491043114,1326.646491043114,1.0010416199134426,0.0005175438792043153
1326.653435505821,1326.653435505821,1.0009072095934157,0.0005173407603799526
1326.660379968575,1326.660379968575,1.0006914246332523,0.0005173282583255162
1326.66732443134,1326.66732443134,1.0005842255000135,0.0005171919822647415
1326.6742688941288,1326.6742688941288,0.9987907854784834,0.0005167872884715995
1326.6812133569406,1326.6812133569406,0.9993575670107037,0.0005166982951388536
1326.689268933825,1326.689268933825,1.0004309008424126,0.0005167429168055663
1326.69649117521,1326.69649117521,0.9986083846463023,0.0005164174890738539
1326.7034356380916,1326.7034356380916,1.0000493462600777,0.0005164198490712709
1326.7109356580272,1326.7109356580272,0.9998153368327867,0.0005162222496186358
1326.718713456513,1326.718713456513,0.9999270183651114,0.0005161342400568843
1326.7256579194643,1326.7256579194643,1.0001374976571331,0.0005160899039396015
1326.7326023824508,1326.7326023824508,1.0006614944415613,0.00051606547917545
1326.7395468454374,1326.7395468454374,1.0003995041569602,0.0005158754363253275
1326.74649130847,1326.74649130847,0.9995228992294921,0.000515620028217321
1326.7534357714915,1326.7534357714915,1.0006365094820393,0.0005157694828377946
1326.7603802345595,1326.7603802345595,0.9992744413880477,0.0005154175054556858
1326.7673246976271,1326.7673246976271,1.0002494406578193,0.000515679544279797
1326.7742691607302,1326.7742691607302,0.9998802077079858,0.0005155892075790951
1326.7812136238563,1326.7812136238563,0.9999523249882014,0.0005155719626947174
1326.788158086994,1326.788158086994,1.0002697266816543,0.0005156670904426781
1326.7951025501666,1326.7951025501666,0.9997885052255308,0.0005156927429492994
1326.8020470133397,1326.8020470133397,1.000075909762328,0.0005158613347327948
1326.8089914765121,1326.8089914765121,0.9998944041864071,0.0005160066438950048
1326.8159359397428,1326.8159359397428,0.9995960383053266,0.0005159789300773267
1326.8228804029623,1326.8228804029623,1.0003722466230927,0.000516074639117339
1326.829824866228,1326.829824866228,1.000386827199405,0.0005161936703538968
1326.836769329494,1326.836769329494,1.0002590172052948,0.0005161376807054231
1326.8437137927715,1326.8437137927715,0.9993362938129338,0.0005159783292419752
1326.8506582560835,1326.8506582560835,0.9998273121368582,0.0005160930701211034
1326.8576027194076,1326.8576027194076,0.9996310747918453,0.0005160368841152986
1326.8645471827435,1326.8645471827435,0.999875358674965,0.0005158661866764835
1326.871491646091,1326.871491646091,1.0003250395445922,0.000515788664871861
1326.8784361094845,1326.8784361094845,1.0003671027299728,0.0005156763869949134
1326.8853805728672,1326.8853805728672,1.000598813101909,0.000515410773767838
1326.8923250362723,1326.8923250362723,0.9995885174925601,0.0005150855794963545
1326.8992694996896,1326.8992694996896,1.0000172148483117,0.0005148701909705435
1326.9062139631417,1326.9062139631417,0.9997231851069323,0.0005144363300402636
1326.9131584266056,1326.9131584266056,1.000142134889714,0.0005141501027753399
1326.920102890069,1326.920102890069,0.9999493360977011,0.0005138624639650537
1326.9270473535446,1326.9270473535446,1.0000291293126873,0.0005135709043276448
1326.933991817055,1326.933991817055,0.9993657751162084,0.0005131641492266733
1326.9409362805648,1326.9409362805648,1.0005184247519647,0.0005131073910827979
1326.9478807441103,1326.9478807441103,1.0007874990117598,0.0005127475769841236
1326.9548252076554,1326.9548252076554,1.0003448636339751,0.0005123940353358535
1326.9617696712241,1326.9617696712241,0.9998506528665626,0.0005120975290724735
1326.9687141347927,1326.9687141347927,0.9998626980630538,0.0005118815303031441
1326.9756585983723,1326.9756585983723,0.999659637828086,0.0005116522752352532
1326.982603061988,1326.982603061988,0.9999469918085298,0.0005115450733037361
1326.9895475256144,1326.9895475256144,1.0005052123219957,0.000511454245351247
1326.9964919892413,1326.9964919892413,0.9995542444853338,0.0005113191879822454
1327.003436452891,1327.003436452891,0.9999985147366847,0.0005113195099139888
1327.0103809165528,1327.0103809165528,1.000579833973012,0.0005112012910104363
1327.017325380226,1327.017325380226,1.0004458588230265,0.0005113082079098287
1327.0242698439226,1327.0242698439226,0.9994111498626571,0.0005110701640184675
1327.0312143076194,1327.0312143076194,0.9996566254894841,0.000511195468961309
1327.0381587713387,1327.0381587713387,0.9999838176881536,0.0005112884088493435
1327.0451032350707,1327.0451032350707,0.9998562382614271,0.0005113464507559368
1327.0520476987901,1327.0520476987901,1.000495604941418,0.0005116294273228292
1327.059825498196,1327.059825498196,0.9997750690993034,0.0005115614166530827
1327.0673255190857,1327.0673255190857,1.0000025679002011,0.0005116236949728163
1327.0742699828638,1327.0742699828638,1.0006779326115738,0.0005119124874375011
