time,time,flux,flux_err
1325.2994107171178,1325.2994107171178,0.9999954715441178,8.321584998019415e-05
1325.3077439931437,1325.3077439931437,0.9999502628138665,8.321599084448453e-05
1325.3160772694323,1325.3160772694323,1.0001092400221816,8.321525135319976e-05
1325.3237161062675,1325.3237161062675,0.9999445434507013,7.595528192285763e-05
1325.330660503581,1325.330660503581,0.9998701480032505,7.594968635039826e-05
1325.3376049010812,1325.3376049010812,0.9997679024381763,7.594618186767025e-05
1325.344549298756,1325.344549298756,1.000139132766743,7.59578584912016e-05
1325.3514936966196,1325.3514936966196,1.0000958099699915,7.595613484591555e-05
1325.3584380946518,1325.3584380946518,0.9999654754088881,7.595467126357363e-05
1325.3653824928592,1325.3653824928592,1.0001398808790398,7.596405289490933e-05
1325.3723268912465,1325.3723268912465,0.9999827503204637,7.595915748128083e-05
1325.3792712898,1325.3792712898,1.0000430058227008,7.596358863464652e-05
1325.3862156885282,1325.3862156885282,1.0000543229563301,7.59694845239478e-05
1325.3931600874248,1325.3931600874248,1.0000199420432114,7.597540104331832e-05
1325.4001044864904,1325.4001044864904,0.9998783415033727,7.59726803210321e-05
1325.4070488857221,1325.4070488857221,1.0000408987169134,7.598179331393611e-05
1325.4139932851194,1325.4139932851194,0.9999428606375107,7.598280805854821e-05
1325.42093768468,1325.42093768468,1.0000280216113013,7.599147410292147e-05
1325.4278820843974,1325.4278820843974,0.9999250609501111,7.599194533771181e-05
1325.4348264842808,1325.4348264842808,0.9999897060686844,7.599953159295688e-05
1325.4417708843246,1325.4417708843246,0.9999830828392204,7.59990670086126e-05
1325.4487152845225,1325.4487152845225,1.0000951441409547,7.600835333194478e-05
1325.4556596848774,1325.4556596848774,1.0000480595615753,7.601107713412086e-05
1325.4626040853864,1325.4626040853864,0.9999784361928983,7.601013964356932e-05
1325.4695484860529,1325.4695484860529,1.0000660247772093,7.601801035347566e-05
1325.476492886865,1325.476492886865,0.9999790325658493,7.601684076464268e-05
1325.4834372878279,1325.4834372878279,0.9999981890937721,7.602300083837324e-05
1325.4903816889425,1325.4903816889425,0.9998899691500209,7.602314463253147e-05
1325.497326090203,1325.497326090203,1.0001209680212495,7.603570185913517e-05
1325.5042704916114,1325.5042704916114,1.0000243511000788,7.603427003505875e-05
1325.5112148931598,1325.5112148931598,0.9998417657427007,7.603230074366301e-05
1325.5181592948502,1325.5181592948502,1.0000162979270386,7.604390104120469e-05
1325.5251036966868,1325.5251036966868,0.999982892165271,7.604775385079097e-05
1325.5320480986654,1325.5320480986654,1.0002573678822493,7.606322441253912e-05
1325.5389925007782,1325.5389925007782,0.9999352623352771,7.605365335894458e-05
1325.5459369030282,1325.5459369030282,1.0000585204034822,7.606254518145031e-05
1325.5528813054173,1325.5528813054173,0.999998188719905,7.606516029902777e-05
1325.5598257079378,1325.5598257079378,0.9999038319353092,7.606476109656004e-05
1325.5667701105976,1325.5667701105976,1.0000303567059254,7.607392802151882e-05
1325.5737145133828,1325.5737145133828,0.9999447674862163,7.607705104694729e-05
1325.5806589162962,1325.5806589162962,0.9999687392335195,7.608101750364638e-05
1325.5876033193429,1325.5876033193429,1.0000875657036083,7.608666791641306e-05
1325.594547722521,1325.594547722521,1.0001046268226046,7.609175850206265e-05
1325.6014921258213,1325.6014921258213,0.9997707076257513,7.6080755348486e-05
1325.6084365292497,1325.6084365292497,0.9999311626529099,7.608912482437335e-05
1325.6153809328005,1325.6153809328005,1.0001235689069603,7.60979386348145e-05
1325.622325336473,1325.622325336473,1.0000627128899873,7.609605163150124e-05
1325.6292697402682,1325.6292697402682,1.0000338347529563,7.609540378700918e-05
1325.6362141441855,1325.6362141441855,1.0000035020183076,7.609686410874255e-05
1325.643158548219,1325.643158548219,1.0001339360054349,7.610485981689177e-05
1325.650102952372,1325.650102952372,0.9998997325272538,7.609730585666016e-05
1325.6570473566385,1325.6570473566385,0.9998199519920397,7.60979066514412e-05
1325.6639917610303,1325.6639917610303,1.0000557589525332,7.610505702834322e-05
1325.6709361655235,1325.6709361655235,1.000029094833987,7.610446958011377e-05
1325.6778805701365,1325.6778805701365,1.0000780186389462,7.61047673684794e-05
1325.6848249748573,1325.6848249748573,1.0001573848683514,7.61109862258673e-05
1325.6917693796943,1325.6917693796943,1.0000435153189906,7.611218749479968e-05
1325.6987137846388,1325.6987137846388,0.9999617982011257,7.610998156035836e-05
1325.7056581896884,1325.7056581896884,1.0000034086482201,7.611490584717134e-05
1325.712602594845,1325.712602594845,1.000086701869329,7.612164193696158e-05
1325.7195470001102,1325.7195470001102,0.9999377026466518,7.611790967468319e-05
1325.7264914054826,1325.7264914054826,1.0000625613336789,7.612611927709272e-05
1325.7334358109567,1325.7334358109567,0.9999167243409623,7.61235182122538e-05
1325.7403802165304,1325.7403802165304,0.9999879884374863,7.612688658105915e-05
1325.747324622205,1325.747324622205,0.9999918357617069,7.613154412110355e-05
1325.7542690279822,1325.7542690279822,0.9999890125467111,7.613566038062414e-05
1325.7612134338613,1325.7612134338613,0.9999843395881095,7.613944046215686e-05
1325.7681578398362,1325.7681578398362,1.0000142062811277,7.614363614827159e-05
1325.7751022459129,1325.7751022459129,1.000038258141497,7.61472345479104e-05
1325.7820466520857,1325.7820466520857,1.0000846452623224,7.61550212454475e-05
1325.788991058349,1325.788991058349,0.9999446372966643,7.615291960826344e-05
1325.7959354647078,1325.7959354647078,0.9999907629991913,7.615720267476176e-05
1325.802879871157,1325.802879871157,0.9998384349016108,7.61517090309292e-05
1325.8098242777028,1325.8098242777028,1.0001431274657622,7.616668491829404e-05
1325.816768684341,1325.816768684341,1.0001092527100532,7.616552064226311e-05
1325.8237130910697,1325.8237130910697,0.9999667686350578,7.616263289452862e-05
1325.8306574978828,1325.8306574978828,0.9999156343503028,7.616264057420817e-05
1325.837601904786,1325.837601904786,0.9999615838928262,7.616493573101669e-05
1325.8445463117798,1325.8445463117798,0.999955945349323,7.616485503614894e-05
1325.8514907188571,1325.8514907188571,0.9998784074608927,7.61591201158374e-05
1325.858435126026,1325.858435126026,1.0001401517982431,7.617025811713053e-05
1325.8653795332725,1325.8653795332725,1.0001113554524674,7.616950409476297e-05
1325.8723239406067,1325.8723239406067,1.0000346509057774,7.616636453517477e-05
1325.8792683480222,1325.8792683480222,1.0000759206968042,7.616450067871142e-05
1325.8862127555192,1325.8862127555192,0.9999342470300384,7.61561756340023e-05
1325.8931571630978,1325.8931571630978,0.9999621880892311,7.616008863523251e-05
1325.900101570758,1325.900101570758,0.9999893550491347,7.615757828619867e-05
1325.9070459784964,1325.9070459784964,0.9999176038885647,7.615420444829053e-05
1325.9139903863106,1325.9139903863106,1.0000026102395327,7.615374660922491e-05
1325.920934794212,1325.920934794212,1.00004063994906,7.615830501739395e-05
1325.927879202184,1325.927879202184,0.999937149750715,7.615557191405937e-05
1325.9348236102308,1325.9348236102308,0.9999975437857671,7.615607614288206e-05
1325.9417680183565,1325.9417680183565,1.0000198618870095,7.615541375313813e-05
1325.948712426555,1325.948712426555,1.0001157352910763,7.616028743731321e-05
1325.9556568348232,1325.9556568348232,0.9999515395769837,7.615314536490504e-05
1325.9634345721765,1325.9634345721765,0.9999647138745464,7.615410287194679e-05
1325.9709345332783,1325.9709345332783,0.9998826594759814,7.614737864619602e-05
1325.9778789417855,1325.9778789417855,1.0001157803891156,7.61582671186037e-05
1325.9848233503562,1325.9848233503562,0.9999473552254677,7.615475473694124e-05
1325.991767758997,1325.991767758997,0.9999791378421652,7.615251130434851e-05
1325.9987121677107,1325.9987121677107,0.999998307420243,7.615649344256659e-05
1326.0056565764883,1326.0056565764883,1.000118497291014,7.616333896718141e-05
1326.0126009853388,1326.0126009853388,1.00009026875963,7.616652868398119e-05
1326.0195453942501,1326.0195453942501,0.9999781359584782,7.616032109986498e-05
1326.026489803232,1326.026489803232,0.9999699341483753,7.616593460243594e-05
1326.0334342122771,1326.0334342122771,0.9998224246751987,7.616208173241801e-05
1326.040378621386,1326.040378621386,1.0000148315451658,7.6169104073393e-05
1326.047323030557,1326.047323030557,1.0001922729109534,7.61767642056031e-05
1326.054267439797,1326.054267439797,1.0000111709540151,7.617365556554444e-05
1326.0612118490958,1326.0612118490958,0.9999541202513924,7.617259845656154e-05
1326.0681562584584,1326.0681562584584,0.9999664593180821,7.617576392493634e-05
1326.0751006678788,1326.0751006678788,0.9999484779074471,7.617584017800571e-05
1326.0820450773672,1326.0820450773672,1.0000447619187134,7.617970594163717e-05
1326.0889894869101,1326.0889894869101,0.999997721931733,7.617959328415556e-05
1326.0959338965115,1326.0959338965115,1.0000143332927314,7.618241819725125e-05
1326.102878306171,1326.102878306171,0.9998944340875979,7.617844475791833e-05
1326.109822715897,1326.109822715897,1.000025554101439,7.618484613463946e-05
1326.11676712567,1326.11676712567,1.0000171457392268,7.6184949060225e-05
1326.1237115355038,1326.1237115355038,1.0001180496511508,7.618692213346374e-05
1326.1306559453938,1326.1306559453938,0.9998615951514813,7.617768098906494e-05
1326.137600355341,1326.137600355341,1.000022346252241,7.618223911814454e-05
1326.1445447653384,1326.1445447653384,1.000015156117826,7.618456095805177e-05
1326.1514891753964,1326.1514891753964,0.9999859889772992,7.618289617195919e-05
1326.1584335855039,1326.1584335855039,1.000056174401396,7.618476286826208e-05
1326.1653779956673,1326.1653779956673,1.0000567585908189,7.618598433828245e-05
1326.1723224058821,1326.1723224058821,1.0000025753145956,7.618119789214609e-05
1326.1792668161474,1326.1792668161474,0.9998759562077391,7.61751940920459e-05
1326.1862112264646,1326.1862112264646,0.9998974290974958,7.617802937588092e-05
1326.1931556368368,1326.1931556368368,0.9999673877776154,7.617795341960047e-05
1326.2001000472562,1326.2001000472562,1.0002011490653342,7.619076395647755e-05
1326.2070444577273,1326.2070444577273,1.0000524187035142,7.618135771534657e-05
1326.213988868246,1326.213988868246,1.0000027426244995,7.61806109166192e-05
1326.2209332788161,1326.2209332788161,0.9999927028869104,7.618097347438806e-05
1326.22787768943,1326.22787768943,1.0000177316796295,7.618040884074047e-05
1326.2348221000964,1326.2348221000964,0.9999645508186499,7.61797254698489e-05
1326.2417665108032,1326.2417665108032,0.9998016109350942,7.617228380222462e-05
1326.2487109215692,1326.2487109215692,0.9998434416702903,7.616975612751288e-05
1326.255655332369,1326.255655332369,1.0001424885967962,7.618491846100815e-05
1326.2625997432194,1326.2625997432194,1.0001391633776566,7.618361783254234e-05
1326.2695441541186,1326.2695441541186,1.0000319679759113,7.617793534642153e-05
1326.2764885650583,1326.2764885650583,0.9999550354473655,7.617476460599602e-05
1326.2834329760394,1326.2834329760394,1.0001689571127197,7.618391032072781e-05
1326.2903773870726,1326.2903773870726,0.99988764467638,7.617284153698814e-05
1326.2973217981405,1326.2973217981405,1.000051425977523,7.617815307577996e-05
1326.304266209258,1326.304266209258,0.9998748257246776,7.61728355252515e-05
1326.3112106204167,1326.3112106204167,1.0000451190754607,7.618115256727773e-05
1326.3181550316156,1326.3181550316156,0.9999167208732815,7.617831947058492e-05
1326.325099442858,1326.325099442858,1.0000123653960595,7.618308883988312e-05
1326.3320438541418,1326.3320438541418,1.0000319570495158,7.618425565662518e-05
1326.338988265463,1326.338988265463,1.000174122318516,7.619094357551114e-05
1326.3464882297376,1326.3464882297376,0.9999000584224944,7.618184762868795e-05
1326.355654852807,1326.355654852807,1.0000042209814308,7.618889283974224e-05
1326.3625992642592,1326.3625992642592,0.9998981134623302,7.618643585701565e-05
1326.3695436757612,1326.3695436757612,0.9997947714216979,7.617979022080278e-05
1326.3764880872918,1326.3764880872918,1.0001182137940587,7.61965098941281e-05
1326.3834324988634,1326.3834324988634,1.0000354182622482,7.619510230449315e-05
1326.390376910473,1326.390376910473,1.0000110185262208,7.619447831390092e-05
1326.3973213221202,1326.3973213221202,0.9999997502687128,7.619525641134615e-05
1326.4042657338052,1326.4042657338052,0.9999120244880855,7.619236596460541e-05
1326.4112101455255,1326.4112101455255,1.0000628481819231,7.620281122327782e-05
1326.4181545572833,1326.4181545572833,1.0000027190427794,7.619937434702483e-05
1326.425098969076,1326.425098969076,0.9999354587373604,7.619544678851e-05
1326.4320433809066,1326.4320433809066,0.9999679323820322,7.619920139746e-05
1326.438987792772,1326.438987792772,1.0000648636480247,7.620233270143899e-05
1326.445932204661,1326.445932204661,0.9999928331068488,7.620141486382698e-05
1326.452876616599,1326.452876616599,0.9999513937428492,7.620032791213982e-05
1326.4598210285608,1326.4598210285608,0.9999987710661019,7.620366433604648e-05
1326.4667654405573,1326.4667654405573,1.0000509916408282,7.620606306721553e-05
1326.4737098525857,1326.4737098525857,1.0000357987484123,7.620377444075038e-05
1326.4806542646493,1326.4806542646493,0.9999782848876834,7.620468567662186e-05
1326.4875986767445,1326.4875986767445,1.0000150129787362,7.6205191840762e-05
1326.4945430888722,1326.4945430888722,0.9999678395730571,7.620311066087435e-05
1326.5014875010343,1326.5014875010343,0.999900563082962,7.620071136153181e-05
1326.5084319132204,1326.5084319132204,1.0001569691598704,7.621091157743546e-05
1326.5153763254436,1326.5153763254436,0.9999894475224315,7.620578982051055e-05
1326.5223207376905,1326.5223207376905,0.9999062551579506,7.620275991701103e-05
1326.5292651499753,1326.5292651499753,1.0000427832029741,7.621275785839958e-05
1326.5362095622859,1326.5362095622859,1.0000813328176708,7.621255048622882e-05
1326.5431539746262,1326.5431539746262,0.9999562398223238,7.621120389306827e-05
1326.5500983869981,1326.5500983869981,0.9999888392783239,7.621480782369188e-05
1326.557042799396,1326.557042799396,1.0000305365450444,7.621839821181794e-05
1326.5639872118204,1326.5639872118204,1.00004519145666,7.621694195313232e-05
1326.5709316242767,1326.5709316242767,0.9998990649724069,7.621186877837459e-05
1326.5778760367593,1326.5778760367593,1.0000183627620427,7.62167390208995e-05
1326.5848204492709,1326.5848204492709,0.9999679490233448,7.62146112105107e-05
1326.591764861809,1326.591764861809,0.9998765545865688,7.621201710869817e-05
1326.5987092743756,1326.5987092743756,1.0002306046909601,7.622805984080058e-05
1326.605653686963,1326.605653686963,0.9999395460647224,7.6214475442629e-05
1326.6125980995882,1326.6125980995882,1.000011971602505,7.622125932073112e-05
1326.6195425122307,1326.6195425122307,0.9999813626380805,7.622245530397328e-05
1326.6264869248969,1326.6264869248969,1.0000271146899768,7.622231019859887e-05
1326.6334313375974,1326.6334313375974,0.9999703698810846,7.621958496584735e-05
1326.640375750316,1326.640375750316,0.9998213148772296,7.621655724841044e-05
1326.6473201630602,1326.6473201630602,1.000242928501438,7.623067362900241e-05
1326.6542645758338,1326.6542645758338,0.9999339801069123,7.621968389092982e-05
1326.661208988628,1326.661208988628,0.999879859516116,7.621474070859902e-05
1326.668153401445,1326.668153401445,1.0000446287471005,7.621857837067033e-05
1326.6750978142886,1326.6750978142886,1.000135840431404,7.622132914876215e-05
1326.6820422271553,1326.6820422271553,0.999914429066925,7.620843390584444e-05
1326.6900977461087,1326.6900977461087,1.0002104006228065,7.621997929848952e-05
1326.6973199355434,1326.6973199355434,0.999913262759949,7.6207569705518e-05
1326.7042643484858,1326.7042643484858,0.9998866303094536,7.620184937404205e-05
1326.7117643144893,1326.7117643144893,0.9998815070346145,7.619956595763154e-05
1326.7195420570315,1326.7195420570315,1.00001423495916,7.620447002553614e-05
1326.7264864700437,1326.7264864700437,1.0000568164324137,7.619872301953322e-05
1326.7334308830732,1326.7334308830732,0.9999778262070323,7.619791732605115e-05
1326.7403752961293,1326.7403752961293,1.0000079870400485,7.619266951983255e-05
1326.7473197092054,1326.7473197092054,1.0000381695835834,7.619267334966583e-05
1326.754264122299,1326.754264122299,0.9999261900594604,7.619332601938802e-05
1326.7612085354162,1326.7612085354162,1.000121515639934,7.619508909997472e-05
1326.7681529485533,1326.7681529485533,1.000190770138758,7.619663850741114e-05
1326.775097361714,1326.775097361714,0.9999689837078529,7.618662591715076e-05
1326.7820417748953,1326.7820417748953,0.9999515199477347,7.618848505284366e-05
1326.7889861880878,1326.7889861880878,0.9998666936711246,7.618534820424247e-05
1326.795930601304,1326.795930601304,1.000126787814279,7.619706262206449e-05
1326.8028750145404,1326.8028750145404,0.9999475960910079,7.619108180938377e-05
1326.8098194277914,1326.8098194277914,0.9999178179988248,7.618920960080168e-05
1326.8167638410678,1326.8167638410678,0.9998121982390105,7.618875282732707e-05
1326.8237082543626,1326.8237082543626,1.0000315430680478,7.619355526191476e-05
1326.8306526676718,1326.8306526676718,1.00012456382951,7.61996188467142e-05
1326.8375970810014,1326.8375970810014,0.999985694970581,7.619335591676648e-05
1326.844541494348,1326.844541494348,1.0001122578269914,7.619644789476286e-05
1326.8514859077125,1326.8514859077125,0.9999198093251328,7.618945446795513e-05
1326.8584303210941,1326.8584303210941,1.0000002509759855,7.6192584517938e-05
1326.865374734491,1326.865374734491,1.0000912328795608,7.619420109149962e-05
1326.8723191479107,1326.8723191479107,0.9999310225703134,7.61886058614932e-05
1326.8792635613418,1326.8792635613418,1.0000287903643545,7.618968769354153e-05
1326.8862079747967,1326.8862079747967,1.0001204697145742,7.619124324208219e-05
1326.8931523882566,1326.8931523882566,0.9999957680779256,7.618750354209777e-05
1326.9000968017438,1326.9000968017438,1.0000345620966482,7.618287692161113e-05
1326.9070412152419,1326.9070412152419,0.9999076160900355,7.617444060835959e-05
1326.9139856287547,1326.9139856287547,0.9998810775970144,7.616999511307526e-05
1326.9209300422876,1326.9209300422876,0.9997524175573534,7.616122339175008e-05
1326.9278744558355,1326.9278744558355,1.0000512883435047,7.61737797614469e-05
1326.9348188693923,1326.9348188693923,1.0001359115304784,7.617412401257453e-05
1326.9417632829686,1326.9417632829686,1.0000539001447442,7.616770656235052e-05
1326.9487076965602,1326.9487076965602,1.0000846832238082,7.616771878002178e-05
1326.955652110169,1326.955652110169,1.0000026109843423,7.61640726847687e-05
1326.9625965237929,1326.9625965237929,1.0000545081306234,7.616320703456585e-05
1326.9695409374222,1326.9695409374222,1.0000481421453138,7.615955493797626e-05
1326.976485351071,1326.976485351071,1.0000686133872736,7.615783364077973e-05
1326.9834297647358,1326.9834297647358,0.999882027070609,7.61466130241688e-05
1326.9903741784115,1326.9903741784115,0.999829576368645,7.614569605653909e-05
1326.9973185920994,1326.9973185920994,0.9999209037138674,7.61457615019467e-05
1327.0042630058067,1327.0042630058067,1.000066483000001,7.615540913273159e-05
1327.0112074195233,1327.0112074195233,1.0000971847800113,7.615263957308827e-05
1327.0181518332513,1327.0181518332513,0.9999343994307395,7.614850627334711e-05
1327.025096246994,1327.025096246994,0.9999333021013378,7.614495311673305e-05
1327.0320406607545,1327.0320406607545,1.000185117200934,7.615765781955865e-05
1327.038985074523,1327.038985074523,0.9999541915675222,7.614692149184724e-05
1327.0459294883012,1327.0459294883012,0.9999689295289379,7.61477544896719e-05
1327.052873902096,1327.052873902096,1.0001156376661728,7.615169037194979e-05
1327.0606516455582,1327.0606516455582,0.9999493051236319,7.614437185894665e-05
1327.0681516124837,1327.0681516124837,0.9998728455933377,7.61443043741521e-05
1327.075096026311,1327.075096026311,1.0000095024260758,7.615288958132341e-05
