time,time,flux,flux_err
1410.909791486074,1410.909791486074,0.9996570694975634,0.00039632495917654053
1410.9174304311832,1410.9174304311832,0.9998953068592058,0.00036185492030972377
1410.9243749266866,1410.9243749266866,1.0001585826452684,0.0003618710842588473
1410.931319422096,1410.931319422096,1.0000961504092647,0.0003618213550811749
1410.9382639174596,1410.9382639174596,0.9997670109971286,0.0003617728700032524
1410.9452084126365,1410.9452084126365,0.9995880783024151,0.0003617512549627031
1410.952152907767,1410.952152907767,1.0006940462999367,0.00036185331689629906
1410.959097402898,1410.959097402898,1.0006964053806102,0.00036191184919808275
1410.9674307969142,1410.9674307969142,0.9998715373342387,0.0003617547658805599
1410.9835420249651,1410.9835420249651,0.9996677015397258,0.00036164986986297854
1410.9910420792407,1410.9910420792407,1.0004119131268152,0.00036176061765795807
1411.0007643716315,1411.0007643716315,0.9999171623670732,0.00036155099060056857
1411.010486663883,1411.010486663883,1.0005831622189139,0.0003617911402720096
1411.0174311582218,1411.0174311582218,1.0005682684187385,0.0003618159241758531
1411.0243756525142,1411.0243756525142,1.000252908680897,0.0003617438855725928
1411.0313201466672,1411.0313201466672,0.9998338279943033,0.00036168429776473065
1411.038264640819,1411.038264640819,1.0001227605853842,0.00036171649337841065
1411.0452091348327,1411.0452091348327,0.999718540184445,0.00036167618800092663
1411.053264747647,1411.053264747647,0.9996280607843484,0.0003616801407157513
1411.0604870212326,1411.0604870212326,0.9999513187449534,0.00036169216518268973
1411.0674315149195,1411.0674315149195,0.9999092585589192,0.0003616922258047855
1411.0743760085593,1411.0743760085593,0.999950025719077,0.0003617528212163642
1411.081320502014,1411.081320502014,1.0001583784514478,0.00036174081882525813
1411.0882649954679,1411.0882649954679,1.0003991752775314,0.00036177136148569705
1411.095209488782,1411.095209488782,1.0004994064117756,0.00036184783506898195
1411.1021539820035,1411.1021539820035,1.0001509511343982,0.0003617917132232525
1411.109098475178,1411.109098475178,0.9999011945397266,0.00036168572853907563
1411.1160429681672,1411.1160429681672,0.9999801092250047,0.0003617087275217059
1411.1229874611552,1411.1229874611552,0.9997817769465766,0.0003616810916521856
1411.1299319540042,1411.1299319540042,0.9996086054473251,0.0003615889703323006
1411.1368764467597,1411.1368764467597,1.000022005087104,0.00036169288809807706
1411.1438209393755,1411.1438209393755,1.0000997225868664,0.000361686793641581
1411.150765431899,1411.150765431899,0.9998523159088923,0.000361666780763201
1411.1577099243746,1411.1577099243746,0.999798382660807,0.00036165744700221675
1411.1646544167113,1411.1646544167113,1.0008081996164628,0.00036178392222627534
1411.1715989090012,1411.1715989090012,1.0004295322158907,0.0003617191232448157
1411.178543401151,1411.178543401151,0.9997147252062113,0.0003616222426693782
1411.1854878932559,1411.1854878932559,0.9997246872648862,0.0003616116605880928
1411.1924323851724,1411.1924323851724,1.0000484396422018,0.00036167803396320843
1411.1993768770433,1411.1993768770433,0.9995070286838192,0.0003616240784682063
1411.2063213687748,1411.2063213687748,1.0003209717254495,0.0003617350431360348
1411.2132658604125,1411.2132658604125,0.9996923399492321,0.0003616483242204532
1411.220210352051,1411.220210352051,1.000445640698271,0.00036176353728610273
1411.2271548434558,1411.2271548434558,1.0006063911613716,0.00036176817284805856
1411.2340993348146,1411.2340993348146,1.00014215948417,0.00036170419759813855
1411.2410438260802,1411.2410438260802,0.9998743081207735,0.00036170060297268405
1411.247988317252,1411.247988317252,0.9999105249722569,0.0003617438828700993
1411.2549328083321,1411.2549328083321,0.9999547852920049,0.00036171647401016596
1411.2618772992246,1411.2618772992246,1.0002619504581145,0.0003617751232584645
1411.268821790118,1411.268821790118,0.9999224607097765,0.0003617438243174979
1411.2757662808713,1411.2757662808713,0.9996761595810147,0.0003616635120944827
1411.2827107714377,1411.2827107714377,1.000038932380529,0.00036170158539313146
1411.2896552621448,1411.2896552621448,1.0001261332026794,0.0003616997266668959
1411.2965997524786,1411.2965997524786,1.0000111675396268,0.0003617995924067072
1411.3035442428597,1411.3035442428597,1.0004905798972836,0.0003617809376259374
1411.3104887330542,1411.3104887330542,0.9997549118954282,0.0003617165106006095
1411.317433223202,1411.317433223202,1.0001870234125818,0.00036177573641647137
1411.3243777132107,1411.3243777132107,1.0001723925817867,0.0003617829934380334
1411.331322203172,1411.331322203172,1.000658443407118,0.00036184578011724236
1411.3382666929476,1411.3382666929476,1.0000927685103636,0.00036170590085378527
1411.3452111826762,1411.3452111826762,1.000133365217767,0.0003617481942436576
1411.3521556723122,1411.3521556723122,0.9999644246136468,0.00036171288828128087
1411.3591001617615,1411.3591001617615,0.9997944772823015,0.00036171678479868935
1411.3660446513036,1411.3660446513036,1.0005896430655679,0.00036179045347211654
1411.3729891405676,1411.3729891405676,1.0000784689888158,0.0003617224755493504
1411.3799336296902,1411.3799336296902,0.9994953624605104,0.0003616691969791909
1411.3868781188141,1411.3868781188141,1.0005765417240133,0.0003617856318386384
1411.3938226077516,1411.3938226077516,0.9999485723536876,0.0003616844213144356
1411.4007670966882,1411.4007670966882,0.9994069278477642,0.00036159367891760975
1411.4077115854864,1411.4077115854864,1.0001636976147246,0.00036163967938075627
1411.4146560741437,1411.4146560741437,1.0004094042793636,0.0003617293431928018
1411.4216005626622,1411.4216005626622,0.9995901878406563,0.00036157888333235137
1411.4285450511802,1411.4285450511802,1.0002151870379012,0.0003617502943337403
1411.4354895395113,1411.4354895395113,0.999966639976736,0.00036167180639666704
1411.4424340278442,1411.4424340278442,1.000284182370206,0.00036165982595412314
1411.449378515989,1411.449378515989,1.0001644640815115,0.00036161118563578763
1411.4563230039487,1411.4563230039487,1.000109616204366,0.0003616442776699378
1411.4632674919083,1411.4632674919083,0.9996225561058536,0.00036163167456660186
1411.4702119797741,1411.4702119797741,1.0002417767484808,0.0003616375912118455
1411.4771564675011,1411.4771564675011,1.000470373443642,0.00036172378387528753
1411.4841009550876,1411.4841009550876,0.9999046338639855,0.0003616366117842375
1411.491045442628,1411.491045442628,1.0003482297989148,0.00036180910283781123
1411.4979899300283,1411.4979899300283,1.0002990244368342,0.00036186803776758924
1411.504934417382,1411.504934417382,1.00016689312177,0.0003617999259672536
1411.5118789045505,1411.5118789045505,1.000300299037718,0.0003618471697300331
1411.518823391671,1411.518823391671,0.9997996135955344,0.00036181125432600006
1411.5257678786527,1411.5257678786527,0.9995999629507996,0.00036182255525167475
1411.5327123655875,1411.5327123655875,0.9989196400712095,0.0003617481944539262
1411.5396568523358,1411.5396568523358,1.0000622064557987,0.000361842921461509
1411.5466013389919,1411.5466013389919,0.9991833901194568,0.0003617193383030875
1411.5535458255538,1411.5535458255538,1.0000407317200708,0.0003618880303640659
1411.56049031207,1411.56049031207,1.0002575645017386,0.00036192130118064056
1411.5674347983993,1411.5674347983993,1.00014845185399,0.0003618265904129303
1411.5743792846358,1411.5743792846358,1.0003199142480983,0.000361892561996582
1411.5813237708257,1411.5813237708257,1.0003711740186518,0.0003617940857269152
1411.588268256829,1411.588268256829,0.9999388963238331,0.00036179152302547913
1411.5952127428795,1411.5952127428795,1.0000982595465402,0.0003617752123959721
1411.6021572286961,1411.6021572286961,1.000317799407662,0.00036182845103587674
1411.6091017143744,1411.6091017143744,0.9996359196768287,0.000361733380081199
1411.616046200005,1411.616046200005,0.9999366223977246,0.00036180447217180054
1411.6229906855426,1411.6229906855426,1.0001813568129891,0.00036188288689293984
1411.6299351709417,1411.6299351709417,1.0000535343886647,0.00036186138486653436
1411.6368796561997,1411.6368796561997,0.9998985005458436,0.00036186022196065714
1411.6438241414585,1411.6438241414585,0.9998222287337126,0.00036179058216479637
1411.6507686265304,1411.6507686265304,1.0000674727613346,0.00036186043088368874
1411.657713111556,1411.657713111556,0.999632710856212,0.00036176839797533525
1411.6646575963957,1411.6646575963957,0.999583481442223,0.0003617442903990238
1411.6716020812812,1411.6716020812812,0.9999654300988133,0.0003617777272885086
1411.6785465659348,1411.6785465659348,0.9998697863987467,0.000361701574740446
1411.6854910504946,1411.6854910504946,0.9995547057541373,0.0003616651433457692
1411.6924355349615,1411.6924355349615,1.0007804659496389,0.00036182951362001743
1411.6993800193354,1411.6993800193354,1.0002042351196914,0.00036179477067967326
1411.706324503569,1411.706324503569,1.0001159723930015,0.00036177362126655363
1411.7132689877571,1411.7132689877571,0.9999865968985266,0.0003617501242157347
1411.7202134718045,1411.7202134718045,1.0000769310377926,0.0003618094782042042
1411.7271579557128,1411.7271579557128,0.9997496195031573,0.0003617610238943698
1411.7341024395741,1411.7341024395741,1.0005069516238232,0.00036184192193085746
1411.7410469233425,1411.7410469233425,0.9991327022310188,0.0003616785451688731
1411.7479914068783,1411.7479914068783,0.9995301236472208,0.00036175401742027816
1411.7549358903668,1411.7549358903668,0.99957790857438,0.00036179715780276523
1411.7618803738565,1411.7618803738565,1.0004164599167178,0.0003619300582057759
1411.768824857252,1411.768824857252,1.0001988010042229,0.00036188861232639845
1411.7757693404617,1411.7757693404617,1.000242424903916,0.0003619029007661108
1411.7827138235316,1411.7827138235316,1.0001837892078544,0.00036189838222003696
1411.789658306601,1411.789658306601,1.0000189473051229,0.00036179279706497196
1411.7966027894854,1411.7966027894854,1.000359891069813,0.00036191319624119094
1411.8035472722752,1411.8035472722752,0.9993053310304069,0.0003617294181158395
1411.8104917549729,1411.8104917549729,1.0000422035293814,0.00036183312806593296
1411.817436237577,1411.817436237577,1.000064558700409,0.00036178819912423006
1411.824380720088,1411.824380720088,0.9998775285587949,0.00036182876671137426
1411.8313252024602,1411.8313252024602,0.9998248195161361,0.00036183145686821824
1411.8382696847843,1411.8382696847843,1.0004603658384899,0.0003618985475968457
1411.845214166877,1411.845214166877,1.0002187072056126,0.00036183930214044887
1411.852158649015,1411.852158649015,1.0001490018290444,0.00036185805585174223
1411.8591031309672,1411.8591031309672,0.9994999255351221,0.00036171684151424494
1411.8660476128266,1411.8660476128266,1.0001520595809361,0.0003618615936519851
1411.8729920945923,1411.8729920945923,0.9997711569961745,0.0003617900294854104
1411.8799365762657,1411.8799365762657,1.0000692317716116,0.00036175123218303495
1411.8868810577983,1411.8868810577983,0.9997019369833954,0.0003617814385243779
1411.8938255392857,1411.8938255392857,0.999977332796173,0.0003618507448120205
1411.9007700205857,1411.9007700205857,1.0006230259483389,0.0003619067680936497
1411.907714501933,1411.907714501933,1.0000070580271327,0.00036180989250591053
1411.914658983047,1411.914658983047,0.9997749032374346,0.00036184455331798903
1411.9216034640676,1411.9216034640676,1.0000822733285648,0.0003618534302182969
1411.9285479450427,1411.9285479450427,0.9999113355842482,0.0003618277896092475
1411.9354924258303,1411.9354924258303,0.9999120671156557,0.0003618307892706798
1411.942436906619,1411.942436906619,1.0000641795012082,0.00036182872329606434
1411.9493813872673,1411.9493813872673,0.9999264376335638,0.00036182814105169866
1411.9563258677756,1411.9563258677756,1.000246377086047,0.00036191540223272795
1411.9632703482384,1411.9632703482384,1.0000420785209712,0.00036189821196231097
1411.97021482856,1411.97021482856,0.999831228044312,0.00036181641092381027
1411.9771593087437,1411.9771593087437,0.9995860397741968,0.00036179817142000886
1411.984103788926,1411.984103788926,1.0002297245462572,0.00036189924565988355
1411.991048268923,1411.991048268923,1.000057624939405,0.0003618770902177092
1411.997992748873,1411.997992748873,1.0000105992989123,0.0003618043604388658
1412.004937228683,1412.004937228683,1.0001121200180276,0.00036193874434449497
1412.011881708354,1412.011881708354,1.000094796344006,0.00036187720576486855
1412.0188261879775,1412.0188261879775,0.9998316257491544,0.00036191819088880593
1412.0257706675554,1412.0257706675554,1.0002315906346662,0.00036190822232124174
1412.032715146946,1412.032715146946,0.999592556742899,0.000361776404983448
1412.0396596262447,1412.0396596262447,1.0000475262061015,0.00036183431301990037
1412.0466041054956,1412.0466041054956,1.0000491256323,0.0003617520262443388
1412.0535485845608,1412.0535485845608,0.9999295268462906,0.0003618567446868623
1412.0604930635334,1412.0604930635334,0.9998674686163239,0.0003618240011847555
1412.0674375425983,1412.0674375425983,1.0003289883644042,0.0003619011860423962
1412.074382021338,1412.074382021338,1.0004979115395227,0.0003619807670880077
1412.0813265000302,1412.0813265000302,1.0001086926035334,0.0003618658922418202
1412.0882709786297,1412.0882709786297,0.9993582960260688,0.0003617329197550136
1412.0952154571364,1412.0952154571364,0.9995776683060626,0.00036183378228907476
1412.1021599355493,1412.1021599355493,1.0004883797635626,0.00036189048336815623
1412.1091044139166,1412.1091044139166,0.9998480044864154,0.00036185565750719307
1412.11604889205,1412.11604889205,0.9998918394716613,0.00036183826210254395
1412.1229933701375,1412.1229933701375,1.000306933863744,0.00036185690507738595
1412.1299378481785,1412.1299378481785,0.9995575420993618,0.0003617621924248275
1412.1368823260796,1412.1368823260796,1.0001311088880627,0.0003618993151847376
1412.1438268039342,1412.1438268039342,0.999871763015132,0.0003618479111909396
1412.150771281602,1412.150771281602,1.0004386224642292,0.0003618808825327542
1412.1577157592706,1412.1577157592706,1.0004457106886415,0.0003619290283183988
1412.1646602367057,1412.1646602367057,0.9998448739626644,0.00036183605806960087
1412.1716047140949,1412.1716047140949,0.9996972289505652,0.00036182444665238805
1412.1785491914366,1412.1785491914366,0.9996439687624656,0.00036183862751699026
1412.1854936686395,1412.1854936686395,1.0005200396657041,0.0003619410301242341
1412.192438145796,1412.192438145796,0.9999621148410492,0.0003618602229674579
1412.1993826227651,1412.1993826227651,0.9994658590782688,0.0003618026968445139
1412.2063270996891,1412.2063270996891,1.000230555663127,0.0003618984067954226
1412.2132715765183,1412.2132715765183,1.0003035058487295,0.000361922888918023
1412.2202160532092,1412.2202160532092,0.9996410759987626,0.0003618146590704901
1412.2271605298993,1412.2271605298993,0.9993308906753746,0.00036172709543206915
1412.2341050064035,1412.2341050064035,1.0001603171572289,0.0003618848295107229
1412.2410494827677,1412.2410494827677,1.0002276170900979,0.0003619092665402631
1412.2479939590853,1412.2479939590853,1.0007378059988519,0.0003619408400087756
1412.2557717724908,1412.2557717724908,1.0002259956070514,0.00036187107734148916
1412.264382922797,1412.264382922797,1.0002414263516308,0.0003617474776308011
1412.274382968218,1412.274382968218,0.9996384486108549,0.00036165443694804116
1412.2857719085673,1412.2857719085673,0.9993518006819724,0.0003616101123593119
1412.2938275003337,1412.2938275003337,1.0002063499589293,0.00036172791959572374
1412.3007719759532,1412.3007719759532,0.9996226971088589,0.00036176875585515824
1412.307716451433,1412.307716451433,1.0000575686597513,0.00036178075898847946
1412.3146609268656,1412.3146609268656,1.0001324208618185,0.0003618140736484646
1412.321605402066,1412.321605402066,1.0002453962116566,0.0003618670284488288
1412.3285498772661,1412.3285498772661,0.9997546206355054,0.0003617353160525528
1412.335494352327,1412.335494352327,1.000356922385516,0.0003619698766302109
1412.3424388273875,1412.3424388273875,1.0003731708867676,0.0003618391053718178
1412.3493833022155,1412.3493833022155,0.9997972800045446,0.00036169384576203165
1412.3563277770893,1412.3563277770893,1.0003495119214032,0.00036192371872805493
1412.3632722517311,1412.3632722517311,0.9996473781151375,0.00036170989724099406
1412.370216726326,1412.370216726326,0.9996071670908678,0.0003617524645714309
1412.377161200874,1412.377161200874,0.9996616562479119,0.0003618388472892703
1412.384105675283,1412.384105675283,0.9996504069559243,0.00036182922609824064
1412.3910501495513,1412.3910501495513,1.0007791344792256,0.0003619764421300876
1412.397994623728,1412.397994623728,1.0006226589536797,0.00036191029296239323
1412.4049390979033,1412.4049390979033,1.0007016227840697,0.0003619557708827465
1412.4118835719396,1412.4118835719396,1.0001626009175733,0.00036182968456928736
1412.4188280458825,1412.4188280458825,0.9996720741386353,0.0003617211944355133
1412.425772519732,1412.425772519732,1.000389115644258,0.00036193144278527
1412.4327169934427,1412.4327169934427,1.0000902464832506,0.00036192216280623153
1412.4396614671057,1412.4396614671057,0.999527632030172,0.0003618284119936392
1412.4466059406302,1412.4466059406302,0.9998368662896585,0.00036183497264661576
1412.453550414107,1412.453550414107,0.9998547902592863,0.0003618006917014695
1412.4604948874448,1412.4604948874448,0.9996955537844714,0.00036176043731472136
1412.467439360689,1412.467439360689,1.0002071250450508,0.0003618252758989112
1412.4743838338404,1412.4743838338404,1.000380351722576,0.00036185647608175683
1412.481328306852,1412.481328306852,1.000020810219025,0.00036173003481259204
1412.4882727798636,1412.4882727798636,1.0004761278346628,0.0003619366539016509
1412.4952172527828,1412.4952172527828,0.9997660989763986,0.0003618334673043106
1412.5021617255607,1412.5021617255607,1.0002403051220001,0.00036186864010223884
1412.5091061982007,1412.5091061982007,0.9993988719056764,0.00036177445438710003
1412.5160506707928,1412.5160506707928,0.9996506280657442,0.0003618040884354627
1412.522995143339,1412.522995143339,1.0005216402533703,0.0003620016982537642
1412.5299396156986,1412.5299396156986,1.0000908434352644,0.00036189815404341836
1412.5368840880114,1412.5368840880114,0.9996773530228656,0.00036188042022965855
1412.5438285602318,1412.5438285602318,0.999969406638817,0.00036188974935252
1412.5507730323582,1412.5507730323582,0.9999877767593753,0.00036192365521815577
1412.5577175043923,1412.5577175043923,1.000468832439396,0.00036201129803249807
1412.5646619762397,1412.5646619762397,0.9999076998764845,0.0003619243485747281
1412.5716064480876,1412.5716064480876,0.9997314168994066,0.000361852184537455
1412.5785509198881,1412.5785509198881,0.999906404686417,0.0003618720868989218
1412.585495391503,1412.585495391503,0.9998354263508457,0.0003618824070920683
1412.592439863071,1412.592439863071,0.9999365989300377,0.0003619570413279758
1412.599384334546,1412.599384334546,1.000719546533952,0.0003619755637080622
1412.6063288058815,1412.6063288058815,0.9996573838929917,0.0003618779343882986
1412.6132732771227,1412.6132732771227,1.0001709546417985,0.00036193690019943397
1412.6202177483192,1412.6202177483192,1.0002440385707714,0.0003619173771253063
1412.627162219421,1412.627162219421,1.000083471736782,0.0003618030787948964
1412.6341066904308,1412.6341066904308,0.9996110340498182,0.0003618399173545443
1412.6410511613003,1412.6410511613003,0.9998720916185555,0.0003619460888496869
1412.6479956321232,1412.6479956321232,1.0001714967734219,0.00036191590618659644
1412.6549401028067,1412.6549401028067,0.9994955446516685,0.00036189430999195775
1412.6618845734897,1412.6618845734897,0.9998033193868844,0.0003618913888753216
1412.6688290439408,1412.6688290439408,1.000471584077398,0.00036201858490906316
1412.6757735143442,1412.6757735143442,0.9999020981150624,0.0003618983255068097
1412.6827179847019,1412.6827179847019,1.00035979094432,0.00036182062813540946
1412.6896624549659,1412.6896624549659,0.9997506685030224,0.00036185141852934123
