time,time,flux,flux_err
1410.9094580958845,1410.9094580958845,0.9995618707971469,0.0022841857387933106
1410.9177916096771,1410.9177916096771,1.00196911004764,0.0022842671404071325
1410.9254306638754,1410.9254306638754,0.9987779896309089,0.002084672733503539
1410.932375258657,1410.932375258657,1.0002063510219106,0.002084278407822211
1410.9393198533,1410.9393198533,0.9968667434105282,0.0020825475143224307
1410.9462644478951,1410.9462644478951,0.9967786352551368,0.0020827478348482246
1410.9532090424443,1410.9532090424443,1.0009520057490333,0.002085045453701562
1410.9604314207572,1410.9604314207572,1.000166446446104,0.0020854400787251788
1410.969876069176,1410.969876069176,1.0055126679267237,0.002083566960063999
1410.9851541766718,1410.9851541766718,1.0008187079504804,0.00207990702779537
1410.9920987709888,1410.9920987709888,1.0015605654814368,0.0020814120114727237
1411.002932337759,1411.002932337759,0.9984928711344555,0.002080450754247694
1411.0115436344227,1411.0115436344227,1.0014816803985984,0.002082163522341167
1411.0184882285062,1411.0184882285062,0.9975114300597372,0.00208146622140541
1411.0254328224967,1411.0254328224967,0.998883530925108,0.0020823093012295882
1411.0323774163937,1411.0323774163937,0.9978319345707162,0.0020822875545191476
1411.0393220101973,1411.0393220101973,0.9996561588362238,0.0020845127613614662
1411.046266604002,1411.046266604002,1.0014973211727285,0.0020829120503175792
1411.0546001163893,1411.0546001163893,0.9963899791166412,0.0020822385176312275
1411.061544710008,1411.061544710008,1.002564174009486,0.0020834106201690085
1411.0684893035323,1411.0684893035323,1.002637494257087,0.002082426113470642
1411.0754338970105,1411.0754338970105,1.0006182445327068,0.0020817746385332803
1411.0823784904426,1411.0823784904426,0.9975238754552198,0.0020799724576708502
1411.0893230837803,1411.0893230837803,1.0002528966199336,0.0020801654502669823
1411.0962676770264,1411.0962676770264,0.9995188855302466,0.0020792735236916516
1411.1032122702247,1411.1032122702247,1.000840810102992,0.0020799796769075058
1411.110156863377,1411.110156863377,0.9998093897478657,0.00207792285930495
1411.117101456343,1411.117101456343,0.998955614180147,0.0020785760815256
1411.1240460494948,1411.1240460494948,1.0023295003040475,0.0020792667915620856
1411.1309906423216,1411.1309906423216,1.0007798827150394,0.002078761463440223
1411.137935235101,1411.137935235101,0.9986961474372189,0.002078405675293803
1411.1448798278802,1411.1448798278802,0.9983034089074213,0.00207742456806924
1411.1518244205677,1411.1518244205677,1.0001983562448946,0.0020774958980685405
1411.1587690131605,1411.1587690131605,1.0014898282262905,0.002079662264737272
1411.1657136057079,1411.1657136057079,1.002597477174645,0.0020792703580769624
1411.1726581981147,1411.1726581981147,1.0001915397847867,0.002078080685445262
1411.1796027905682,1411.1796027905682,0.9970238842755134,0.0020776966656513365
1411.1865473827897,1411.1865473827897,1.0002973838798117,0.002078068770065852
1411.1934919750565,1411.1934919750565,0.9987166702099385,0.002078949876885399
1411.2004365671846,1411.2004365671846,0.9990589623351346,0.002077989827041768
1411.2073811592193,1411.2073811592193,1.0004638543789255,0.002079446008980311
1411.2143257511605,1411.2143257511605,1.0008225006338596,0.0020780725933703956
1411.2212703431487,1411.2212703431487,1.0003142585051965,0.002077912131263731
1411.2282149349035,1411.2282149349035,0.9997703148385725,0.0020784076086323806
1411.2351595266593,1411.2351595266593,1.0015511806910455,0.0020781057365102658
1411.2421041182747,1411.2421041182747,1.0005186073694108,0.002077133680557883
1411.2490487098432,1411.2490487098432,0.9970565392435093,0.002076938702083395
1411.2559933013663,1411.2559933013663,1.001342938112321,0.002078407115637411
1411.2629378927486,1411.2629378927486,0.9979263109712928,0.0020780948739908814
1411.2698824840386,1411.2698824840386,1.0016164738431264,0.0020795008047490406
1411.276827075281,1411.276827075281,1.0008033447244085,0.0020790247921178
1411.2837716664308,1411.2837716664308,1.0011731084604194,0.002078909942929243
1411.290716257488,1411.290716257488,0.9983026726505377,0.0020776790805029127
1411.2976608484512,1411.2976608484512,1.0001117742163506,0.0020782506772584535
1411.3046054393687,1411.3046054393687,1.0018488024458796,0.0020779228436247042
1411.3115500301453,1411.3115500301453,0.9956047647224002,0.0020768827986506876
1411.3184946209235,1411.3184946209235,0.9977835557976678,0.0020765500393498796
1411.325439211561,1411.325439211561,1.0016465046762926,0.002079275856014822
1411.332383802105,1411.332383802105,1.0011093067734338,0.002078577693402295
1411.3393283925102,1411.3393283925102,1.0054020351120523,0.002081006623417976
1411.3462729829148,1411.3462729829148,0.9996935873557261,0.002079254931369191
1411.3532175731334,1411.3532175731334,0.9999001477929441,0.0020792506587519353
1411.360162163352,1411.360162163352,1.0017135734971077,0.0020797115044944516
1411.3671067534772,1411.3671067534772,0.9965487839545929,0.0020776454178155802
1411.37405134351,1411.37405134351,0.996990061061951,0.0020788192387069366
1411.380995933402,1411.380995933402,0.9975209098947311,0.002077652483812255
1411.387940523248,1411.387940523248,1.000204520078491,0.0020799077879825934
1411.3948851130012,1411.3948851130012,1.0002668486175312,0.0020804375471924264
1411.4018297027073,1411.4018297027073,1.0017856359839297,0.0020797944968462666
1411.408774292228,1411.408774292228,1.0050947012232905,0.002082679714221107
1411.415718881794,1411.415718881794,1.0004902519923826,0.002078965540898102
1411.422663471128,1411.422663471128,0.998039357397805,0.002078208200139426
1411.4296080604151,1411.4296080604151,1.0004836035539064,0.002079305381727501
1411.4365526496088,1411.4365526496088,0.9988178294149368,0.0020792980078482167
1411.4434972387105,1411.4434972387105,0.9981507569093111,0.002078116276658672
1411.4504418277643,1411.4504418277643,0.9992885360526685,0.0020779457039562955
1411.4573864166791,1411.4573864166791,1.0006552094372827,0.002078813688118475
1411.4643310055012,1411.4643310055012,0.99939276906602,0.0020790515146125034
1411.4712755942758,1411.4712755942758,1.000665718611637,0.0020782797416434404
1411.4782201829114,1411.4782201829114,0.999059347911173,0.0020784666597822915
1411.4851647714997,1411.4851647714997,0.9991931760099326,0.002077210937024171
1411.4921093599492,1411.4921093599492,1.0001275167672552,0.0020772749759442894
1411.4990539483977,1411.4990539483977,1.0038835253545717,0.0020796121090507756
1411.5059985366606,1411.5059985366606,1.0005784605388155,0.002077812074180313
1411.512943124877,1411.512943124877,1.0029405358826768,0.00207841738666772
1411.5198877129528,1411.5198877129528,0.9976070872467012,0.0020779715382602307
1411.5268323009373,1411.5268323009373,0.9978808232555423,0.0020781275581157536
1411.5337768888735,1411.5337768888735,1.0001731923118737,0.0020789280625383307
1411.5407214766708,1411.5407214766708,0.9982441764550012,0.0020793615557335053
1411.5476660644213,1411.5476660644213,0.9990262482921668,0.0020788591397350687
1411.5546106520783,1411.5546106520783,1.0015828905876507,0.0020805527199264343
1411.5615552395968,1411.5615552395968,1.0010245152626291,0.0020811183997733046
1411.5684998270208,1411.5684998270208,0.9979842603594047,0.002080708981536266
1411.5754444143993,1411.5754444143993,1.0001885750056325,0.002081100054671512
1411.582389001684,1411.582389001684,1.0011630765267039,0.0020802530598184278
1411.5893335888288,1411.5893335888288,1.0001498429762397,0.0020801104257592686
1411.596278175928,1411.596278175928,1.0018178028885498,0.0020792253636214295
1411.6032227628398,1411.6032227628398,0.9978746701431209,0.00207909815343449
1411.6101673497528,1411.6101673497528,0.9984867235796662,0.002078086102446844
1411.6171119365251,1411.6171119365251,1.001492190194737,0.002077890988782
1411.6240565232506,1411.6240565232506,0.9974881187818369,0.00207784320111185
1411.631001109838,1411.631001109838,1.0008802611167886,0.0020770520558856865
1411.6379456963773,1411.6379456963773,0.998971501384033,0.0020780040659028566
1411.644890282731,1411.644890282731,1.0038689357582586,0.0020802711449650468
1411.6518348690847,1411.6518348690847,1.0013528783540524,0.002079870317019125
1411.6587794552984,1411.6587794552984,1.0021930052552857,0.0020801080488574613
1411.6657240413726,1411.6657240413726,1.0008549987536879,0.0020788605384766626
1411.672668627493,1411.672668627493,0.997584601546766,0.0020788195663353167
1411.6796132134282,1411.6796132134282,0.9984375544801098,0.002079597544924543
1411.686557799176,1411.686557799176,0.9982298255178466,0.002079035795008636
1411.693502384971,1411.693502384971,0.9958335437873448,0.0020781791173307097
1411.700446970626,1411.700446970626,1.0019449643436404,0.0020804592609390492
1411.7073915561411,1411.7073915561411,1.0005686678533343,0.002080089722819759
1411.7143361416104,1411.7143361416104,1.0028969089482769,0.002079803577513142
1411.7212807269855,1411.7212807269855,0.9983556227811687,0.002078627190398119
1411.7282253122219,1411.7282253122219,1.001674063910504,0.0020798043712824702
1411.735169897411,1411.735169897411,1.000811655960998,0.0020779874549802075
1411.7421144824607,1411.7421144824607,1.0010842212032807,0.0020785700463527594
1411.7490590674174,1411.7490590674174,0.9993698075138214,0.0020773166254135626
1411.7560036524203,1411.7560036524203,0.9980469399222969,0.0020752735821621326
1411.7629482371917,1411.7629482371917,0.9971806585840393,0.0020740912470400604
1411.7698928218215,1411.7698928218215,0.999397381475655,0.0020768587090693844
1411.7768374064058,1411.7768374064058,1.0027636070614965,0.002078855346848179
1411.7837819909432,1411.7837819909432,1.0002100613314948,0.0020765614997613
1411.7907265753408,1411.7907265753408,0.9998208040715788,0.002078062555097607
1411.797671159646,1411.797671159646,1.0035866821951445,0.0020783999886762926
1411.8046157438566,1411.8046157438566,1.001333631756265,0.002079959398087271
1411.8115603279757,1411.8115603279757,1.0008328703223286,0.002078232776256585
1411.8185049120007,1411.8185049120007,0.99603445959662,0.002076711884949449
1411.8254494958865,1411.8254494958865,0.9979631327211773,0.0020782691898785345
1411.832394079772,1411.832394079772,0.9983914725893797,0.002078261030223653
1411.8393386634245,1411.8393386634245,0.9999525341784743,0.0020785041083990633
1411.8462832472173,1411.8462832472173,0.9998034072594303,0.0020775624110063685
1411.8532278305904,1411.8532278305904,1.0005733512917538,0.002078188734691744
1411.8601724141035,1411.8601724141035,1.0012947753466213,0.002078395069083701
1411.8671169974766,1411.8671169974766,0.9997078188143679,0.0020776882651009983
1411.8740615807103,1411.8740615807103,1.0025092083632217,0.0020777751231335516
1411.881006163851,1411.881006163851,0.9991304755413106,0.00207621787873316
1411.8879507469446,1411.8879507469446,1.0024417097240002,0.0020784282234117307
1411.8948953298993,1411.8948953298993,0.9997714654957424,0.0020778113280643983
1411.9018399127601,1411.9018399127601,0.998486397367353,0.0020768176615403883
1411.9087844955752,1411.9087844955752,1.0004188480790623,0.0020791665381366094
1411.9157290782032,1411.9157290782032,0.9979088847825904,0.0020775014145306063
1411.9226736608314,1411.9226736608314,0.9997150032786685,0.0020767806019421913
1411.9296182432738,1411.9296182432738,1.0006810544298612,0.002078858325971331
1411.936562825715,1411.936562825715,0.9987384593045296,0.0020777838270493944
1411.9435074079715,1411.9435074079715,1.0007496672797602,0.0020786677225137526
1411.9504519901802,1411.9504519901802,0.9980033404749887,0.002076190872604295
1411.9573965722498,1411.9573965722498,1.0044124764726639,0.002079149474164558
1411.9643411543195,1411.9643411543195,0.998333962673609,0.0020768089334874066
1411.971285736249,1411.971285736249,0.9999368562734894,0.002076639184893086
1411.9782303180396,1411.9782303180396,1.001673227488041,0.0020779788115021587
1411.9851748997828,1411.9851748997828,0.9957706441382467,0.0020746515227528335
1411.9921194813871,1411.9921194813871,1.0008978771427528,0.0020777065850575353
1411.999064062944,1411.999064062944,0.999353113467375,0.002076851020771952
1412.006008644315,1412.006008644315,1.0043521119447854,0.002079024801134755
1412.012953225593,1412.012953225593,0.9999462522289292,0.0020770307078211234
1412.0198978068706,1412.0198978068706,0.9967518081461749,0.0020768355571939563
1412.0268423881023,1412.0268423881023,1.001560855843485,0.0020790428393979063
1412.0337869691468,1412.0337869691468,1.0003398093447424,0.002077400192891352
1412.0407315500993,1412.0407315500993,1.0004234194767825,0.0020782267509821483
1412.0476761309578,1412.0476761309578,1.0004613788821812,0.002077436993696366
1412.0546207117231,1412.0546207117231,1.0001474425004053,0.002077897729312845
1412.0615652923964,1412.0615652923964,0.9985131045031622,0.0020793958803884518
1412.0685098730214,1412.0685098730214,1.0006589596103317,0.0020799297286119124
1412.0754544534623,1412.0754544534623,0.998918419015658,0.0020785890477555877
1412.0823990338545,1412.0823990338545,0.9992769802006226,0.0020785655714881607
1412.0893436141548,1412.0893436141548,0.9969583719377695,0.0020775595172336154
1412.0962881944083,1412.0962881944083,1.0036566770351143,0.0020791481115520574
1412.1032327745218,1412.1032327745218,0.9997597901173462,0.0020774361678588668
1412.1101773544492,1412.1101773544492,0.9994543068300153,0.002077466746674298
1412.1171219343764,1412.1171219343764,1.0026011760872675,0.0020772972339027414
1412.124066514211,1412.124066514211,0.9988776465093029,0.0020748269040455625
1412.1310110939055,1412.1310110939055,0.9992712490805425,0.0020768275319136163
1412.1379556735076,1412.1379556735076,1.001678930525506,0.0020757933826043478
1412.1449002530621,1412.1449002530621,0.9974483104167451,0.0020743226616701717
1412.1518448325237,1412.1518448325237,1.001280693199145,0.002076406427565166
1412.158789411846,1412.158789411846,0.9998847441908938,0.0020755027832554123
1412.1657339911212,1412.1657339911212,1.0021507901403284,0.0020773265228037716
1412.172678570304,1412.172678570304,0.9993757086892707,0.002075216343476616
1412.179623149253,1412.179623149253,0.9994046180576946,0.0020757357699271533
1412.1865677282033,1412.1865677282033,0.9947293848927128,0.0020744934368309527
1412.1935123071526,1412.1935123071526,1.004029544948905,0.002076913044557364
1412.2004568859625,1412.2004568859625,1.0002267009419448,0.0020750804516197633
1412.2074014646332,1412.2074014646332,0.9989807000958402,0.0020753005948494227
1412.2143460432094,1412.2143460432094,1.0010728172542487,0.0020758174520816965
1412.2212906217405,1412.2212906217405,1.0001492126927793,0.002076724435185904
1412.2282352000843,1412.2282352000843,1.0012975325447706,0.0020751304993856584
1412.235179778429,1412.235179778429,0.9986859566507942,0.0020748591455501085
1412.2421243566332,1412.2421243566332,0.9950670334314552,0.0020725322114117694
1412.2490689347446,1412.2490689347446,0.9997190565476121,0.002075762892246997
1412.2571246452085,1412.2571246452085,1.001415951448345,0.0020745241999357146
1412.2662914881182,1412.2662914881182,1.002716582753442,0.0020756133941133626
1412.2762916800827,1412.2762916800827,0.9999593946488524,0.0020753010193245184
1412.2871252211955,1412.2871252211955,0.9992752728907535,0.002074921535816253
1412.2949031479886,1412.2949031479886,0.9993890702428974,0.002075342243258842
1412.3018477253554,1412.3018477253554,0.9998587921052055,0.002076701116366462
1412.3087923026746,1412.3087923026746,1.0009220790818598,0.0020770736671070255
1412.3157368799016,1412.3157368799016,0.9982323068582574,0.002075972250173304
1412.3226814570348,1412.3226814570348,1.0013341942003458,0.0020776161495527725
1412.329626034075,1412.329626034075,0.9988841563978266,0.0020778503917772985
1412.336570611023,1412.336570611023,0.9983381787583239,0.002075309250302211
1412.34351518783,1412.34351518783,0.9992697369331005,0.002075988557742501
1412.350459764638,1412.350459764638,1.001762286119738,0.0020747844695280402
1412.3574043412586,1412.3574043412586,1.0009949958718871,0.002075410265073589
1412.3643489178805,1412.3643489178805,1.0002578822385837,0.0020746358901093808
1412.3712934942687,1412.3712934942687,0.9973368285027853,0.0020735970424032436
1412.378238070704,1412.378238070704,1.000692100195361,0.002074428027331846
1412.3851826469524,1412.3851826469524,1.003476456846169,0.002075399633575243
1412.3921272231541,1412.3921272231541,1.0014711833993455,0.0020746223244892414
1412.3990717992642,1412.3990717992642,0.9993201978110509,0.002073619679623357
1412.4060163752324,1412.4060163752324,0.9963443525654749,0.0020725483571052182
1412.4129609511563,1412.4129609511563,1.001681762544847,0.002073690341001199
1412.4199055269855,1412.4199055269855,1.000102327335238,0.002073154562995077
1412.4268501027218,1412.4268501027218,0.9984746298817615,0.002074022179638271
1412.4337946783187,1412.4337946783187,1.0008784864429288,0.002074573271218459
1412.4407392539622,1412.4407392539622,1.0001145734765997,0.0020747249512911795
1412.4476838294197,1412.4476838294197,0.9996594761155482,0.002074036004271671
1412.4546284046432,1412.4546284046432,1.0000639137140848,0.0020739686532870874
1412.4615729799614,1412.4615729799614,1.0016822682908766,0.00207413912539469
1412.4685175551851,1412.4685175551851,0.9983587147753801,0.002072684496437692
1412.4754621302236,1412.4754621302236,0.9996015241543998,0.0020734973453110724
1412.4824067052148,1412.4824067052148,0.9994861292820708,0.0020736190554344943
1412.489351280113,1412.489351280113,1.0005377448819261,0.002073886856402661
1412.4962958549186,1412.4962958549186,1.0009677018224692,0.002073273425869177
1412.5032404296767,1412.5032404296767,0.9987166517704701,0.0020736899332787755
1412.5101850042497,1412.5101850042497,1.0017519857203356,0.002074865761078557
1412.5171295788216,1412.5171295788216,1.0013403728765897,0.0020753993386122727
1412.5240741531616,1412.5240741531616,0.9970608649591375,0.002074174383705365
1412.531018727687,1412.531018727687,1.0012627238988325,0.0020739729344254726
1412.5379633017935,1412.5379633017935,0.999760011605276,0.0020744959035643917
1412.54490787604,1412.54490787604,0.9987467783274042,0.00207343349665685
1412.5518524500537,1412.5518524500537,1.0011380049285414,0.0020740996461359835
1412.5587970240674,1412.5587970240674,0.9960989146778045,0.0020728468911891283
1412.5657415979408,1412.5657415979408,1.0014966379348003,0.0020730957159457953
1412.572686171769,1412.572686171769,0.9997052115026147,0.0020724183627570006
1412.5796307454561,1412.5796307454561,1.0031840644075016,0.0020747746640183075
1412.586575319051,1412.586575319051,0.9983475959290585,0.0020720960760397043
1412.5935198925986,1412.5935198925986,1.0003105018311387,0.0020727364013135765
1412.6004644660068,1412.6004644660068,1.0000060527639874,0.0020740841356526414
1412.607409039322,1412.607409039322,1.0028758849029027,0.0020746678366016244
1412.614353612683,1412.614353612683,0.9980153769627854,0.002073070798153263
1412.6212981858127,1412.6212981858127,1.0012855368002067,0.0020747912804523613
1412.6282427588944,1412.6282427588944,1.001560303576262,0.002073683764577022
1412.6351873318374,1412.6351873318374,0.9970462745335166,0.0020735966677842927
1412.6421319046867,1412.6421319046867,0.9981036832205449,0.002073294797971851
1412.6490764775363,1412.6490764775363,0.9990948599375047,0.002073721259415699
1412.6560210501991,1412.6560210501991,0.9977470219976823,0.0020739270644718993
1412.6629656228156,1412.6629656228156,1.0030482678462165,0.0020758309552084556
1412.6699101953393,1412.6699101953393,1.0001599026782515,0.002074446556941704
1412.6768547678157,1412.6768547678157,1.0017486976912997,0.0020749203347237
1412.6837993401537,1412.6837993401537,1.0013097519296292,0.0020739302477326355
1412.690743912397,1412.690743912397,1.0029672546283868,0.00207504714291174
1412.6976884845953,1412.6976884845953,0.9973272181520283,0.0020731213237113015
1412.704633056606,1412.704633056606,0.9957623784042289,0.002072700480157355
1412.711577628571,1412.711577628571,1.0004666316359798,0.002074549261269128
