time,time,flux,flux_err
1410.9092801171585,1410.9092801171585,1.0002923755743454,0.0005573257725586924
1410.9169191481585,1410.9169191481585,1.0002103673308347,0.0005086702575229441
1410.9238637218466,1410.9238637218466,0.9997351300863141,0.000508617560778368
1410.9308082954406,1410.9308082954406,0.9998222555233944,0.0005086616143817885
1410.9377528689886,1410.9377528689886,1.0000413389750045,0.0005085615570344567
1410.9446974425362,1410.9446974425362,0.9997176263034163,0.000508556926425737
1410.9516420160376,1410.9516420160376,1.0005530980771653,0.000508766236152601
1410.9585865894928,1410.9585865894928,0.9999313799246753,0.000508633050160755
1410.9669200775259,1410.9669200775259,1.000038453474009,0.0005085267792368497
1410.9830314876504,1410.9830314876504,0.9997218341431637,0.0005082493087069942
1410.990531626723,1410.990531626723,1.0000136652663414,0.0005083990879393657
1411.000254029103,1411.000254029103,0.9998170617798504,0.0005081362483782927
1411.0099764314837,1411.0099764314837,1.0004200275511452,0.0005084858055799786
1411.016921004519,1411.016921004519,1.000533290782759,0.0005084618011329573
1411.0238655775083,1411.0238655775083,0.9996559493340422,0.0005083414733165286
1411.0308101504045,1411.0308101504045,1.0000968405218864,0.0005083759869907631
1411.0377547232533,1411.0377547232533,0.999855804326679,0.000508355635575044
1411.0446992961029,1411.0446992961029,0.9993644758276414,0.0005082337227451845
1411.052755000513,1411.052755000513,1.0001150285691924,0.0005083581795134111
1411.0599773561014,1411.0599773561014,1.001216779763208,0.0005085546549638563
1411.0669219287643,1411.0669219287643,0.9995111898184443,0.0005083438917534905
1411.0738665012875,1411.0738665012875,1.000449796014676,0.0005084732274248145
1411.0808110738114,1411.0808110738114,1.000684462111264,0.0005085018187366595
1411.0877556462415,1411.0877556462415,0.9993893913757965,0.0005082511565276608
1411.0947002186717,1411.0947002186717,0.9995572059232696,0.000508335708023005
1411.1016447910092,1411.1016447910092,1.0004786198725202,0.000508478671225695
1411.108589363253,1411.108589363253,0.9998751897747565,0.0005083966310848406
1411.1155339354507,1411.1155339354507,0.9998550445210217,0.0005081803521471246
1411.1224785075544,1411.1224785075544,0.9997256054580014,0.000508400117852093
1411.129423079752,1411.129423079752,1.0006591414848192,0.0005083607869488345
1411.1363676517167,1411.1363676517167,0.9999260124876157,0.0005083329373498593
1411.1433122236808,1411.1433122236808,1.0002349670673567,0.0005083193580988061
1411.15025679546,1411.15025679546,0.9993419792084761,0.0005080819018219593
1411.1572013673308,1411.1572013673308,1.0005915655103381,0.00050833597010641
1411.1641459390632,1411.1641459390632,0.9996838862496041,0.0005081903080446248
1411.1710905107484,1411.1710905107484,0.9999818056360261,0.0005081433389867997
1411.1780350823399,1411.1780350823399,1.0000342519299956,0.0005081414583542023
1411.1849796538863,1411.1849796538863,1.0001101429541541,0.0005082408658480286
1411.191924225338,1411.191924225338,0.9998492397684184,0.0005081599437845869
1411.1988687967907,1411.1988687967907,0.9998086046466422,0.0005081579312206962
1411.2058133680569,1411.2058133680569,1.0005882497889331,0.0005081598697653989
1411.2127579393223,1411.2127579393223,0.9994932040817709,0.0005080431226371872
1411.219702510496,1411.219702510496,0.9998879915683256,0.0005080171685192572
1411.2266470816219,1411.2266470816219,1.0005051422492763,0.000508128329503372
1411.2335916526558,1411.2335916526558,1.0000939073963402,0.000508075018899352
1411.2405362236425,1411.2405362236425,0.9995965011332972,0.0005080751038496195
1411.2474807945357,1411.2474807945357,0.9999471968144338,0.0005081719348012677
1411.2544253653366,1411.2544253653366,1.0003689140362426,0.0005082297450664293
1411.2613699361368,1411.2613699361368,0.9996750747832268,0.0005081133610808254
1411.2683145067047,1411.2683145067047,1.0001726949222103,0.0005083572930230825
1411.2752590773653,1411.2752590773653,1.000221555522661,0.0005080841190769389
1411.282203647886,1411.282203647886,1.0005412903371804,0.0005083552833159131
1411.2891482183145,1411.2891482183145,0.9989096641502059,0.0005079380644114275
1411.2960927886954,1411.2960927886954,0.9999927302041648,0.0005082844354195042
1411.303037358984,1411.303037358984,1.0001353038708403,0.0005081411714749089
1411.309981929179,1411.309981929179,0.9999262497158978,0.0005082133742043326
1411.316926499327,1411.316926499327,0.9997131590167655,0.0005081373066385543
1411.3238710693831,1411.3238710693831,1.0002891936873497,0.00050820541761178
1411.330815639345,1411.330815639345,0.9997275377616589,0.000508178930050645
1411.337760209261,1411.337760209261,1.0000684544480705,0.0005080930014623809
1411.344704779037,1411.344704779037,1.0007629623553143,0.0005082397954930152
1411.3516493488594,1411.3516493488594,0.9998676887596549,0.0005081214100581804
1411.3585939184961,1411.3585939184961,1.0001645085700688,0.0005081125891022346
1411.365538488132,1411.365538488132,1.0001627687262256,0.0005081800712454533
1411.372483057536,1411.372483057536,0.9999890773453691,0.0005081917257122369
1411.3794276269857,1411.3794276269857,0.9993748613027769,0.0005081076110095657
1411.3863721963426,1411.3863721963426,0.999613905105542,0.0005080473740214965
1411.3933167656064,1411.3933167656064,1.0003721604832123,0.0005082029923189869
1411.4002613347766,1411.4002613347766,1.0002544383651102,0.0005082083194533152
1411.4072059039015,1411.4072059039015,0.9996943713827211,0.0005081467586336145
1411.4141504728855,1411.4141504728855,1.0005659917580485,0.0005081895399315356
1411.4210950418233,1411.4210950418233,0.9995202405699344,0.0005079571186467239
1411.4280396106683,1411.4280396106683,0.9998662914692469,0.0005081391335904211
1411.4349841794658,1411.4349841794658,0.9998756237715021,0.0005081999973451372
1411.441928748125,1411.441928748125,0.9992686863602739,0.0005078096546770811
1411.448873316783,1411.448873316783,1.00081232234852,0.0005081092045162472
1411.4558178852549,1411.4558178852549,1.000007438457534,0.0005080371792673026
1411.4627624537275,1411.4627624537275,0.9999479671534519,0.0005081062963236935
1411.4697070220595,1411.4697070220595,1.00121574501688,0.0005083570135125552
1411.4766515903461,1411.4766515903461,0.9998050204851134,0.0005081241928471062
1411.4835961585384,1411.4835961585384,1.0001333741681206,0.0005082082593914289
1411.4905407266383,1411.4905407266383,0.999623828842676,0.0005081615961531792
1411.4974852946448,1411.4974852946448,0.9993175849348527,0.0005081377847547262
1411.5044298626508,1411.5044298626508,1.0003514408543144,0.0005082919704087693
1411.5113744304715,1411.5113744304715,0.9998749467799872,0.0005081501376229496
1411.518318998245,1411.518318998245,0.9994060812049582,0.0005081172992976906
1411.5252635659258,1411.5252635659258,1.0005065429838744,0.0005084034314224137
1411.532208133513,1411.532208133513,1.0005650993261976,0.0005083193351964796
1411.5391527010538,1411.5391527010538,0.9993110305612453,0.0005081780961385881
1411.5460972684089,1411.5460972684089,0.9999495929672033,0.0005080299922468309
1411.5530418357164,1411.5530418357164,0.9996221388329717,0.0005080610046190069
1411.559986403025,1411.559986403025,1.000011148105775,0.0005082058281837218
1411.5669309702394,1411.5669309702394,0.9999865665731551,0.0005080283417427856
1411.5738755373145,1411.5738755373145,1.0007863449162566,0.000508300794996121
1411.5808201043433,1411.5808201043433,1.0006333588753602,0.0005082733316534259
1411.5877646712318,1411.5877646712318,0.999951828596676,0.0005080905657145259
1411.594709238075,1411.594709238075,1.0004400962348008,0.0005082706794752353
1411.6016538048232,1411.6016538048232,0.9993726040691053,0.0005081376934158855
1411.6085983714333,1411.6085983714333,0.999495534615136,0.0005081084182791765
1411.6155429379965,1411.6155429379965,0.9992575557892804,0.0005079764389716105
1411.6224875045123,1411.6224875045123,0.9999246934916484,0.0005081868581465366
1411.6294320708898,1411.6294320708898,1.0003043555436366,0.0005083184749169043
1411.6363766371726,1411.6363766371726,0.9993782999914925,0.0005080928385383775
1411.643321203503,1411.643321203503,1.0003671688672233,0.000508306860290831
1411.650265769647,1411.650265769647,1.000601319492525,0.0005083664299005797
1411.6572103355575,1411.6572103355575,0.9999738807336176,0.0005081953544025965
1411.6641549015621,1411.6641549015621,1.000892874200601,0.0005082958702820507
1411.6710994674727,1411.6710994674727,1.0001888330611248,0.0005082729275191657
1411.6780440331981,1411.6780440331981,0.9993945233511023,0.00050814329482333
1411.6849885989227,1411.6849885989227,1.0000704974931776,0.0005082933048335857
1411.6919331646009,1411.6919331646009,1.0002868195956593,0.000508343203949648
1411.6988777300462,1411.6988777300462,0.9990483177211938,0.000508320990440909
1411.705822295538,1411.705822295538,0.9993696096967923,0.0005082031111259983
1411.712766860844,1411.712766860844,0.9998032714709405,0.0005083707068110507
1411.7197114261028,1411.7197114261028,1.0005374415347883,0.0005085670965776613
1411.7266559913157,1411.7266559913157,1.0003050326060667,0.0005084481085272112
1411.7336005563884,1411.7336005563884,1.000179792983958,0.0005083537154853959
1411.7405451213679,1411.7405451213679,1.0001575548274153,0.000508398047137463
1411.747489686348,1411.747489686348,0.9996031236233126,0.000508309924793024
1411.7544342510944,1411.7544342510944,1.000305537156367,0.000508333334493663
1411.7613788157955,1411.7613788157955,1.0000292965372275,0.0005083451268675446
1411.768323380495,1411.768323380495,0.9996228308292874,0.0005082763009056207
1411.7752679450562,1411.7752679450562,1.0002511802746403,0.0005082495616587085
1411.7822125095238,1411.7822125095238,1.0004508734286461,0.0005084619342928715
1411.7891570738975,1411.7891570738975,0.9996183785581796,0.000508188969952452
1411.7961016381796,1411.7961016381796,1.0001491918487437,0.0005084508763134705
1411.8030462023669,1411.8030462023669,0.9992234917004431,0.0005082469218937371
1411.8099907665087,1411.8099907665087,1.0008247640256427,0.0005084351735740663
1411.816935330557,1411.816935330557,1.0000855592300502,0.0005084759426125676
1411.8238798944653,1411.8238798944653,1.0001806616211397,0.0005083789750909744
1411.8308244584214,1411.8308244584214,0.9998876230807493,0.0005082914202395151
1411.83776902205,1411.83776902205,0.9991240830952484,0.0005082097989898733
1411.844713585773,1411.844713585773,1.0003772187259208,0.0005084231621327625
1411.8516581493557,1411.8516581493557,1.000056498912865,0.0005084446739894333
1411.8586027128451,1411.8586027128451,0.9998351304425261,0.0005084263344885963
1411.8655472762416,1411.8655472762416,1.0000641291623378,0.0005083832071240055
1411.8724918395912,1411.8724918395912,1.0002114833733415,0.0005084520749924726
1411.8794364028486,1411.8794364028486,1.0003587399642861,0.0005084885317501913
1411.8863809659651,1411.8863809659651,0.9998277672223026,0.0005084152960200324
1411.8933255290362,1411.8933255290362,1.000334480916294,0.0005085293897119992
1411.9002700919664,1411.9002700919664,0.9994090102702096,0.0005083695936260612
1411.9072146548513,1411.9072146548513,1.000050822841969,0.0005084293763206529
1411.9141592176888,1411.9141592176888,1.0000018239985529,0.0005084016766922779
1411.92110378034,1411.92110378034,1.0002477744377245,0.0005084934560883606
1411.928048342992,1411.928048342992,1.000029494233637,0.0005084873094267923
1411.9349929054565,1411.9349929054565,0.9994800256354075,0.0005082986210686041
1411.9419374679221,1411.9419374679221,0.9993607002380192,0.0005082453282797934
1411.9488820302472,1411.9488820302472,1.0009744810096446,0.000508656420338052
1411.9558265925257,1411.9558265925257,0.9994081909041748,0.000508233940267369
1411.9627711546655,1411.9627711546655,0.9999269694799038,0.0005084065540927547
1411.9697157167575,1411.9697157167575,1.0004430163063884,0.0005083679153645792
1411.9766602787574,1411.9766602787574,1.0002453698143987,0.0005082915626946254
1411.9836048406637,1411.9836048406637,1.000381321185551,0.0005085136828934021
1411.9905494025238,1411.9905494025238,1.0000168556377562,0.0005084285172928889
1411.9974939641975,1411.9974939641975,0.9996965232362143,0.0005083251537197338
1412.0044385258705,1412.0044385258705,0.9999061171759249,0.0005084347589331479
1412.0113830873581,1412.0113830873581,1.0001414266449276,0.0005084505927140129
1412.018327648845,1412.018327648845,0.999099564354254,0.0005083769273764337
1412.0252722102396,1412.0252722102396,1.0008955868963374,0.0005085668058754775
1412.0322167715403,1412.0322167715403,0.9991224264333717,0.0005082514213487436
1412.0391613327479,1412.0391613327479,1.0002262588065314,0.0005085000508877676
1412.046105893863,1412.046105893863,0.9997044564752009,0.0005082678751843139
1412.053050454838,1412.053050454838,1.0005305690934465,0.000508529268100831
1412.0599950157202,1412.0599950157202,1.0007992457218051,0.0005087288291624908
1412.066939576648,1412.066939576648,0.9998859455772756,0.0005084412061313911
1412.0738841373911,1412.0738841373911,0.9997432150796008,0.0005084861712193145
1412.080828698086,1412.080828698086,1.0003499869120545,0.000508447672242956
1412.0877732585955,1412.0877732585955,0.99975007590857,0.0005081865288614408
1412.0947178191516,1412.0947178191516,0.9987693866872052,0.0005081038635535607
1412.1016623794744,1412.1016623794744,0.999781956880424,0.0005083107571531879
1412.1086069397982,1412.1086069397982,1.0002475145288716,0.0005084010609593534
1412.1155515000742,1412.1155515000742,1.0007936112454074,0.0005084272128036358
1412.1224960602112,1412.1224960602112,1.0000495803741591,0.0005083567539755187
1412.1294406202082,1412.1294406202082,0.9999132487488473,0.0005083006643200295
1412.1363851802057,1412.1363851802057,1.0002890732949266,0.0005082284457805449
1412.143329740063,1412.143329740063,0.9999491134804106,0.0005081142736176182
1412.150274299827,1412.150274299827,1.0004792601161165,0.0005082076746764888
1412.1572188595455,1412.1572188595455,0.9997595710085022,0.000508226434428531
1412.1641634191697,1412.1641634191697,0.9995175576787272,0.0005081756550084002
1412.1711079786548,1412.1711079786548,1.0000263753134095,0.0005083456848789887
1412.1780525381396,1412.1780525381396,1.0000561739707474,0.0005084376232344394
1412.184997097485,1412.184997097485,1.0002289444400843,0.0005084434963200431
1412.1919416566902,1412.1919416566902,1.000001984969224,0.0005085148107330597
1412.1988862158491,1412.1988862158491,0.9998989483213336,0.0005084710212849415
1412.205830775009,1412.205830775009,1.000329480284377,0.0005085860936164772
1412.2127753339805,1412.2127753339805,1.0003709577268602,0.000508620309391234
1412.2197198929075,1412.2197198929075,1.0000013978102635,0.000508598064177375
1412.2266644516935,1412.2266644516935,0.9990168511809614,0.0005084152994263529
1412.2336090104334,1412.2336090104334,0.9989136161154446,0.0005083418721371876
1412.240553569127,1412.240553569127,1.0002030739668415,0.0005085965442726574
1412.2474981276332,1412.2474981276332,1.0010157434566467,0.0005086553831702098
1412.2552760331005,1412.2552760331005,0.9998926172330368,0.0005084730641562585
1412.2638872854795,1412.2638872854795,1.000164309566442,0.0005082045069747499
1412.2738874493648,1412.2738874493648,0.9998607565468512,0.0005082648178976202
1412.285276524663,1412.285276524663,0.9995487008908907,0.0005081730833427863
1412.2933322118897,1412.2933322118897,1.0020179622041425,0.000508236083077853
1412.3002767697915,1412.3002767697915,1.0001513563717759,0.0005082664433766765
1412.3072213276002,1412.3072213276002,0.9996930251962575,0.0005082578827468522
1412.3141658853153,1412.3141658853153,1.0000736225342872,0.0005082688926567945
1412.3211104429379,1412.3211104429379,1.000330474553712,0.0005084187209817425
1412.3280550005131,1412.3280550005131,1.000235088851826,0.0005082755298572856
1412.3349995579497,1412.3349995579497,0.9996291843605134,0.0005082888287171719
1412.3419441153387,1412.3419441153387,1.0003540396257056,0.000508404882029697
1412.348888672589,1412.348888672589,1.000298817824898,0.0005082161552400177
1412.355833229792,1412.355833229792,0.9991715290213389,0.0005082560700341877
1412.3627777869021,1412.3627777869021,1.0003183662128399,0.000508357631116363
1412.369722343919,1412.369722343919,0.9999692295608963,0.0005083551763155691
1412.3766669008894,1412.3766669008894,0.9999039687581831,0.0005083894872208118
1412.3836114578135,1412.3836114578135,0.9993825204847214,0.0005083366438539255
1412.3905560144105,1412.3905560144105,1.0008125741796854,0.0005086189165406449
1412.3975005711488,1412.3975005711488,0.9996241036266234,0.0005084238318590002
1412.4044451277462,1412.4044451277462,1.0002994682507844,0.0005085719265056451
1412.4113896842512,1412.4113896842512,1.0011743823939843,0.0005086300011157388
1412.418334240663,1412.418334240663,0.9992338352246721,0.0005082393159861304
1412.4252787969808,1412.4252787969808,1.0004292432201725,0.0005086539511686709
1412.4322233532532,1412.4322233532532,0.9996670374042825,0.0005085934431567931
1412.4391679093849,1412.4391679093849,0.9999748466372285,0.0005086839453232261
1412.446112465471,1412.446112465471,0.9999139206635679,0.0005084994802434056
1412.4530570214165,1412.4530570214165,1.0006440819578344,0.0005086952542343209
1412.4600015773626,1412.4600015773626,0.9995269558939117,0.0005082526639915117
1412.4669461331684,1412.4669461331684,1.0006209236727517,0.0005086285108945587
1412.4738906889283,1412.4738906889283,0.9996810972944008,0.0005084585707967119
1412.4808352445948,1412.4808352445948,1.000022924426028,0.0005082240280376577
1412.4877798000282,1412.4877798000282,0.999229580219444,0.0005083840085537405
1412.4947243555555,1412.4947243555555,0.9996418614564074,0.0005084654930691136
1412.5016689109423,1412.5016689109423,1.000571861959337,0.0005084742038157348
1412.5086134661906,1412.5086134661906,1.0007224809621325,0.0005085577275245559
1412.5155580214373,1412.5155580214373,1.000150801949974,0.0005084769023516328
1412.5225025765453,1412.5225025765453,1.0002084772013937,0.0005086605996668401
1412.5294471316063,1412.5294471316063,1.0000193042141416,0.000508515739853723
1412.5363916865276,1412.5363916865276,0.9997870592541332,0.000508593050343277
1412.5433362414028,1412.5433362414028,0.9997906258722361,0.000508554215096313
1412.5502807961843,1412.5502807961843,0.99979204492132,0.0005085536232877348
1412.5572253508733,1412.5572253508733,0.9997490570537861,0.0005085849268003232
1412.5641699054686,1412.5641699054686,0.9998744122762803,0.0005086034200948009
1412.5711144601107,1412.5711144601107,0.999850989428334,0.0005086077994269606
1412.57805901438,1412.57805901438,0.999702288195035,0.0005084862268833088
1412.5850035688363,1412.5850035688363,0.9999797788667075,0.0005086874856306953
1412.591948123059,1412.591948123059,1.0003772292331905,0.0005087230740816369
1412.5988926772818,1412.5988926772818,1.001303378081127,0.0005087469722218948
1412.6058372313655,1412.6058372313655,1.0002647906962878,0.0005087095152559443
1412.612781785355,1412.612781785355,0.9994368755998139,0.000508526871425128
1412.6197263392994,1412.6197263392994,0.9995061649608952,0.0005085162715817071
1412.6266708931494,1412.6266708931494,1.0003366768973927,0.0005084685304893155
1412.6336154469068,1412.6336154469068,0.9998274687837891,0.0005085467671663008
1412.640560000571,1412.640560000571,0.9992967402293529,0.0005084686686268716
1412.6475045541422,1412.6475045541422,0.9997232884674544,0.0005086162830433144
1412.65444910762,1412.65444910762,1.0000484596317234,0.0005086114523389924
1412.6613936610975,1412.6613936610975,0.9999689924946285,0.000508511497722054
1412.6683382144363,1412.6683382144363,0.9999591294951466,0.0005086225607893974
1412.6752827676344,1412.6752827676344,1.0007438097730492,0.0005086438994327516
1412.6822273208334,1412.6822273208334,0.9997584189528933,0.0005083451892071634
1412.6891718739382,1412.6891718739382,1.000738984904745,0.0005086330422701312
1412.6961164268578,1412.6961164268578,1.0002951796180835,0.0005086945741638696
1412.7030609798232,1412.7030609798232,0.9995221695408205,0.0005084994701714614
