time,time,flux,flux_err
1354.1152548944704,1354.1152548944704,1.000284034078524,0.0003282693881122067
1354.1240513516689,1354.1240513516689,0.9996639967395837,0.0003281310425623951
1354.1323848375773,1354.1323848375773,1.000140508893969,0.00032823006055952684
1354.1407183235444,1354.1407183235444,1.0000022017029178,0.00032818531105944734
1354.1483573524704,1354.1483573524704,0.9998194793550812,0.0002996033327530959
1354.1553019242465,1354.1553019242465,0.9997953966749312,0.000299610013012399
1354.1622464961392,1354.1622464961392,1.000383919785913,0.00029965766534990814
1354.1691910680088,1354.1691910680088,1.0001233480234681,0.00029965252868977357
1354.1761356400414,1354.1761356400414,0.9998994058666536,0.0002996010401351102
1354.1830802120735,1354.1830802120735,0.9995145670710794,0.00029958399257408826
1354.190024784199,1354.190024784199,0.9997587329153002,0.0002996044604723468
1354.1969693563713,1354.1969693563713,0.999876697370814,0.00029960097910335126
1354.203913928613,1354.203913928613,1.0006715952828185,0.0002996835460311808
1354.210858500855,1354.210858500855,1.0001196161634567,0.0002996024141316743
1354.2178030731902,1354.2178030731902,0.9996700380734467,0.00029954667713263754
1354.224747645595,1354.224747645595,1.000309849959353,0.0002995997452887598
1354.2316922180232,1354.2316922180232,0.9997439260733669,0.0002995249236017688
1354.2386367905447,1354.2386367905447,1.0003238925147795,0.0002995897914668974
1354.2455813630895,1354.2455813630895,0.9996957558835258,0.00029950133944222696
1354.2525259356573,1354.2525259356573,0.9998059405868152,0.00029948609084578935
1354.2594705083181,1354.2594705083181,0.999934688595987,0.0002995351592552928
1354.2664150810028,1354.2664150810028,1.0002088512457592,0.0002995583259725382
1354.2733596537332,1354.2733596537332,0.9998558142076138,0.0002994989600276062
1354.280304226511,1354.280304226511,1.0004773342303381,0.00029955479817332274
1354.287248799335,1354.287248799335,1.0001496840848954,0.000299507706998789
1354.2941933722284,1354.2941933722284,0.9996375488734751,0.0002994353679033281
1354.3011379451225,1354.3011379451225,1.0003432567591246,0.00029952763073691534
1354.3080825181096,1354.3080825181096,0.999558040606739,0.0002994147382747774
1354.3150270910967,1354.3150270910967,1.0000438701435506,0.0002994419344205222
1354.3219716641072,1354.3219716641072,0.9997192934957362,0.00029943644360380195
1354.3289162372334,1354.3289162372334,1.0001223955829155,0.0002994591776104375
1354.3358608103604,1354.3358608103604,0.9997691640596615,0.00029942847439333616
1354.342805383487,1354.342805383487,1.0005472367176385,0.0002995631160251019
1354.349749956637,1354.349749956637,1.0001257969078972,0.00029950140587608456
1354.3566945298803,1354.3566945298803,1.0000958276115912,0.000299479354278405
1354.3636391031466,1354.3636391031466,0.9997686745170133,0.0002994648486240571
1354.370583676413,1354.370583676413,1.0001453927757793,0.00029949863119347155
1354.3775282497495,1354.3775282497495,1.0000306957199971,0.00029945666760347237
1354.3844728231088,1354.3844728231088,0.9997597393804106,0.00029944834090214984
1354.3914173965152,1354.3914173965152,0.9995935727573231,0.0002994545775092503
1354.3983619699209,1354.3983619699209,0.9998992163095851,0.0002994677538539143
1354.4053065433502,1354.4053065433502,1.000179625226187,0.0002994932207248046
1354.4122511168266,1354.4122511168266,1.000081443025945,0.0002994615770685406
1354.4191956903255,1354.4191956903255,1.0004412202149786,0.00029953270551721266
1354.4261402638713,1354.4261402638713,0.9999192799186062,0.00029944875318115526
1354.4330848374404,1354.4330848374404,0.9997986328258881,0.0002994129354694203
1354.4400294110092,1354.4400294110092,0.9996024958879366,0.00029936111578655596
1354.446973984625,1354.446973984625,1.0002335719318913,0.0002994164723353049
1354.4539185582876,1354.4539185582876,0.9999399617869293,0.00029943909614718963
1354.4608631318797,1354.4608631318797,1.0000244579384785,0.00029939207558217094
1354.4678077055887,1354.4678077055887,1.0000735559545724,0.00029943347731015423
1354.4747522792973,1354.4747522792973,1.0002197418230878,0.0002994653960643501
1354.4816968530063,1354.4816968530063,1.0004701089351173,0.0002994529094295764
1354.488641426738,1354.488641426738,0.9997012769337678,0.0002993383522722988
1354.49558600054,1354.49558600054,1.0001044662228495,0.00029938489934409624
1354.5025305742956,1354.5025305742956,0.9993109339632081,0.000299264861580214
1354.5094751480974,1354.5094751480974,0.9995760247179882,0.00029932057451931076
1354.5164197219224,1354.5164197219224,1.0005561139608696,0.00029944438097770056
1354.5233642957712,1354.5233642957712,1.0005947102556312,0.0002994420677115904
1354.5303088696196,1354.5303088696196,0.999566535762804,0.00029932179393713995
1354.5372534434914,1354.5372534434914,0.999913777407261,0.0002993532709265573
1354.5441980173632,1354.5441980173632,1.000370724305004,0.0002994479360631652
1354.551142591258,1354.551142591258,0.9999948387085619,0.00029936374025700725
1354.5580871651766,1354.5580871651766,1.0000672114060338,0.0002993844494838012
1354.5650317390946,1354.5650317390946,0.9995775003235112,0.0002992964775372178
1354.5719763130596,1354.5719763130596,0.999915455115044,0.00029938167378037913
1354.5789208870015,1354.5789208870015,1.0000608119253527,0.0002993548294597612
1354.5858654609663,1354.5858654609663,0.999916252160574,0.0002993940898031692
1354.592810034931,1354.592810034931,1.0002640301833547,0.00029941030108305634
1354.5997546089425,1354.5997546089425,0.9999947981844061,0.0002993890373543591
1354.6066991829307,1354.6066991829307,1.000066613595288,0.0002994061615037323
1354.6136437569423,1354.6136437569423,1.0000979260690648,0.0002993882301074512
1354.6205883309303,1354.6205883309303,0.9999137856455352,0.00029936158053908625
1354.627532904965,1354.627532904965,1.0001850818140354,0.00029940072685100236
1354.634477479,1354.634477479,1.0000344124148641,0.0002993740588959426
1354.6414220530576,1354.6414220530576,0.9997486439315459,0.0002993478846911447
1354.6483666270924,1354.6483666270924,0.9997056463719917,0.00029933306983833915
1354.6553112011507,1354.6553112011507,1.0003184387419897,0.0002994272340993697
1354.6622557752087,1354.6622557752087,0.999879253394159,0.0002993248646047435
1354.6692003492667,1354.6692003492667,0.9997051144055945,0.00029933269755351855
1354.676144923325,1354.676144923325,1.0000037345542432,0.00029934091167480546
1354.683089497406,1354.683089497406,1.0001545259605202,0.00029934031333735383
1354.6900340714876,1354.6900340714876,1.0003180102829918,0.0002993574630672872
1354.6969786455686,1354.6969786455686,0.9996672997154186,0.0002992775110703827
1354.70392321965,1354.70392321965,1.0001818022142657,0.0002993449996336274
1354.7108677937317,1354.7108677937317,1.0003364630305778,0.0002993582863828861
1354.717812367836,1354.717812367836,1.000100757417091,0.00029929016765571913
1354.7247569419408,1354.7247569419408,0.9998152924420337,0.0002992491541279738
1354.731701516022,1354.731701516022,0.9997622721031515,0.00029927117138905886
1354.7386460901264,1354.7386460901264,0.9997764840657742,0.0002992559044276349
1354.745590664231,1354.745590664231,0.9998064032663183,0.0002992616197364536
1354.7525352383122,1354.7525352383122,1.0000296901102648,0.00029927939586367464
1354.7594798123935,1354.7594798123935,1.0004280702969932,0.00029932279599395427
1354.7664243864751,1354.7664243864751,1.000871293756466,0.0002994003625980322
1354.7733689605795,1354.7733689605795,1.0001831733586484,0.0002992878541887635
1354.7803135346608,1354.7803135346608,0.9996649453434449,0.0002991857227120537
1354.7872581087656,1354.7872581087656,1.0000155415414722,0.00029925340793034464
1354.79420268287,1354.79420268287,0.999778873596173,0.00029923250347072293
1354.8011472569517,1354.8011472569517,0.9998546426134018,0.0002991825033633082
1354.8080918310095,1354.8080918310095,0.9998900234465238,0.00029921335365993846
1354.8150364051141,1354.8150364051141,1.0000833471037525,0.00029923014449423
1354.8219809791722,1354.8219809791722,1.0003486440557423,0.0002992859140151286
1354.8289255532534,1354.8289255532534,1.0004839373152539,0.0002993122548667808
1354.8358701273119,1354.8358701273119,1.0001279063720714,0.0002992601952206874
1354.8428147013697,1354.8428147013697,0.9995594314836606,0.00029919549080228107
1354.8497592754277,1354.8497592754277,0.9999342372977983,0.0002992456469225085
1354.8567038494857,1354.8567038494857,1.0002671397276757,0.000299274993878209
1354.8636484235437,1354.8636484235437,0.9996054450826172,0.0002992164855433008
1354.8705929975788,1354.8705929975788,1.0000654800865632,0.00029926671053825716
1354.8775375716134,1354.8775375716134,0.9998134512208298,0.00029923094156650916
1354.8844821456478,1354.8844821456478,0.9998412743521792,0.0002992474701709928
1354.8914267196596,1354.8914267196596,0.9997642887105729,0.0002992168691790671
1354.898371293671,1354.898371293671,1.0000806696902562,0.00029925838220741985
1354.905315867659,1354.905315867659,1.000167052411515,0.0002992320449919509
1354.9122604416707,1354.9122604416707,1.0003670593576222,0.00029925945610090733
1354.9192050156585,1354.9192050156585,1.0001966626763388,0.00029926655826893804
1354.9261495896703,1354.9261495896703,1.0000769500684359,0.00029926227958488536
1354.9336497295321,1354.9336497295321,0.9996229855640747,0.0002992101277197685
1354.9414276523653,1354.9414276523653,1.0000382214511048,0.0002991883199442841
1354.94837222633,1354.94837222633,0.9997895061542443,0.00029918969862000315
1354.9553168002717,1354.9553168002717,1.0003155792261742,0.0002992888471315736
1354.9622613742133,1354.9622613742133,1.0003046236421755,0.0002992442166768356
1354.9692059481317,1354.9692059481317,0.9996630527030765,0.00029917373352286367
1354.9761505220267,1354.9761505220267,0.9995054711965536,0.0002992058588858439
1354.9830950959217,1354.9830950959217,1.0002660968158608,0.00029927196340181795
1354.9900396698401,1354.9900396698401,0.9997694060161866,0.00029923859239489004
1354.996984243712,1354.996984243712,1.0003459264235812,0.0002992965928157176
1355.0039288175835,1355.0039288175835,1.0003724867776604,0.00029931673891462035
1355.0108733914324,1355.0108733914324,1.000179116579902,0.00029926776531060767
1355.0178179652808,1355.0178179652808,0.9997298401055756,0.00029919851960054654
1355.024762539106,1355.024762539106,0.9996351274131156,0.0002991660492788169
1355.0317071129311,1355.0317071129311,0.99971838405798,0.00029916809913987805
1355.038651686733,1355.038651686733,0.9999283323076567,0.00029920899193712746
1355.045596260512,1355.045596260512,1.0000834978873585,0.00029920125084643723
1355.052540834337,1355.052540834337,1.0001763412485878,0.00029922479913495727
1355.059485408046,1355.059485408046,1.0001063652474684,0.00029923732336000034
1355.0664299818711,1355.0664299818711,1.0002788194850605,0.00029921489185234194
1355.0733745555797,1355.0733745555797,1.0001061248441354,0.0002992260282673081
1355.0803191292887,1355.0803191292887,1.0001602731110992,0.0002991849195053205
1355.0872637029972,1355.0872637029972,0.9995002097858396,0.00029906916220795703
1355.094208276706,1355.094208276706,0.9998452268990133,0.0002991242408283239
1355.101152850415,1355.101152850415,0.9999270401165535,0.0002991600112229771
1355.1080974240535,1355.1080974240535,1.0005476053937152,0.00029922386711855544
1355.1150419977162,1355.1150419977162,0.9999622256136409,0.00029913836564445125
1355.1219865713551,1355.1219865713551,0.999734890280083,0.0002990996483648461
1355.128931144994,1355.128931144994,1.0000771672345994,0.0002991908033779006
1355.1358757185862,1355.1358757185862,0.999983775343144,0.00029915097653754704
1355.1428202921786,1355.1428202921786,1.0002731223186005,0.0002991719861261934
1355.149764865748,1355.149764865748,0.999769687974544,0.0002991232522623447
1355.156709439317,1355.156709439317,0.9997045166744438,0.000299132998845146
1355.1636540128627,1355.1636540128627,1.0002571929498922,0.0002991718983328988
1355.1705985863855,1355.1705985863855,0.9999643788877706,0.0002991390499985808
1355.1775431598846,1355.1775431598846,0.9998806534361904,0.0002991260102685043
1355.184487733384,1355.184487733384,0.9998217361115295,0.00029908776690586804
1355.1914323068604,1355.1914323068604,0.9999290377002581,0.00029907933027943314
1355.1983768803361,1355.1983768803361,1.000227976604575,0.00029912898718480093
1355.2053214537418,1355.2053214537418,1.0002515860770171,0.00029914061981396424
1355.2122660271712,1355.2122660271712,1.000284270893553,0.0002991324504865812
1355.2192106005775,1355.2192106005775,0.999684950613554,0.0002990355317942194
1355.2261551739834,1355.2261551739834,1.0001390119778446,0.0002991291975133815
1355.2330997473432,1355.2330997473432,0.9997339649529288,0.00029910478642737994
1355.2400443207027,1355.2400443207027,1.0001088415470185,0.0002990968250328933
1355.2469888940389,1355.2469888940389,0.9999163460088368,0.0002990890864033303
1355.253933467352,1355.253933467352,0.9996654628380165,0.00029902229175027435
1355.260878040642,1355.260878040642,1.0002332186328025,0.00029912765482461114
1355.2678226139315,1355.2678226139315,1.0001085559104113,0.0002990940023293998
1355.2747671871746,1355.2747671871746,1.000033398911693,0.00029911358691534466
1355.2817117604409,1355.2817117604409,1.0000525096904969,0.0002991143007369529
1355.288656333661,1355.288656333661,0.999797666384185,0.00029907855425061593
1355.2956009068341,1355.2956009068341,1.0001464532563498,0.0002991151627970857
1355.302545480054,1355.302545480054,1.0002568408008239,0.00029909234051022255
1355.309490053181,1355.309490053181,0.9997797288685886,0.00029900968155230476
1355.3164346263072,1355.3164346263072,1.0000498768969361,0.0002991312921348414
1355.3233791994342,1355.3233791994342,0.9998474535930979,0.0002990445001567244
1355.330323772561,1355.330323772561,0.9994040570100843,0.0002990389735784352
1355.3386572602662,1355.3386572602662,1.0005160654312695,0.0002991684421052035
1355.3456018333234,1355.3456018333234,0.9993488322067829,0.000299007987442006
1355.352546406357,1355.352546406357,1.0001006601598181,0.000299089973862973
1355.3594909793906,1355.3594909793906,1.0000368115041465,0.0002991081337487599
1355.3664355523774,1355.3664355523774,0.9997595186117818,0.00029902270451307404
1355.3733801253413,1355.3733801253413,1.0002927608773409,0.00029907796808924567
1355.3803246983052,1355.3803246983052,1.0000319681574958,0.0002990409154511712
1355.387269271222,1355.387269271222,1.0002282923495778,0.0002990850372236627
1355.3944916270877,1355.3944916270877,0.9999126590050098,0.0002990313593781393
1355.4025473316124,1355.4025473316124,1.0005361938773945,0.00029911572414247794
1355.4094919044826,1355.4094919044826,0.9999479504688434,0.0002990621706557387
1355.41643647733,1355.41643647733,1.0002715207181807,0.00029909305779316446
1355.4233810501541,1355.4233810501541,1.000003684378552,0.0002990740107779939
1355.4303256229546,1355.4303256229546,0.9998426329131448,0.0002990116581809247
1355.4372701957323,1355.4372701957323,0.9998175236240575,0.00029905384203476784
1355.44421476851,1355.44421476851,0.9999309748077995,0.0002990845801826065
1355.4511593412406,1355.4511593412406,0.999969420415886,0.00029906785487330406
1355.4581039139487,1355.4581039139487,0.9998046407991495,0.00029905877265958475
1355.4650484866327,1355.4650484866327,1.0002959694432727,0.00029910515986024844
1355.4719930593171,1355.4719930593171,0.9999450287679238,0.00029907715267399055
1355.4789376319552,1355.4789376319552,0.9998555652225332,0.0002990575690944484
1355.485882204546,1355.485882204546,1.0003696286542056,0.0002991260738027125
1355.4928267772073,1355.4928267772073,0.9997747002331072,0.0002990145182517132
1355.4997713497517,1355.4997713497517,0.9999417907861199,0.0002990342992671552
1355.5067159222967,1355.5067159222967,1.0002792710119277,0.00029905625908362697
1355.5136604948411,1355.5136604948411,0.9998616254689082,0.00029903695559725603
1355.5206050673858,1355.5206050673858,1.000007558424861,0.00029905938395056216
1355.527549639814,1355.527549639814,1.0000088920887404,0.00029904990262284595
1355.534494212312,1355.534494212312,1.0001291574874227,0.00029906948551340103
1355.5414387847404,1355.5414387847404,0.9997499524096909,0.00029894218665542355
1355.5483833571686,1355.5483833571686,0.9998459397815441,0.0002990231064281788
1355.5553279295737,1355.5553279295737,0.999877367947291,0.0002989867172209727
1355.5622725019086,1355.5622725019086,1.0005377654638339,0.0002991345460310929
1355.569217074267,1355.569217074267,1.000063430676915,0.00029905197648912745
1355.576161646602,1355.576161646602,0.9999586802421196,0.0002990534061913244
1355.5831062188909,1355.5831062188909,1.0000694037218845,0.0002990366659633307
1355.5900507911792,1355.5900507911792,0.99994261205903,0.0002990403592549911
1355.5969953634215,1355.5969953634215,0.9997630176882097,0.00029903331120123073
1355.6039399356632,1355.6039399356632,1.0000428791870726,0.0002990623515534571
1355.6108845078584,1355.6108845078584,0.9998580375952504,0.00029898541262541147
1355.6178290800308,1355.6178290800308,0.9998510377692187,0.00029900858585609104
1355.6247736521793,1355.6247736521793,0.9998390301730243,0.0002990085265274303
1355.6317182243286,1355.6317182243286,1.0002065024754554,0.00029902800477340694
1355.638662796431,1355.638662796431,1.0002136777198867,0.00029898939603760944
1355.6456073685097,1355.6456073685097,1.000183561754818,0.00029898485781934965
1355.6525519405657,1355.6525519405657,0.9999399698101584,0.000298993847719678
1355.6594965125746,1355.6594965125746,0.9999951872336167,0.0002989457007999029
1355.6664410846302,1355.6664410846302,0.9999413067222436,0.000299014712586379
1355.6733856566166,1355.6733856566166,0.9999484964151136,0.00029895172570824
1355.6803302285787,1355.6803302285787,0.9997218201417855,0.0002989686043612335
1355.6872748004712,1355.6872748004712,1.0001827223097917,0.0002990611645837661
1355.6942193723878,1355.6942193723878,1.0000812880401626,0.00029905754049991716
1355.7011639442803,1355.7011639442803,1.0001444555740988,0.000299049784112602
1355.7081085161267,1355.7081085161267,1.0001005040574893,0.00029902632089376396
1355.7150530879728,1355.7150530879728,1.0004239217633855,0.0002990688576269161
1355.7219976597721,1355.7219976597721,0.9996192110898929,0.0002989913460704734
1355.7289422315484,1355.7289422315484,0.9998125349576432,0.00029902986454360926
1355.7358868033016,1355.7358868033016,0.9996099707188678,0.000298986940888703
1355.7433869407882,1355.7433869407882,0.9998343173424757,0.00029904294953737116
1355.751164861107,1355.751164861107,1.0003666734536303,0.00029900502696829855
1355.7581094327902,1355.7581094327902,0.9999433163735281,0.0002990340052831142
1355.7650540044037,1355.7650540044037,1.000082533778221,0.0002990144882194071
1355.7719985760405,1355.7719985760405,1.0001854676046178,0.00029902420792900746
1355.7789431476535,1355.7789431476535,1.0000769710401771,0.00029905695707497766
1355.7858877192205,1355.7858877192205,1.0001239560641868,0.00029905768510616
1355.792832290764,1355.792832290764,0.9999586903224114,0.0002989770635052364
1355.799776862284,1355.799776862284,1.0001867356536407,0.00029901617343340597
1355.8067214337811,1355.8067214337811,0.9997032465303001,0.0002989323667291704
1355.8136660052546,1355.8136660052546,0.9999144917197974,0.00029896717188645177
1355.8206105767051,1355.8206105767051,0.999547587494089,0.0002989294978474238
1355.8275551481322,1355.8275551481322,1.000644922775319,0.00029907578266318946
1355.8344997195127,1355.8344997195127,0.9995747733178039,0.00029891449513782576
1355.841444290893,1355.841444290893,0.999736958868126,0.0002989307766738848
1355.848388862227,1355.848388862227,1.0003918516494186,0.00029903858067709674
1355.855333433538,1355.855333433538,1.0004251377721531,0.00029901286579037784
1355.8622780048017,1355.8622780048017,0.9995977051933884,0.00029892606482497474
1355.8692225760892,1355.8692225760892,1.0005470754327,0.00029900081688044366
1355.876167147307,1355.876167147307,0.9993993064729857,0.00029889683572475957
