time,time,flux,flux_err
1517.3651373388457,1517.3651373388457,1.000039759507701,0.0003896118138704416
1517.3746282575914,1517.3746282575914,1.0008093752160976,0.00035148819976577863
1517.381572832626,1517.381572832626,1.000526245259108,0.0003483094233824182
1517.388517408127,1517.388517408127,0.9997506288762891,0.0003454058541926811
1517.3957397669697,1517.3957397669697,1.0004568322625986,0.0003426980621116306
1517.403795475327,1517.403795475327,0.9992973646586218,0.00033938986472942365
1517.410740051852,1517.410740051852,0.9995506124933142,0.00033732547880800776
1517.4176846287496,1517.4176846287496,1.0001240220177465,0.0003353118347178603
1517.424629205926,1517.424629205926,1.0002319806124695,0.00033341207832789045
1517.4315737834295,1517.4315737834295,1.0009705889629266,0.00033187678213026425
1517.4385183612114,1517.4385183612114,0.9996358088470861,0.0003300711056134163
1517.44546293932,1517.44546293932,0.9997940444580452,0.0003286993970252757
1517.4524075176607,1517.4524075176607,1.000184201317047,0.0003274125537352344
1517.4593520963278,1517.4593520963278,1.0000909886484357,0.00032604950825225525
1517.4662966752742,1517.4662966752742,1.000153350864758,0.00032496567682382743
1517.4732412545004,1517.4732412545004,0.9998844215439607,0.0003238934707905399
1517.4801858340052,1517.4801858340052,1.000799657003526,0.00032299293775316497
1517.4871304137437,1517.4871304137437,0.9996256877758738,0.0003218416704566334
1517.494074993761,1517.494074993761,1.0000696963303732,0.00032101509465630007
1517.5010195739644,1517.5010195739644,1.0001817119930005,0.0003201249144154867
1517.507964154541,1517.507964154541,0.9996531950832012,0.00031924411919414305
1517.5149087352104,1517.5149087352104,1.0002334480925157,0.00031852117269021726
1517.5218533162056,1517.5218533162056,0.9998189082186476,0.00031760585074436926
1517.5287978973406,1517.5287978973406,0.9996660582062802,0.0003169651951062444
1517.5357424788483,1517.5357424788483,0.9997307104291225,0.00031628166554729416
1517.5426870604485,1517.5426870604485,1.0000932549585297,0.0003155964035998836
1517.5496316423291,1517.5496316423291,1.000772807077699,0.0003151891468081441
1517.5565762243955,1517.5565762243955,0.9998763930419123,0.00031442798451167275
1517.563520806741,1517.563520806741,0.9997990321898413,0.0003138395995058715
1517.5704653891335,1517.5704653891335,1.0002810105684954,0.00031332863466291053
1517.577409971805,1517.577409971805,1.0000890393057942,0.0003129195557841413
1517.5843545546634,1517.5843545546634,0.9995272749961635,0.00031233088184463403
1517.5912991376608,1517.5912991376608,1.0000128183243338,0.0003119553940758472
1517.5982437208913,1517.5982437208913,1.000029656872785,0.0003115675218371292
1517.6051883043547,1517.6051883043547,1.0006111559624427,0.0003112457939329845
1517.612132887911,1517.612132887911,0.9997022649046017,0.00031085002698667255
1517.6190774716074,1517.6190774716074,1.0004858501826859,0.0003105314483550249
1517.62602205549,1517.62602205549,1.0001120458748534,0.00031022028196907645
1517.6329666395582,1517.6329666395582,0.999806253645728,0.00030977477682772613
1517.6399112237668,1517.6399112237668,0.9997555785109278,0.0003094997972926339
1517.6468558081615,1517.6468558081615,0.9996341543896261,0.0003091661069125626
1517.6538003927426,1517.6538003927426,0.9997151996405315,0.00030890944451043796
1517.6607449774633,1517.6607449774633,1.000543179728272,0.0003085990125131241
1517.6676895621836,1517.6676895621836,1.0000053893330592,0.00030825909610871833
1517.674634147184,1517.674634147184,1.000388204765849,0.0003080345642212567
1517.6815787322303,1517.6815787322303,1.0001173673368098,0.0003076658763484716
1517.6885233174635,1517.6885233174635,1.0002163286538612,0.0003074024753996146
1517.6954679028358,1517.6954679028358,0.9995063035415074,0.00030701271037846943
1517.7024124883017,1517.7024124883017,0.9998051594687922,0.00030673962627004965
1517.7093570739532,1517.7093570739532,0.9996879082816761,0.0003063942787751055
1517.716301659652,1517.716301659652,1.0006211503930704,0.0003062361163048388
1517.7232462455365,1517.7232462455365,1.0000693057625263,0.00030586892312720385
1517.7301908314216,1517.7301908314216,0.9995054833608732,0.0003055088840414982
1517.7371354175393,1517.7371354175393,1.0000992312611623,0.0003052051590936827
1517.74408000375,1517.74408000375,1.0002021526879565,0.0003050910496623397
1517.751024590007,1517.751024590007,1.0002004979524362,0.0003047920930709876
1517.7579691764042,1517.7579691764042,0.9998699813649738,0.00030449314163878975
1517.7649137628946,1517.7649137628946,0.9998006771498271,0.00030413892941862444
1517.7718583494777,1517.7718583494777,1.0001267551929205,0.0003040199960682747
1517.7788029362007,1517.7788029362007,1.0000356548202192,0.00030379305477019425
1517.78574752297,1517.78574752297,1.0001821777238424,0.0003035466109762602
1517.7926921097862,1517.7926921097862,0.9999125128088202,0.0003032377370678656
1517.7996366967886,1517.7996366967886,0.9997412538824209,0.0003030783704839771
1517.8065812838374,1517.8065812838374,0.9998642164750186,0.000302793484050021
1517.813525870933,1517.813525870933,1.0002311774393602,0.00030274178087955214
1517.8204704581683,1517.8204704581683,1.0002160512456404,0.0003024649463138134
1517.8274150454502,1517.8274150454502,0.9996896860463987,0.000302149472571239
1517.834359632825,1517.834359632825,1.0003330992660142,0.0003020558374065129
1517.8413042202465,1517.8413042202465,0.9995901109855563,0.00030186059423094054
1517.8482488077607,1517.8482488077607,0.9998304303827874,0.0003016562481587444
1517.8551933953224,1517.8551933953224,1.0002219775471626,0.0003016843419963198
1517.862137983023,1517.862137983023,1.0003969729487665,0.00030143691370135365
1517.8690825707238,1517.8690825707238,0.9998230554756047,0.00030124403294909494
1517.8760271585184,1517.8760271585184,0.999807020566004,0.00030112103287159494
1517.8829717463582,1517.8829717463582,1.00016783653705,0.0003010056162158915
1517.889916334292,1517.889916334292,1.000142102165884,0.00030090539342616775
1517.896860922226,1517.896860922226,0.999816961085007,0.00030069640545540133
1517.9038055102526,1517.9038055102526,0.9999047984586873,0.000300661531290831
1517.9107500984192,1517.9107500984192,0.9999306431437345,0.00030054926588312444
1517.9176946863995,1517.9176946863995,0.9995280108051657,0.00030038231479614377
1517.9246392746122,1517.9246392746122,1.0002719340509045,0.0003003830391379021
1517.9315838628254,1517.9315838628254,1.0005326113712263,0.00030031803606896275
1517.9385284512714,1517.9385284512714,1.0001125862595701,0.0003001520789411488
1517.9468619572203,1517.9468619572203,0.9995490187600582,0.00030009073042449447
1517.9538065455731,1517.9538065455731,0.9998962244198051,0.00030006381647693136
1517.960751134066,1517.960751134066,1.0001713759211293,0.000300004902510366
1517.9676957225113,1517.9676957225113,1.0000925670645653,0.00029987851005235897
1517.9746403110507,1517.9746403110507,1.0004690436835264,0.0002998381991476459
1517.9815848995895,1517.9815848995895,0.9997824726117903,0.0002996876473430681
1517.9885294881751,1517.9885294881751,0.9998822011458056,0.0002996918678602776
1517.9954740768076,1517.9954740768076,1.000500447824041,0.0002996535391374533
1518.002418665486,1518.002418665486,1.0002865901031377,0.00029953146438658573
1518.0093632541652,1518.0093632541652,0.9995844838692003,0.00029951680270034055
1518.016307842937,1518.016307842937,0.9997120585399397,0.0002993060950618759
1518.0232524317084,1518.0232524317084,0.999839220095175,0.0002993637664571152
1518.0301970205273,1518.0301970205273,1.0007079271447235,0.0002993240477702757
1518.0371416092992,1518.0371416092992,0.9996947856630326,0.0002991735885840365
1518.0440861981638,1518.0440861981638,0.9996578090301549,0.00029917021720568657
1518.0510307870288,1518.0510307870288,0.9999651386739608,0.00029901531165398736
1518.0579753759407,1518.0579753759407,1.0003768661111319,0.0002990399715721097
1518.064919964852,1518.064919964852,1.0005670212338895,0.00029895779222980474
1518.0718645538104,1518.0718645538104,1.0000968819666427,0.00029873074431760417
1518.078809142815,1518.078809142815,0.9995168229789323,0.0002987807238816038
1518.085753731773,1518.085753731773,1.0001137379667475,0.00029868655890529584
1518.0926983207778,1518.0926983207778,0.9997676174614932,0.000298686345546826
1518.099642909829,1518.099642909829,1.0001457621517116,0.0002985235727599426
1518.10658749888,1518.10658749888,0.9996779049816856,0.0002984666634168606
1518.1135320879316,1518.1135320879316,0.9999957886447293,0.00029847835502433184
1518.120476676983,1518.120476676983,0.9999777928401727,0.00029841751415087247
1518.1274212661272,1518.1274212661272,1.0002367172752278,0.00029836784344956097
1518.1343658552255,1518.1343658552255,0.9998622538976925,0.0002983093232708255
1518.141310444323,1518.141310444323,1.0003719261737114,0.0002983230551505711
1518.1482550334672,1518.1482550334672,0.999963266203685,0.00029820228727472204
1518.1551996226117,1518.1551996226117,0.9998817779311422,0.00029809522239086073
1518.1621442117562,1518.1621442117562,0.9998740634899506,0.00029806133737068517
1518.1690888009002,1518.1690888009002,1.000927591202243,0.0002981753469908397
1518.1760333900452,1518.1760333900452,1.0000369444971577,0.0002979997879506976
1518.1829779792358,1518.1829779792358,0.9997144043580907,0.0002978246878566562
1518.189922568427,1518.189922568427,1.0001706684085925,0.0002978353731390052
1518.196867157618,1518.196867157618,0.9997759133242244,0.00029777199387600185
1518.2038117468085,1518.2038117468085,0.9998064595420108,0.00029776661294117143
1518.2107563359998,1518.2107563359998,0.9997459830046838,0.0002977976561711009
1518.217700925144,1518.217700925144,1.0001872575036947,0.00029775920504228435
1518.2246455143352,1518.2246455143352,1.000573966146786,0.0002977179885765071
1518.2315901035731,1518.2315901035731,1.000007710701147,0.00029761451331722464
1518.2385346927638,1518.2385346927638,0.9994764180989577,0.00029756826016856004
1518.2454792819547,1518.2454792819547,0.9999143539089296,0.00029757984154063597
1518.2524238711458,1518.2524238711458,0.9996869120813241,0.00029747748903805233
1518.2593684603369,1518.2593684603369,1.0005418445085286,0.00029759762058787073
1518.2668686166776,1518.2668686166776,1.0007152834266209,0.00029748053868771193
1518.2746465565474,1518.2746465565474,0.9999991861923465,0.0002974242302571708
1518.281591145738,1518.281591145738,0.999878585819796,0.0002974426169108697
1518.2885357349292,1518.2885357349292,0.9997961976472034,0.00029728955676129387
1518.2954803240737,1518.2954803240737,0.9996943479455833,0.0002974126138985239
1518.3024249132645,1518.3024249132645,0.9999804439010435,0.0002972772870219383
1518.3096472859843,1518.3096472859843,1.0004602078167237,0.00029746533179938713
1518.3177030093823,1518.3177030093823,0.9995320674186994,0.0002973127700918804
1518.3246475985266,1518.3246475985266,1.0000006438757958,0.00029732023470597314
1518.3315921876715,1518.3315921876715,1.000255970596604,0.0002973356180589521
1518.338536776769,1518.338536776769,0.9999747329771977,0.00029729322766641547
1518.3454813659132,1518.3454813659132,1.000094752085024,0.00029726915951460646
1518.3524259550113,1518.3524259550113,0.9999566066884054,0.0002972428646150679
1518.3593705441094,1518.3593705441094,0.9998886391800841,0.00029708830295552936
1518.3663151332069,1518.3663151332069,0.9995310400345044,0.00029712327461136473
1518.3732597222117,1518.3732597222117,1.0006894119692524,0.00029708682590138635
1518.3802043113092,1518.3802043113092,1.0000745571179286,0.0002969980928317593
1518.3871489003143,1518.3871489003143,0.9996159033204812,0.00029693677042887877
1518.3940934893653,1518.3940934893653,0.9998256402646367,0.00029695222213952955
1518.4010380783698,1518.4010380783698,1.0002217769359032,0.00029697523375730425
1518.4079826674213,1518.4079826674213,0.9999585158746045,0.00029687370341671167
1518.416038390587,1518.416038390587,1.0001374247021473,0.00029689473233627465
1518.42326076312,1518.42326076312,0.9999938347670542,0.0002969206979639733
1518.4302053520782,1518.4302053520782,0.9998142840844817,0.0002967562047912208
1518.43714994099,1518.43714994099,0.9998482977313253,0.00029667526810838205
1518.4440945299011,1518.4440945299011,1.000064008248546,0.0002967624316477065
1518.4510391188128,1518.4510391188128,0.9997819473780147,0.0002968148480882083
1518.4582614912065,1518.4582614912065,1.0004856720594972,0.00029675791349250574
1518.4663172143253,1518.4663172143253,0.9999304596447415,0.0002966618536972476
1518.4732618030969,1518.4732618030969,0.9999565168261355,0.0002967161298719953
1518.4802063919155,1518.4802063919155,0.9999678188174423,0.000296730516727169
1518.4871509806874,1518.4871509806874,1.000043271601227,0.0002967314771288556
1518.494095569506,1518.494095569506,0.9996029403696131,0.0002966487200138771
1518.501040158231,1518.501040158231,0.9998551639159594,0.00029668877124235945
1518.5079847469565,1518.5079847469565,1.0006574540429034,0.0002967116691517078
1518.5149293356815,1518.5149293356815,1.0000123895913888,0.00029672018824860485
1518.5218739243603,1518.5218739243603,1.0004309419197674,0.0002966892883144259
1518.5288185130394,1518.5288185130394,0.999705984119475,0.0002966693550736308
1518.5357631016245,1518.5357631016245,0.9995029404744782,0.00029661557376119
1518.5427076902104,1518.5427076902104,0.9999245240401194,0.0002967209468724263
1518.5496522788428,1518.5496522788428,0.9997280045678829,0.00029662927175248165
1518.5565968673814,1518.5565968673814,1.0002175162113855,0.00029666667155790435
1518.5635414559672,1518.5635414559672,1.000479521480218,0.00029670488490107273
1518.5704860444596,1518.5704860444596,0.999900413860327,0.00029668412554439055
1518.577430632952,1518.577430632952,1.0001135347789045,0.00029678207748400233
1518.584375221398,1518.584375221398,1.0001543881300516,0.0002965963728498791
1518.591319809844,1518.591319809844,0.9996256089431552,0.0002965859814843204
1518.598264398243,1518.598264398243,1.0001477112510788,0.0002965974680489295
1518.6052089865964,1518.6052089865964,0.9998345776968554,0.00029669668788955195
1518.612153574995,1518.612153574995,0.9997179081493345,0.0002966252241112393
1518.6190981632549,1518.6190981632549,1.0001661127968748,0.0002967372572304899
1518.626042751654,1518.626042751654,1.0002410272199203,0.0002966579240772853
1518.6329873398677,1518.6329873398677,0.9999080789175206,0.00029671610580745886
1518.6399319280804,1518.6399319280804,1.0004333460767802,0.00029675857448552143
1518.6468765162936,1518.6468765162936,0.9997605527190705,0.0002966948829419458
1518.6538211045067,1518.6538211045067,0.999806320561356,0.0002965734503905536
1518.6607656927195,1518.6607656927195,1.0000551048046797,0.00029674000348035883
1518.6677102807,1518.6677102807,0.9995403654670939,0.00029651810026168655
1518.674654868913,1518.674654868913,0.9997031484659479,0.00029666926233018584
1518.6815994568933,1518.6815994568933,1.0006208560426386,0.0002966804097765943
1518.6885440449664,1518.6885440449664,1.0000612439020051,0.00029672984363456436
1518.6954886329465,1518.6954886329465,0.999582645600487,0.00029669449031098215
1518.702433220927,1518.702433220927,1.0006054380432623,0.0002967136293079755
1518.7093778088606,1518.7093778088606,1.0002641406837398,0.0002965964073984932
1518.7163223967477,1518.7163223967477,0.9999912177651463,0.00029660808948703054
1518.723266984635,1518.723266984635,0.9997120052143863,0.00029647888705147544
1518.730211572429,1518.730211572429,0.999957246614281,0.00029657753648784803
1518.7371561602697,1518.7371561602697,0.9995915075427717,0.00029661150658840546
1518.7441007480636,1518.7441007480636,1.00022572912416,0.0002967904492840859
1518.751045335764,1518.751045335764,1.0001273137544273,0.0002967140406625708
1518.757989923465,1518.757989923465,0.9998456252974453,0.00029666870138109143
1518.7649345112127,1518.7649345112127,1.0003427371367457,0.000296676481996334
1518.77187909882,1518.77187909882,1.0001300898548553,0.00029661184073477375
1518.7788236863817,1518.7788236863817,1.0000896434379494,0.00029672082371776586
1518.785768273989,1518.785768273989,0.9995357726718719,0.00029664116597935303
1518.7927128615033,1518.7927128615033,0.9996270202700032,0.00029651926710093477
1518.7996574489716,1518.7996574489716,0.9999928439812937,0.0002965452517841496
1518.8066020364395,1518.8066020364395,1.0008171941464874,0.0002967954274387209
1518.8135466238612,1518.8135466238612,1.0000700856230886,0.0002966759121547628
1518.8204912112824,1518.8204912112824,1.0001404417190325,0.00029661922989561933
1518.8274357986108,1518.8274357986108,1.0001364901058722,0.0002966350114070649
1518.834380385939,1518.834380385939,1.0001704752190483,0.0002967222846047057
1518.841324973221,1518.841324973221,0.9998033397585996,0.00029655377822220886
1518.8482695605026,1518.8482695605026,0.9999451721105832,0.0002966569584378719
1518.8552141476914,1518.8552141476914,0.9998900165830549,0.0002966215354480564
1518.862158734833,1518.862158734833,0.9998728097243511,0.0002966375513680536
1518.8691033219752,1518.8691033219752,1.0003358792749921,0.0002967802982827929
1518.8760479091638,1518.8760479091638,0.999939288667869,0.0002966981661087743
1518.8829924962126,1518.8829924962126,1.0001918678032828,0.00029673060779940644
1518.8899370832619,1518.8899370832619,0.9998959189763259,0.0002966521462254458
1518.8968816700776,1518.8968816700776,0.9998147235839138,0.00029659646809113545
1518.9038262571269,1518.9038262571269,1.0000507082285082,0.0002966868489632184
1518.9107708439892,1518.9107708439892,0.9997215600213263,0.00029661095284000714
1518.917715430852,1518.917715430852,0.9999992674855743,0.0002966659088880129
1518.9246600177146,1518.9246600177146,0.9999060503774677,0.00029662662466938445
1518.9316046044837,1518.9316046044837,1.0003236254879528,0.00029675958336908265
1518.938549191254,1518.938549191254,1.0002600035069642,0.00029677883004413486
1518.9454937779296,1518.9454937779296,0.9998967647273768,0.00029666705118946486
1518.9524383646065,1518.9524383646065,1.0001032632793794,0.0002966803931686248
1518.959382951283,1518.959382951283,1.0000455782336992,0.0002965832787838422
1518.9663275378196,1518.9663275378196,0.9998257472791906,0.00029672835105390536
1518.9732721244025,1518.9732721244025,1.0002031767433146,0.0002967440931026503
1518.980216710893,1518.980216710893,1.0004410511555226,0.00029685201326076045
1518.9871612973366,1518.9871612973366,0.9991977779491789,0.0002967005649580877
1518.9941058838263,1518.9941058838263,0.9997820000734107,0.00029666635490998845
1519.0010504701772,1519.0010504701772,1.000235989046605,0.0002966473498789858
1519.0079950565273,1519.0079950565273,0.9996212901675735,0.0002966441248516483
1519.0149396428312,1519.0149396428312,1.0002829779393358,0.000296735133035715
1519.021884229135,1519.021884229135,0.9998616433851584,0.0002966051367103567
1519.0288288152992,1519.0288288152992,1.0002408991784129,0.00029665482257497936
1519.0357734015101,1519.0357734015101,1.0001419549903678,0.0002967078754744967
1519.042717987674,1519.042717987674,1.0000331637657207,0.0002966422237809786
1519.049662573745,1519.049662573745,1.0000159681372964,0.0002966491362992985
1519.0566071598162,1519.0566071598162,0.9998703259909751,0.00029663853371390467
1519.0635517457479,1519.0635517457479,0.99985546424072,0.00029669564495961586
1519.070496331865,1519.070496331865,1.0003168749847835,0.0002967352153756552
1519.0774409177498,1519.0774409177498,0.9997712438425264,0.0002966401109948754
1519.0843855036346,1519.0843855036346,1.0000424923702957,0.0002966016293117513
1519.091330089519,1519.091330089519,0.9999279146721077,0.000296619191863051
1519.0982746752175,1519.0982746752175,0.9998305092464331,0.00029663823556218976
1519.105219261056,1519.105219261056,1.0000403936923654,0.00029670179669250246
1519.112163846708,1519.112163846708,1.0000883127112203,0.00029662984137045163
1519.1191084324062,1519.1191084324062,0.9999191604138737,0.0002966368244624282
1519.1260530180116,1519.1260530180116,1.0002716061553494,0.00029669363932705484
1519.1329976035706,1519.1329976035706,1.000339258542001,0.00029670373131149654
