time,time,flux,flux_err
1354.1143272566014,1354.1143272566014,12549.286,14.555181
1354.115716163311,1354.115716163311,12540.891,14.546851
1354.1184939762625,1354.1184939762625,12554.095,14.544985
1354.1198828825063,1354.1198828825063,12553.785,14.556537
1354.1212717892154,1354.1212717892154,12551.852,14.550121
1354.1226606954585,1354.1226606954585,12569.323,14.562354
1354.1240496021674,1354.1240496021674,12563.343,14.554714
1354.1254385084112,1354.1254385084112,12581.849,14.564856
1354.126827415121,1354.126827415121,12553.868,14.549747
1354.128216321364,1354.128216321364,12544.343,14.547113
1354.1296052280732,1354.1296052280732,12525.313,14.5350275
1354.130994134316,1354.130994134316,12560.433,14.553933
1354.1323830405595,1354.1323830405595,12567.102,14.556978
1354.133771947269,1354.133771947269,12544.583,14.548678
1354.1351608535124,1354.1351608535124,12535.429,14.541554
1354.136549760221,1354.136549760221,12548.726,14.548871
1354.137938666465,1354.137938666465,12600.091,14.57017
1354.1393275727082,1354.1393275727082,12571.891,14.553629
1354.1407164794177,1354.1407164794177,12557.648,14.549625
1354.1421053856611,1354.1421053856611,12529.497,14.53474
1354.1434942919036,1354.1434942919036,12532.779,14.536568
1354.1448831981475,1354.1448831981475,12562.133,14.550262
1354.146272104857,1354.146272104857,12544.277,14.545558
1354.1476610111004,1354.1476610111004,12565.041,14.553879
1354.1490499173435,1354.1490499173435,12545.501,14.550753
1354.1504388235867,1354.1504388235867,12529.1875,14.53922
1354.1518277298305,1354.1518277298305,12546.529,14.54653
1354.1532166365403,1354.1532166365403,12567.858,14.558692
1354.154605542783,1354.154605542783,12566.581,14.553838
1354.155994449026,1354.155994449026,12546.333,14.54378
1354.1573833552698,1354.1573833552698,12518.668,14.54007
1354.1587722615138,1354.1587722615138,12545.909,14.545438
1354.160161167757,1354.160161167757,12551.825,14.547697
1354.1615500739995,1354.1615500739995,12539.219,14.544545
1354.1629389802433,1354.1629389802433,12518.199,14.535858
1354.164327886953,1354.164327886953,12547.986,14.550582
1354.1657167931962,1354.1657167931962,12539.261,14.540833
1354.1671056994396,1354.1671056994396,12549.529,14.553478
1354.1684946056826,1354.1684946056826,12551.181,14.547303
1354.1698835119266,1354.1698835119266,12556.981,14.553478
1354.1712724181707,1354.1712724181707,12555.419,14.553493
1354.1726613244132,1354.1726613244132,12565.572,14.556717
1354.1740502301907,1354.1740502301907,12548.103,14.545964
1354.1754391364348,1354.1754391364348,12551.848,14.5541935
1354.1768280426777,1354.1768280426777,12541.77,14.544037
1354.1782169489215,1354.1782169489215,12557.741,14.548441
1354.179605855165,1354.179605855165,12547.826,14.554826
1354.1809947614083,1354.1809947614083,12534.178,14.541666
1354.1823836676522,1354.1823836676522,12577.632,14.555632
1354.183772573895,1354.183772573895,12553.732,14.555052
1354.1851614801392,1354.1851614801392,12560.381,14.550888
1354.1865503859167,1354.1865503859167,12557.501,14.558843
1354.1879392921592,1354.1879392921592,12556.152,14.553112
1354.1893281984032,1354.1893281984032,12557.474,14.547182
1354.1907171046473,1354.1907171046473,12563.892,14.551243
1354.1921060104246,1354.1921060104246,12534.334,14.546451
1354.193494916668,1354.193494916668,12547.287,14.546625
1354.1948838229112,1354.1948838229112,12569.653,14.556096
1354.1962727291552,1354.1962727291552,12533.282,14.54593
1354.1976616349334,1354.1976616349334,12532.872,14.538962
1354.199050541176,1354.199050541176,12542.932,14.542475
1354.200439447419,1354.200439447419,12549.814,14.546097
1354.2018283531975,1354.2018283531975,12546.837,14.547434
1354.2032172594413,1354.2032172594413,12560.774,14.551004
1354.2046061656843,1354.2046061656843,12557.711,14.551226
1354.2059950714613,1354.2059950714613,12541.763,14.541857
1354.2073839777054,1354.2073839777054,12563.114,14.549834
1354.2087728834836,1354.2087728834836,12559.185,14.5515995
1354.2101617897265,1354.2101617897265,12568.147,14.555635
1354.21155069597,1354.21155069597,12562.363,14.547166
1354.2129396017476,1354.2129396017476,12551.135,14.545189
1354.2143285079915,1354.2143285079915,12522.322,14.530263
1354.2157174137697,1354.2157174137697,12525.466,14.539262
1354.2171063200121,1354.2171063200121,12547.72,14.543497
1354.2184952257899,1354.2184952257899,12525.318,14.53639
1354.2198841320337,1354.2198841320337,12565.799,14.557039
1354.2212730378112,1354.2212730378112,12543.016,14.546014
1354.2226619440553,1354.2226619440553,12531.02,14.540937
1354.2240508498326,1354.2240508498326,12552.358,14.550159
1354.2254397556103,1354.2254397556103,12555.487,14.54937
1354.2268286618541,1354.2268286618541,12554.532,14.549014
1354.2282175676319,1354.2282175676319,12563.383,14.548928
1354.2296064738748,1354.2296064738748,12543.372,14.541459
1354.2309953796525,1354.2309953796525,12559.393,14.550349
1354.23238428543,1354.23238428543,12536.608,14.542042
1354.2337731916741,1354.2337731916741,12549.688,14.549192
1354.2351620974523,1354.2351620974523,12551.191,14.547511
1354.2365510032298,1354.2365510032298,12580.756,14.556628
1354.2379399090073,1354.2379399090073,12538.937,14.545327
1354.2393288152507,1354.2393288152507,12549.947,14.544251
1354.240717721029,1354.240717721029,12538.411,14.542186
1354.242106626807,1354.242106626807,12557.254,14.556381
1354.243495532584,1354.243495532584,12543.59,14.546659
1354.2448844388273,1354.2448844388273,12575.615,14.558277
1354.2462733446055,1354.2462733446055,12563.347,14.552126
1354.2476622503837,1354.2476622503837,12542.899,14.543043
1354.2490511561614,1354.2490511561614,12541.898,14.544
1354.2504400619382,1354.2504400619382,12541.259,14.544445
1354.251828968182,1354.251828968182,12566.885,14.554392
1354.2532178739602,1354.2532178739602,12540.679,14.539263
1354.254606779738,1354.254606779738,12571.819,14.550312
1354.2559956855152,1354.2559956855152,12541.365,14.548718
1354.257384591293,1354.257384591293,12534.963,14.540029
1354.2587734970712,1354.2587734970712,12556.192,14.545114
1354.2601624028493,1354.2601624028493,12574.275,14.56094
1354.2615513086262,1354.2615513086262,12546.986,14.545929
1354.262940214404,1354.262940214404,12556.122,14.553917
1354.264329120182,1354.264329120182,12527.125,14.53673
1354.2657180259598,1354.2657180259598,12536.877,14.541983
1354.267106931738,1354.267106931738,12586.208,14.561003
1354.2684958375155,1354.2684958375155,12572.592,14.5543995
1354.269884743293,1354.269884743293,12544.262,14.544602
1354.2712736490712,1354.2712736490712,12557.868,14.551267
1354.272662554849,1354.272662554849,12551.495,14.546299
1354.2740514606267,1354.2740514606267,12558.559,14.549193
1354.275440366404,1354.275440366404,12549.476,14.545649
1354.2768292721817,1354.2768292721817,12570.536,14.548041
1354.2782181779598,1354.2782181779598,12563.773,14.545365
1354.279607083738,1354.279607083738,12558.357,14.54816
1354.28099598905,1354.28099598905,12558.086,14.549948
1354.2823848948274,1354.2823848948274,12542.002,14.547699
1354.283773800605,1354.283773800605,12530.8545,14.537936
1354.2851627063833,1354.2851627063833,12570.57,14.5567875
1354.286551612161,1354.286551612161,12543.338,14.534814
1354.2879405174722,1354.2879405174722,12549.957,14.543383
1354.2893294232504,1354.2893294232504,12573.398,14.554425
1354.2907183290286,1354.2907183290286,12538.502,14.538288
1354.2921072348067,1354.2921072348067,12573.573,14.5573845
1354.2934961401188,1354.2934961401188,12552.617,14.547219
1354.2948850458956,1354.2948850458956,12529.91,14.537604
1354.2962739516738,1354.2962739516738,12569.475,14.558199
1354.297662857452,1354.297662857452,12573.176,14.55144
1354.2990517627634,1354.2990517627634,12556.314,14.548233
1354.300440668541,1354.300440668541,12578.107,14.555482
1354.301829574319,1354.301829574319,12556.477,14.551092
1354.3032184796316,1354.3032184796316,12566.69,14.548812
1354.30460738541,1354.30460738541,12556.221,14.547893
1354.3059962907214,1354.3059962907214,12552.524,14.544154
1354.3073851964987,1354.3073851964987,12562.349,14.559158
1354.3087741022769,1354.3087741022769,12548.547,14.539118
1354.310163007589,1354.310163007589,12543.75,14.550269
1354.311551913367,1354.311551913367,12562.191,14.552319
1354.3129408186792,1354.3129408186792,12534.501,14.539663
1354.3143297244567,1354.3143297244567,12557.673,14.554129
1354.3157186297694,1354.3157186297694,12557.98,14.551133
1354.3171075355467,1354.3171075355467,12530.278,14.542519
1354.3184964408588,1354.3184964408588,12524.254,14.537807
1354.3198853466363,1354.3198853466363,12552.623,14.548071
1354.3212742519481,1354.3212742519481,12550.2705,14.5488
1354.3226631577263,1354.3226631577263,12555.723,14.549191
1354.3240520630388,1354.3240520630388,12591.285,14.565773
1354.3254409688166,1354.3254409688166,12552.371,14.544908
1354.3268298741286,1354.3268298741286,12545.577,14.546836
1354.3282187794402,1354.3282187794402,12557.607,14.556395
1354.3296076852184,1354.3296076852184,12559.712,14.552508
1354.3309965905305,1354.3309965905305,12557.584,14.550861
1354.3323854963073,1354.3323854963073,12555.466,14.546643
1354.3337744016198,1354.3337744016198,12532.347,14.540663
1354.3351633069326,1354.3351633069326,12568.56,14.554826
1354.336552212711,1354.336552212711,12543.575,14.543554
1354.3379411180226,1354.3379411180226,12541.801,14.545239
1354.3393300233338,1354.3393300233338,12553.724,14.548866
1354.3407189291122,1354.3407189291122,12544.694,14.545107
1354.342107834425,1354.342107834425,12539.488,14.544189
1354.343496739736,1354.343496739736,12571.112,14.554833
1354.3448856450477,1354.3448856450477,12557.328,14.550845
1354.3462745508261,1354.3462745508261,12572.105,14.555907
1354.347663456139,1354.347663456139,12541.501,14.538456
1354.3490523614514,1354.3490523614514,12562.681,14.55513
1354.3504412667626,1354.3504412667626,12568.026,14.544662
1354.3518301720744,1354.3518301720744,12557.911,14.549227
1354.3532190773872,1354.3532190773872,12540.12,14.543477
1354.3546079831644,1354.3546079831644,12528.425,14.539535
1354.3559968884765,1354.3559968884765,12554.189,14.547026
1354.3573857937884,1354.3573857937884,12559.6,14.548773
1354.358774699101,1354.358774699101,12557.205,14.552876
1354.3601636044136,1354.3601636044136,12565.875,14.555224
1354.3615525097255,1354.3615525097255,12540.613,14.545482
1354.3629414150373,1354.3629414150373,12573.942,14.55708
1354.3643303203494,1354.3643303203494,12550.593,14.550773
1354.365719225661,1354.365719225661,12541.505,14.537694
1354.3671081309737,1354.3671081309737,12535.189,14.536515
1354.3684970362865,1354.3684970362865,12545.592,14.542515
1354.369885941598,1354.369885941598,12562.239,14.5476
1354.3712748469102,1354.3712748469102,12538.281,14.5402775
1354.372663752222,1354.372663752222,12563.555,14.549497
1354.3740526575348,1354.3740526575348,12563.881,14.55183
1354.3754415628464,1354.3754415628464,12541.304,14.543562
1354.3768304681576,1354.3768304681576,12559.074,14.552382
1354.3782193734703,1354.3782193734703,12535.6455,14.542386
1354.379608278783,1354.379608278783,12553.049,14.542915
1354.3809971840956,1354.3809971840956,12559.888,14.549856
1354.3823860894074,1354.3823860894074,12574.772,14.55673
1354.3837749947188,1354.3837749947188,12543.527,14.544281
1354.3851639000313,1354.3851639000313,12563.409,14.553191
1354.3865528053439,1354.3865528053439,12577.222,14.558604
1354.387941710655,1354.387941710655,12532.525,14.539698
1354.3893306155014,1354.3893306155014,12560.433,14.55011
1354.390719520814,1354.390719520814,12549.746,14.540238
1354.3921084261265,1354.3921084261265,12573.717,14.559758
1354.393497331439,1354.393497331439,12560.529,14.549779
1354.3948862367502,1354.3948862367502,12551.34,14.55068
1354.3962751415966,1354.3962751415966,12586.881,14.557059
1354.397664046909,1354.397664046909,12555.441,14.553277
1354.3990529522212,1354.3990529522212,12557.4795,14.546767
1354.4004418575328,1354.4004418575328,12564.238,14.555011
1354.4018307623792,1354.4018307623792,12529.226,14.538095
1354.4032196676917,1354.4032196676917,12532.839,14.540497
1354.4046085730042,1354.4046085730042,12563.103,14.549606
1354.4059974778506,1354.4059974778506,12573.361,14.560964
1354.4073863831622,1354.4073863831622,12563.351,14.554822
1354.4087752884743,1354.4087752884743,12550.138,14.545416
1354.4101641933207,1354.4101641933207,12534.099,14.537471
1354.4115530986332,1354.4115530986332,12547.23,14.548567
1354.4129420039458,1354.4129420039458,12545.936,14.542693
1354.414330908792,1354.414330908792,12558.953,14.551233
1354.4157198141038,1354.4157198141038,12554.618,14.551264
1354.4171087194159,1354.4171087194159,12547.546,14.549258
1354.4184976242627,1354.4184976242627,12547.013,14.548518
1354.4198865295748,1354.4198865295748,12547.738,14.549177
1354.4212754344203,1354.4212754344203,12548.957,14.550039
1354.4226643397328,1354.4226643397328,12558.739,14.544922
1354.4240532445797,1354.4240532445797,12547.261,14.547886
1354.4254421498922,1354.4254421498922,12547.321,14.543867
1354.4268310547386,1354.4268310547386,12545.582,14.543834
1354.4282199600498,1354.4282199600498,12555.46,14.545054
1354.4296088648966,1354.4296088648966,12559.791,14.549962
1354.4309977702092,1354.4309977702092,12547.012,14.552363
1354.4323866750547,1354.4323866750547,12561.333,14.549534
1354.4337755803667,1354.4337755803667,12560.403,14.547073
1354.4351644852136,1354.4351644852136,12555.168,14.542716
1354.4365533905261,1354.4365533905261,12545.426,14.547101
1354.437942295373,1354.437942295373,12541.741,14.542519
1354.4393312002185,1354.4393312002185,12562.765,14.551782
1354.4407201055305,1354.4407201055305,12559.125,14.54306
1354.4421090103774,1354.4421090103774,12548.939,14.546241
1354.4434979152238,1354.4434979152238,12540.162,14.543266
1354.4448868205357,1354.4448868205357,12549.738,14.550233
1354.4462757253818,1354.4462757253818,12554.709,14.548753
1354.4476646302287,1354.4476646302287,12542.841,14.543947
1354.4490535355412,1354.4490535355412,12564.723,14.548843
1354.4504424403876,1354.4504424403876,12553.447,14.543804
1354.451831345234,1354.451831345234,12546.796,14.548663
1354.4532202505457,1354.4532202505457,12556.607,14.551787
1354.454609155392,1354.454609155392,12540.846,14.5366335
1354.455998060239,1354.455998060239,12559.076,14.553763
1354.4573869650858,1354.4573869650858,12553.773,14.546977
1354.4587758703979,1354.4587758703979,12545.823,14.550349
1354.460164775244,1354.460164775244,12537.99,14.543226
1354.4615536800902,1354.4615536800902,12555.917,14.548485
1354.462942584937,1354.462942584937,12552.326,14.545127
1354.4643314897835,1354.4643314897835,12556.788,14.547049
1354.4657203950946,1354.4657203950946,12569.691,14.555341
1354.4671092999415,1354.4671092999415,12541.383,14.545388
1354.4684982047884,1354.4684982047884,12534.442,14.544393
1354.4698871096352,1354.4698871096352,12559.307,14.557219
1354.4712760144816,1354.4712760144816,12544.24,14.543471
1354.4726649193271,1354.4726649193271,12550.274,14.545546
1354.474053824174,1354.474053824174,12541.908,14.549016
1354.4754427290209,1354.4754427290209,12568.872,14.551451
1354.4768316343323,1354.4768316343323,12560.641,14.550597
1354.4782205391784,1354.4782205391784,12530.492,14.537887
1354.4796094440253,1354.4796094440253,12547.903,14.54636
1354.4809983488724,1354.4809983488724,12539.123,14.545214
1354.4823872537195,1354.4823872537195,12539.62,14.53939
1354.483776158565,1354.483776158565,12546.082,14.543023
1354.485165063411,1354.485165063411,12564.275,14.551565
1354.486553968258,1354.486553968258,12538.572,14.542225
1354.4879428731042,1354.4879428731042,12557.493,14.550595
1354.4893317779506,1354.4893317779506,12547.609,14.547443
1354.4907206827966,1354.4907206827966,12561.518,14.5518
1354.4921095876437,1354.4921095876437,12536.701,14.542751
1354.4934984924907,1354.4934984924907,12552.996,14.5478735
1354.494887396871,1354.494887396871,12556.065,14.546308
1354.4962763017174,1354.4962763017174,12551.419,14.542527
1354.4976652065636,1354.4976652065636,12541.194,14.543979
1354.4990541114098,1354.4990541114098,12577.579,14.561558
1354.5004430162567,1354.5004430162567,12533.452,14.543193
1354.5018319211038,1354.5018319211038,12587.346,14.561483
1354.50322082595,1354.50322082595,12576.668,14.557798
1354.5046097307963,1354.5046097307963,12565.383,14.554689
1354.5059986351766,1354.5059986351766,12534.546,14.537985
1354.5073875400237,1354.5073875400237,12565.735,14.55129
1354.50877644487,1354.50877644487,12566.225,14.558451
1354.5101653497154,1354.5101653497154,12560.278,14.549148
1354.5115542545623,1354.5115542545623,12535.111,14.539495
1354.5129431589437,1354.5129431589437,12551.332,14.5484915
1354.5143320637908,1354.5143320637908,12570.4375,14.554043
1354.5157209686367,1354.5157209686367,12554.928,14.547377
1354.5171098734822,1354.5171098734822,12565.337,14.549059
1354.5184987778637,1354.5184987778637,12549.123,14.546738
1354.5198876827108,1354.5198876827108,12575.627,14.558425
1354.5212765875563,1354.5212765875563,12552.258,14.545488
1354.5226654924024,1354.5226654924024,12521.586,14.537133
1354.5240543967839,1354.5240543967839,12542.699,14.543249
1354.5254433016307,1354.5254433016307,12550.304,14.54554
1354.5268322064776,1354.5268322064776,12559.258,14.547967
1354.5282211108574,1354.5282211108574,12561.924,14.553586
1354.5296100157038,1354.5296100157038,12558.852,14.554622
1354.5309989205507,1354.5309989205507,12549.204,14.543684
1354.532387824931,1354.532387824931,12569.896,14.547662
1354.5337767297774,1354.5337767297774,12547.379,14.545704
1354.5351656341581,1354.5351656341581,12555.707,14.548515
1354.536554539005,1354.536554539005,12545.771,14.543051
1354.5379434438519,1354.5379434438519,12553.647,14.54577
1354.5393323482326,1354.5393323482326,12590.659,14.56258
1354.5407212530786,1354.5407212530786,12571.629,14.552004
1354.5421101574593,1354.5421101574593,12554.038,14.548425
1354.5434990623055,1354.5434990623055,12558.104,14.552467
1354.544887966687,1354.544887966687,12559.571,14.552032
1354.5462768715338,1354.5462768715338,12550.455,14.547034
1354.547665775914,1354.547665775914,12562.387,14.554437
1354.5490546807605,1354.5490546807605,12549.721,14.546437
1354.5504435851412,1354.5504435851412,12562.939,14.550033
1354.551832489988,1354.551832489988,12555.153,14.543727
1354.5532213943684,1354.5532213943684,12536.482,14.53916
1354.5546102992141,1354.5546102992141,12551.518,14.54812
1354.5559992035955,1354.5559992035955,12523.009,14.539706
1354.5573881079767,1354.5573881079767,12552.151,14.542851
1354.5587770128236,1354.5587770128236,12554.648,14.542529
1354.5601659172044,1354.5601659172044,12569.083,14.55481
1354.5615548220499,1354.5615548220499,12552.382,14.54846
1354.562943726431,1354.562943726431,12568.796,14.554086
1354.5643326308123,1354.5643326308123,12571.753,14.556533
1354.5657215356578,1354.5657215356578,12550.405,14.542466
1354.5671104400385,1354.5671104400385,12539.539,14.54018
1354.5684993444197,1354.5684993444197,12570.64,14.553725
1354.5698882492666,1354.5698882492666,12552.828,14.549034
1354.5712771536478,1354.5712771536478,12575.132,14.552031
1354.5726660580276,1354.5726660580276,12542.085,14.539531
1354.574054962874,1354.574054962874,12561.758,14.551382
1354.5754438672552,1354.5754438672552,12556.671,14.5484085
1354.576832771636,1354.576832771636,12543.451,14.542444
1354.5782216760163,1354.5782216760163,12537.595,14.541808
1354.5796105808627,1354.5796105808627,12548.287,14.5429735
1354.5809994852439,1354.5809994852439,12550.065,14.542108
1354.582388389625,1354.582388389625,12541.703,14.540182
1354.5837772940058,1354.5837772940058,12542.65,14.541664
1354.585166198852,1354.585166198852,12540.986,14.536616
1354.5865551032325,1354.5865551032325,12556.204,14.557301
1354.5879440076133,1354.5879440076133,12552.937,14.546291
1354.5893329119945,1354.5893329119945,12534.096,14.537889
1354.5907218163757,1354.5907218163757,12564.134,14.55161
1354.5921107207564,1354.5921107207564,12539.639,14.546155
1354.5934996256024,1354.5934996256024,12539.928,14.542826
1354.594888529983,1354.594888529983,12573.066,14.55304
1354.5962774343643,1354.5962774343643,12525.42,14.535007
1354.597666338745,1354.597666338745,12534.712,14.540542
