time,time,flux,flux_err
1354.1184979532002,1354.1184979532002,1.0000767040693546,0.0001613909394695845
1354.1265998145982,1354.1265998145982,0.9998270868189081,0.000147334551324341
1354.1335442671184,1354.1335442671184,0.9999352395047592,0.0001473580651201439
1354.1404887193596,1354.1404887193596,0.9999295007705907,0.00014737266299690182
1354.147433171414,1354.147433171414,1.0000888308371878,0.0001473949723753598
1354.154377623469,1354.154377623469,1.000073237015523,0.0001474031647255692
1354.161322075524,1354.161322075524,1.00008441079139,0.00014742065919386624
1354.1682665272992,1354.1682665272992,0.9999609487555043,0.0001474165683037361
1354.1752109788881,1354.1752109788881,0.9999851426836077,0.00014743172690802778
1354.1821554304775,1354.1821554304775,1.0001650526799932,0.0001474459440703979
1354.189099881694,1354.189099881694,0.999951378723549,0.00014743773869090073
1354.1960443330038,1354.1960443330038,1.0002148103136443,0.00014746049106633454
1354.202988784034,1354.202988784034,1.0000773315215425,0.00014745502519812663
1354.2099332348782,1354.2099332348782,0.999688313161994,0.0001474287190589201
1354.216877685815,1354.216877685815,0.9999151853090076,0.00014744727438463246
1354.2238221364732,1354.2238221364732,0.9999264298204149,0.0001474502658309753
1354.2307665870374,1354.2307665870374,0.999991664960905,0.00014744552938790462
1354.2377110374161,1354.2377110374161,1.0001270040391752,0.0001474543833029187
1354.2446554877013,1354.2446554877013,0.9999724905155876,0.0001474309541381296
1354.2515999378004,1354.2515999378004,1.0000383941695719,0.00014743070517530085
1354.258544387992,1354.258544387992,0.99988816690848,0.00014741096336199152
1354.2654888377187,1354.2654888377187,1.0001639396186577,0.00014741752559257608
1354.2724332874452,1354.2724332874452,1.0001263319207196,0.00014740582805682211
1354.279377737172,1354.279377737172,0.9995651637184768,0.00014734915513613746
1354.2863221868981,1354.2863221868981,1.000063941833719,0.0001473807095122459
1354.293266636159,1354.293266636159,1.0000983052527483,0.0001473693516339326
1354.3002110855127,1354.3002110855127,0.9998507014675017,0.0001473377808259582
1354.3071555345873,1354.3071555345873,0.9999315234440083,0.00014733234927954056
1354.3140999836621,1354.3140999836621,1.0002517647005145,0.00014734435918982463
1354.32104443255,1354.32104443255,1.0000766853596754,0.00014732458134844156
1354.3279888814384,1354.3279888814384,1.0000545866890889,0.00014731835851665545
1354.3349333299543,1354.3349333299543,1.0000853827710674,0.00014733031920670213
1354.341877778563,1354.341877778563,0.9999667480858578,0.0001473046377395341
1354.348822227079,1354.348822227079,0.9999698238248736,0.000147303119393507
1354.3557666754082,1354.3557666754082,0.9999218717789787,0.00014729787858826975
1354.3627111236449,1354.3627111236449,0.999930703462504,0.00014730808190819683
1354.3696555716951,1354.3696555716951,0.9999768400353524,0.00014731289927290736
1354.3766000196515,1354.3766000196515,1.0000800466544715,0.00014732087500207263
1354.383544467609,1354.383544467609,1.000018258691198,0.00014732833408625162
1354.3904889152861,1354.3904889152861,1.0000092067028887,0.000147330562724154
1354.3974333629637,1354.3974333629637,1.0001837077632907,0.00014735368786382034
1354.404377810362,1354.404377810362,0.9999285633734598,0.00014734068584979287
1354.4113222577603,1354.4113222577603,0.999994860062855,0.00014734116989154636
1354.4182667051584,1354.4182667051584,0.999715332639109,0.00014733699864529756
1354.4252111524634,1354.4252111524634,0.9999677054458894,0.00014735640307789226
1354.4321555994889,1354.4321555994889,1.0002528087951177,0.00014738430255276436
1354.4391000465143,1354.4391000465143,0.9998948471632196,0.00014736685947179233
1354.4460444932606,1354.4460444932606,1.0000118080321139,0.00014737694347147765
1354.4529889401,1354.4529889401,1.0000854530905126,0.0001473969460036821
1354.4599333867534,1354.4599333867534,1.0000224400635465,0.00014738640074554073
1354.4668778333132,1354.4668778333132,0.9999969445520822,0.00014739688584517637
1354.47382227978,1354.47382227978,1.0001677303522998,0.00014739697368106896
1354.4807667260607,1354.4807667260607,0.9997513945409461,0.0001473679007070724
1354.4877111722476,1354.4877111722476,0.9998331054804558,0.00014737206101693187
1354.494655618529,1354.494655618529,1.0001176071324909,0.0001473846004336906
1354.50160006453,1354.50160006453,1.0000955198217276,0.000147384435261224
1354.5085445104378,1354.5085445104378,0.999862550865718,0.00014736813043941918
1354.515488956346,1354.515488956346,0.9999244362171759,0.00014736414502906667
1354.5224334019745,1354.5224334019745,0.9998769619612095,0.00014736511926265937
1354.5293778476032,1354.5293778476032,1.000454080165397,0.00014740318420687127
1354.536322293232,1354.536322293232,0.9999710540053979,0.0001473708522025893
1354.5432667386744,1354.5432667386744,1.000024280822336,0.0001473711874740695
1354.5502111838373,1354.5502111838373,0.9997582232612379,0.00014734271692781024
1354.5571556292798,1354.5571556292798,1.0002067591364012,0.0001473746416923726
1354.5641000744424,1354.5641000744424,0.9998247429919239,0.0001473449137442616
1354.5710445195123,1354.5710445195123,0.9998192143552975,0.0001473438798239551
1354.5779889641167,1354.5779889641167,1.0001518493227841,0.0001473667912878046
1354.5849334091865,1354.5849334091865,1.0000392925024673,0.0001473548477234533
1354.591877853791,1354.591877853791,0.9999245736580912,0.00014734717560263346
1354.5988222984881,1354.5988222984881,1.0001894057369374,0.00014736824197547136
1354.6057667430925,1354.6057667430925,0.9999296918702442,0.00014734283436417499
1354.6127111875098,1354.6127111875098,1.0001436580004985,0.00014736023942332467
1354.6196556319278,1354.6196556319278,1.0000326857159083,0.00014735263117918916
1354.6266000761598,1354.6266000761598,0.9999441336002283,0.00014734502244531585
1354.633544520298,1354.633544520298,0.9999346532882925,0.00014734628282373152
1354.6404889644368,1354.6404889644368,0.9996665358718545,0.00014732526501977722
1354.6474334083891,1354.6474334083891,1.0001943972104121,0.00014736442611897616
1354.654377852341,1354.654377852341,1.0001373240873668,0.00014736745742972607
1354.6613222962008,1354.6613222962008,0.9999143108210473,0.00014734351144907873
1354.6682667398734,1354.6682667398734,1.0000128794661507,0.0001473522541202079
1354.6752111834528,1354.6752111834528,1.0000084301121934,0.00014734433333398803
1354.68215562694,1354.68215562694,0.9999852628610197,0.00014734369051948364
1354.6891000705193,1354.6891000705193,0.999848113566134,0.0001473396906633741
1354.6960445138197,1354.6960445138197,1.0002563593581555,0.00014736382001514012
1354.7029889571202,1354.7029889571202,0.9999632403463558,0.00014733856501434873
1354.7099334003274,1354.7099334003274,0.999883951973945,0.0001473344537197231
1354.7168778434414,1354.7168778434414,0.9999812581573426,0.0001473384405925113
1354.7238222863693,1354.7238222863693,1.0000808516397954,0.00014734952092068334
1354.73076672939,1354.73076672939,1.0000269837968148,0.00014734649413869274
1354.7377111723183,1354.7377111723183,0.9999318953490232,0.00014734314096767414
1354.7446556150596,1354.7446556150596,0.9999899961368641,0.0001473430950884674
1354.7516000577077,1354.7516000577077,1.0000660781261865,0.00014735114242607453
1354.7585445000773,1354.7585445000773,0.9999744708207532,0.00014734869621534414
1354.7654889427254,1354.7654889427254,1.0001402739433582,0.00014736346058151059
1354.7724333850947,1354.7724333850947,0.9998603657193709,0.00014734955169749153
1354.7793778273704,1354.7793778273704,0.9999937269778745,0.00014735984676821906
1354.7863222696462,1354.7863222696462,1.0000004545641017,0.00014736453092189952
1354.793266711829,1354.793266711829,1.000204516543138,0.00014738132998961447
1354.8002111539186,1354.8002111539186,1.0000007518828529,0.00014736971159581914
1354.807155595822,1354.807155595822,0.9998956163816789,0.0001473647104469163
1354.8141000378184,1354.8141000378184,0.9999031884468927,0.0001473625706011494
1354.8210444796287,1354.8210444796287,0.9998909649161549,0.0001473657011782511
1354.8279889213459,1354.8279889213459,1.0000667816089461,0.00014737818780810125
1354.8349333631563,1354.8349333631563,0.9999043131934254,0.00014736271201505196
1354.8418778046869,1354.8418778046869,0.9999981520189852,0.00014736854900049387
1354.8488222460317,1354.8488222460317,0.9999622832000675,0.0001473563762569045
1354.8557666875622,1354.8557666875622,1.0000200086536304,0.00014736775462101306
1354.8627111289068,1354.8627111289068,1.0002663330158217,0.00014738239876842344
1354.8696555701586,1354.8696555701586,0.9999562638907925,0.0001473573142195099
1354.8766000113167,1354.8766000113167,0.9998691736044597,0.0001473527116663632
1354.8835444524752,1354.8835444524752,1.0001504645874084,0.00014738107682518259
1354.8904888934471,1354.8904888934471,0.9999764289096937,0.00014736756272987195
1354.897433334419,1354.897433334419,1.0001430434876801,0.00014737096017725486
1354.9043777752984,1354.9043777752984,0.9999635727992462,0.0001473658314125721
1354.9113222160836,1354.9113222160836,0.9997183929164841,0.00014736605141340789
1354.9182666566833,1354.9182666566833,1.000132542108384,0.0001473917868829615
1354.925211097469,1354.925211097469,0.9999946090335854,0.00014738806376834367
1354.9321555378824,1354.9321555378824,1.0000284203042846,0.00014739339382643948
1354.9402110887618,1354.9402110887618,1.0001551691657617,0.00014740665593624831
1354.9474333067915,1354.9474333067915,1.0000624759514192,0.00014740027519259582
1354.9543777472047,1354.9543777472047,0.9997894331480882,0.00014739426266554921
1354.9613221874317,1354.9613221874317,0.9998432974648319,0.00014739686280053306
1354.9682666275658,1354.9682666275658,1.0001435972930532,0.00014741159949579563
1354.975211067606,1354.975211067606,1.0000409138798543,0.00014740394408713594
1354.9821555076471,1354.9821555076471,0.9999101959552756,0.00014740009839075044
1354.989099947595,1354.989099947595,0.9997771529197241,0.00014739893067937824
1354.996044387449,1354.996044387449,1.0002192867580484,0.00014743623182561716
1355.0029888272104,1355.0029888272104,1.000006143758026,0.0001474117287267852
1355.0099332669718,1355.0099332669718,1.0001362201841988,0.00014741871060509898
1355.016877706547,1355.016877706547,0.9999901138161851,0.00014740363564492602
1355.0238221461218,1355.0238221461218,0.9998582503626459,0.0001473892128866389
1355.0307665856037,1355.0307665856037,0.9998047676267842,0.00014737725083257167
1355.0377110249926,1355.0377110249926,0.9999381329020238,0.00014738914282624358
1355.0446554642883,1355.0446554642883,1.0003183971654903,0.0001474118704509339
1355.051599903584,1355.051599903584,1.0000296326291287,0.0001473887518379442
1355.0585443427865,1355.0585443427865,0.9999415009069569,0.00014737618660424584
1355.065488781896,1355.065488781896,1.0000281533063975,0.00014738578633017574
1355.0724332209124,1355.0724332209124,1.0000242743481313,0.00014737876959994295
1355.0793776599282,1355.0793776599282,0.9999469111756014,0.0001473679081213702
1355.0863220987583,1355.0863220987583,1.0001563583255648,0.00014737624478254773
1355.0932665375885,1355.0932665375885,0.9998171135893786,0.00014735712650890248
1355.1002109764183,1355.1002109764183,1.0000185999751803,0.00014737144352843312
1355.1071554150622,1355.1071554150622,1.0000097177221625,0.00014737654685183517
1355.114099853706,1355.114099853706,0.9998723750115737,0.00014736726367005516
1355.1210442922566,1355.1210442922566,1.0000758627070259,0.00014737434505129982
1355.127988730621,1355.127988730621,1.0001675900762286,0.00014737097157829603
1355.1349331690785,1355.1349331690785,0.9999521686747993,0.0001473638308065858
1355.1418776074424,1355.1418776074424,0.9999292540083292,0.00014735642942433189
1355.1488220457138,1355.1488220457138,0.9998166537395928,0.00014735073611085112
1355.155766483799,1355.155766483799,0.9999767771117888,0.00014736518137625115
1355.1627109218837,1355.1627109218837,1.0002834956176543,0.0001473839374900345
1355.169655359969,1355.169655359969,1.0000729369238677,0.0001473772499924081
1355.1765997980538,1355.1765997980538,1.0001349806405733,0.0001473855613792957
1355.1835442359527,1355.1835442359527,0.9997764186538548,0.0001473571548358872
1355.190488673758,1355.190488673758,0.9998742392431617,0.00014735864641251994
1355.1974331114702,1355.1974331114702,1.0000110403038014,0.00014736759049030888
1355.204377549183,1355.204377549183,1.000111381118432,0.0001473811175158754
1355.211321986802,1355.211321986802,0.999984084298403,0.0001473656137246169
1355.2182664244215,1355.2182664244215,0.9997892846171272,0.0001473527954351419
1355.225210861948,1355.225210861948,1.0000458015020681,0.00014737073247675418
1355.2321552992876,1355.2321552992876,0.9999624598172812,0.0001473676513904804
1355.2390997366278,1355.2390997366278,1.0001023201403831,0.00014737828347247936
1355.2460441739672,1355.2460441739672,1.0002460797274835,0.00014739417492368217
1355.2529886112138,1355.2529886112138,0.9999928351342622,0.00014737899534201918
1355.2599330483677,1355.2599330483677,0.9998173310476755,0.00014737276210436984
1355.2668774854283,1355.2668774854283,1.0000618657533686,0.00014739536213881246
1355.2738219224887,1355.2738219224887,1.0001875753410114,0.00014740578783610327
1355.280766359456,1355.280766359456,0.9998100979256128,0.00014739125651156863
1355.28771079633,1355.28771079633,0.9998904866233544,0.00014740505457299361
1355.2946552331118,1355.2946552331118,0.999894353049186,0.0001474123457969798
1355.3015996698923,1355.3015996698923,0.9999242191987573,0.00014741577333549902
1355.3085441065803,1355.3085441065803,1.0002690480042906,0.0001474497591201587
1355.3154885431754,1355.3154885431754,1.0000728726345605,0.00014743410212445337
1355.3224329796772,1355.3224329796772,1.000082448982133,0.0001474454513277907
1355.3293774161789,1355.3293774161789,0.9999853556983759,0.00014743536380795312
1355.3368774076341,1355.3368774076341,0.9997381475712916,0.00014743366905212998
1355.3446551762404,1355.3446551762404,0.9999409917646045,0.00014744419762532953
1355.351599612463,1355.351599612463,1.0001091282901244,0.0001474608667651033
1355.3585440486852,1355.3585440486852,0.9999389417076341,0.00014745229129500256
1355.3654884848143,1355.3654884848143,1.000246979908218,0.00014747802833867007
1355.37243292085,1355.37243292085,0.9997253758099773,0.00014743835092650593
1355.3793773570728,1355.3793773570728,1.0002528474463115,0.00014747324596913933
1355.3863217928292,1355.3863217928292,0.999950485681423,0.0001474492354724591
1355.3932662285858,1355.3932662285858,0.9998512778396421,0.0001474390922890831
1355.401043997006,1355.401043997006,1.000011745584548,0.00014745291842391104
1355.4085439874366,1355.4085439874366,1.0001974512066683,0.00014745919291218851
1355.4154884230072,1355.4154884230072,0.9999412342028741,0.00014744167094748645
1355.4224328587638,1355.4224328587638,0.9998521254129147,0.0001474357131690119
1355.429377294334,1355.429377294334,0.9998643449447939,0.00014742414648135648
1355.4363217298117,1355.4363217298117,1.0000707288629118,0.00014744012812477575
1355.4432661651954,1355.4432661651954,0.999951186178689,0.00014741972454427644
1355.4502106005796,1355.4502106005796,0.9999932980930026,0.0001474174182213884
1355.4571550358708,1355.4571550358708,0.9998956467077527,0.00014741652333628716
1355.4640994710685,1355.4640994710685,0.9999041398824291,0.00014740048720849128
1355.4710439061732,1355.4710439061732,0.9998857815677059,0.0001473989750372286
1355.4779883412782,1355.4779883412782,1.0001826501497666,0.00014742071507977967
1355.484932776383,1355.484932776383,1.0001458410863333,0.00014741247744418464
1355.4918772113945,1355.4918772113945,1.0000235070655614,0.00014740734094338616
1355.4988216462198,1355.4988216462198,1.0000953333826836,0.0001474066395084782
1355.5057660810448,1355.5057660810448,0.9999809528937916,0.00014739008901736256
1355.5127105157767,1355.5127105157767,0.9998189483384194,0.0001473760960921599
1355.5196549506024,1355.5196549506024,1.000075518965938,0.00014740491222435385
1355.5265993852413,1355.5265993852413,0.9999218223698862,0.00014739203429698782
1355.5335438197874,1355.5335438197874,1.0000650216488733,0.00014740368358011363
1355.5404882544267,1355.5404882544267,1.0000969899358658,0.00014739918584964662
1355.5474326887859,1355.5474326887859,0.999936526401151,0.0001474008030407774
1355.5543771232392,1355.5543771232392,1.0000146388007702,0.00014740918294409096
1355.5613215575056,1355.5613215575056,0.9999518178185728,0.00014740709687557292
1355.568265991772,1355.568265991772,0.9999660396239752,0.00014741186862912432
1355.5752104260387,1355.5752104260387,1.0000761715816051,0.00014741828491943566
1355.582154860212,1355.582154860212,1.0001504926568803,0.00014743751145564554
1355.5890992942925,1355.5890992942925,0.9999931566766914,0.00014743352539429362
1355.5960437282793,1355.5960437282793,1.0001037400692847,0.00014743498028355978
1355.6029881622667,1355.6029881622667,0.9999206734767409,0.00014742221962644103
1355.6099325961607,1355.6099325961607,1.0000920727534335,0.00014744578907791535
1355.6168770300546,1355.6168770300546,0.9999331179557357,0.00014743799989557036
1355.6238214637622,1355.6238214637622,1.0000855521074157,0.00014744603504283774
1355.6307658974704,1355.6307658974704,1.0000631264945956,0.00014744146547451798
1355.637710331178,1355.637710331178,0.999840771083775,0.00014742726023059087
1355.6446547647924,1355.6446547647924,0.9999687174816275,0.00014743125965049358
1355.6515991982208,1355.6515991982208,0.9999416905207485,0.00014742355456041635
1355.6585436316493,1355.6585436316493,1.0000179998144907,0.00014743000329462346
1355.6654880650774,1355.6654880650774,0.9998566752756816,0.00014741455397824078
1355.6724324985062,1355.6724324985062,1.0001375393537868,0.00014743032617920695
1355.6793769319343,1355.6793769319343,1.0000769203369457,0.0001474243810162324
1355.6863213649901,1355.6863213649901,1.000104465933727,0.00014742325596107708
1355.6932657983252,1355.6932657983252,0.999936146137915,0.0001474126400659765
1355.7002102312879,1355.7002102312879,1.0000265666211803,0.00014741634270901133
1355.7071546643438,1355.7071546643438,1.0000044819185363,0.00014741262721318008
1355.7140990973996,1355.7140990973996,1.0001101300040922,0.00014741515413069554
1355.721043530269,1355.721043530269,1.0001970331657846,0.00014742437031734195
1355.7279879631387,1355.7279879631387,0.9998254363768524,0.00014740079181743514
1355.7349323959152,1355.7349323959152,0.9999708466884675,0.00014741335749988535
1355.7418768286916,1355.7418768286916,1.0000416443062132,0.00014740643859388665
1355.7499323706302,1355.7499323706302,0.9998366210721812,0.00014739875067252918
1355.7571545804644,1355.7571545804644,1.0001208064069977,0.00014741926290416454
1355.7640990130544,1355.7640990130544,1.0000383188389057,0.00014742665151574257
1355.7710434455516,1355.7710434455516,1.0001586308496115,0.000147430547172995
1355.7779878779554,1355.7779878779554,0.9999233117396275,0.0001474179754401223
1355.7849323103594,1355.7849323103594,0.9997154762197369,0.00014740456149521633
1355.7918767426702,1355.7918767426702,1.0004173677122052,0.0001474551197322929
1355.7988211748882,1355.7988211748882,0.9999649558364962,0.00014741980497877508
1355.8057656071055,1355.8057656071055,1.0000130752175989,0.00014742572549740956
1355.8127100392298,1355.8127100392298,0.9997336679354192,0.0001474067863891025
1355.8196544712616,1355.8196544712616,0.999915215060453,0.00014741854669545477
1355.8265989032927,1355.8265989032927,1.0000861768852434,0.00014743160636546568
1355.833543335231,1355.833543335231,1.0003043557887374,0.00014743652667571305
1355.8404877671696,1355.8404877671696,0.9997166076033194,0.00014739767244459625
1355.847432198921,1355.847432198921,1.000006434797053,0.00014741645091688053
1355.8543766307662,1355.8543766307662,0.9999553426776414,0.0001474124504629169
1355.8613210624255,1355.8613210624255,0.9999472061605292,0.0001474029381921688
1355.868265494084,1355.868265494084,1.0000816208028258,0.0001474021701327339
