time,time,flux,flux_err
1325.29886242071,1325.29886242071,0.9998925316057682,0.0003661543571027567
1325.3071956891283,1325.3071956891283,1.0002020913676617,0.0003662954487031497
1325.3148345187788,1325.3148345187788,1.000003538158454,0.00033440764609325295
1325.3217789095818,1325.3217789095818,0.9998906841014292,0.0003344342281181191
1325.3287233006117,1325.3287233006117,0.9997814343674172,0.00033451292356587544
1325.3356676918397,1325.3356676918397,0.9999876292734846,0.00033465956070686826
1325.3426120832714,1325.3426120832714,0.9999091019462718,0.00033475487923721736
1325.3495564749069,1325.3495564749069,1.0001848232054646,0.0003349305608715678
1325.3565008667404,1325.3565008667404,1.0004854960553993,0.00033507685756535934
1325.3634452587771,1325.3634452587771,1.0001525888563394,0.0003352094171492847
1325.3703896510124,1325.3703896510124,0.9998563356628468,0.0003353070631533933
1325.377334043445,1325.377334043445,0.9998715837348868,0.00033544670286737903
1325.3842784360588,1325.3842784360588,0.9998010271554177,0.000335602102356869
1325.3912228288875,1325.3912228288875,1.0000697644048189,0.00033580184685495166
1325.3981672218847,1325.3981672218847,1.0000860495092783,0.0003359301972128925
1325.4051116150806,1325.4051116150806,0.9999426421145847,0.00033605051372112836
1325.4120560084734,1325.4120560084734,0.9999552293924332,0.00033615318094867017
1325.4190004020359,1325.4190004020359,0.9998988171177571,0.00033630074400741063
1325.425944795784,1325.425944795784,1.0000165727226151,0.00033645824022469656
1325.4328891897187,1325.4328891897187,0.9997713458537879,0.0003365045640795003
1325.4398335838341,1325.4398335838341,1.0002183486236664,0.00033664145166252166
1325.4467779781237,1325.4467779781237,0.9997164734284765,0.0003367355937590161
1325.4537223725936,1325.4537223725936,1.0001647650040681,0.0003368906817941722
1325.4606667672326,1325.4606667672326,1.0001976789769222,0.00033700656083923756
1325.4676111620518,1325.4676111620518,1.0001416057073675,0.0003371083985547835
1325.4745555570287,1325.4745555570287,0.9999198522602383,0.00033721822842370207
1325.4814999521916,1325.4814999521916,1.0000035673036325,0.0003373954911125667
1325.4884443475116,1325.4884443475116,1.0001001136030978,0.0003375881208726483
1325.495388743006,1325.495388743006,1.0002031439746168,0.0003377442671727159
1325.5023331386578,1325.5023331386578,0.9997006482689945,0.0003378478366410625
1325.5092775344788,1325.5092775344788,1.000029322865298,0.0003380533585648182
1325.5162219304505,1325.5162219304505,0.9998192604658007,0.0003381167659861629
1325.523166326591,1325.523166326591,0.9996708102333601,0.0003382579979605504
1325.530110722883,1325.530110722883,1.0005343114099474,0.00033853329563213457
1325.5370551193441,1325.5370551193441,0.9996550439303278,0.0003385420561431369
1325.5439995159506,1325.5439995159506,1.0000405294967478,0.0003387387745734924
1325.5509439127081,1325.5509439127081,1.0000069422627234,0.00033890263960163595
1325.557888309629,1325.557888309629,0.9999113282801384,0.0003389906969232125
1325.5648327066838,1325.5648327066838,1.0005613437343088,0.0003391955257712485
1325.571777103901,1325.571777103901,0.9998410992546308,0.0003392071517066637
1325.578721501247,1325.578721501247,1.0000359362660625,0.0003393454617532371
1325.5856658987555,1325.5856658987555,0.9996484551639944,0.0003394337653373629
1325.5926102964036,1325.5926102964036,1.0001531630112137,0.00033957492778448236
1325.5995546941917,1325.5995546941917,1.0000602575875122,0.0003396125483749788
1325.606499092119,1325.606499092119,1.0000558335397751,0.0003396731662098487
1325.6134434901926,1325.6134434901926,0.9996221266865181,0.0003396894387453943
1325.6203878883996,1325.6203878883996,0.9993214384437856,0.00033964754581647784
1325.6273322867467,1325.6273322867467,1.0006225638366644,0.000339857626647603
1325.6342766852213,1325.6342766852213,1.0001023015217263,0.00033978708188162293
1325.641221083842,1325.641221083842,1.000131899927692,0.0003398426863139649
1325.6481654825843,1325.6481654825843,1.0002453113425545,0.00033990529997896907
1325.655109881461,1325.655109881461,1.0004216790666438,0.0003399321927484299
1325.6620542804708,1325.6620542804708,1.0005155322972912,0.000339955067237067
1325.668998679604,1325.668998679604,0.999898913477565,0.0003398660510871575
1325.6759430788702,1325.6759430788702,0.9990241607115665,0.0003397831909283841
1325.6828874782475,1325.6828874782475,0.9998314461152014,0.0003399110185076832
1325.6898318777642,1325.6898318777642,1.0001850504734828,0.00034007274125999367
1325.6967762774032,1325.6967762774032,0.9995626286467866,0.0003400319459336095
1325.7037206771527,1325.7037206771527,0.9996989242527698,0.00034011516468893186
1325.7106650770245,1325.7106650770245,1.000217768218326,0.00034023343183607927
1325.7176094770246,1325.7176094770246,1.000270023978312,0.0003402899862215803
1325.724553877135,1325.724553877135,1.0003124531408105,0.0003403664647456975
1325.7314982773737,1325.7314982773737,1.0002873611977012,0.0003404139497653155
1325.7384426777112,1325.7384426777112,0.9999046068773044,0.00034041624848325287
1325.7453870781649,1325.7453870781649,0.9999561567413447,0.00034050884010961485
1325.7523314787409,1325.7523314787409,0.9997358031104724,0.0003405247297889455
1325.7592758794221,1325.7592758794221,1.0001088390330966,0.00034071103888772073
1325.7662202802132,1325.7662202802132,0.999647481509306,0.00034070876101867625
1325.7731646811214,1325.7731646811214,1.0001402316182406,0.0003408541535498552
1325.780109082128,1325.780109082128,0.9999642223365303,0.0003409422893817796
1325.787053483246,1325.787053483246,1.0000895203193427,0.00034103062448124875
1325.7939978844681,1325.7939978844681,1.000094047351407,0.0003410651370104691
1325.8009422858067,1325.8009422858067,1.0004263639719277,0.0003412008512683637
1325.8078866872331,1325.8078866872331,0.9997217971075433,0.00034113972744442193
1325.814831088769,1325.814831088769,0.9999554651818954,0.00034120231630587323
1325.8217754903992,1325.8217754903992,0.999944441159075,0.0003412296388041182
1325.8287198921453,1325.8287198921453,0.9999374817337315,0.000341301645437464
1325.835664293973,1325.835664293973,0.9997200534133794,0.0003412802461103308
1325.842608695917,1325.842608695917,0.9998582839919639,0.00034131130511312624
1325.8495530979421,1325.8495530979421,1.0004243682886718,0.00034136777689260344
1325.8564975000727,1325.8564975000727,0.999931557006423,0.00034127972138534447
1325.8634419022903,1325.8634419022903,1.0005804798178883,0.0003413631010306313
1325.8703863046126,1325.8703863046126,0.9998626501029853,0.0003411543160607241
1325.8773307070226,1325.8773307070226,0.9995379371104975,0.000341038131361438
1325.8842751095253,1325.8842751095253,0.999949280665791,0.00034105206566198426
1325.8912195121159,1325.8912195121159,0.9998267993533048,0.0003409427853736806
1325.8981639148044,1325.8981639148044,1.0004230927344877,0.00034097505531667765
1325.905108317575,1325.905108317575,0.9995979526998576,0.0003407815498279431
1325.9120527204389,1325.9120527204389,1.000166047181906,0.0003408495565983639
1325.9189971233839,1325.9189971233839,1.0000211450829728,0.0003407299010071155
1325.9259415264282,1325.9259415264282,1.000051510662613,0.00034077240813205786
1325.9328859295479,1325.9328859295479,1.000090075051898,0.0003407573575602185
1325.939830332755,1325.939830332755,1.0004620228946428,0.00034074907221491254
1325.946774736038,1325.946774736038,0.999597288618091,0.0003406303229117863
1325.953719139408,1325.953719139408,1.000112039530927,0.0003406737432600932
1325.9612190951584,1325.9612190951584,0.9997874576846197,0.000340588203433856
1325.9689968271182,1325.9689968271182,0.99949263284125,0.0003405657081146945
1325.97594123075,1325.97594123075,1.0003359023869511,0.0003406987878014923
1325.9828856344634,1325.9828856344634,0.9997940634434025,0.0003406451773117052
1325.9898300382588,1325.9898300382588,1.0001734807766214,0.0003407132471878498
1325.9967744421235,1325.9967744421235,0.9998556307954802,0.00034071310011701415
1326.00371884607,1326.00371884607,1.000404315765897,0.000340777321015083
1326.0106632500804,1326.0106632500804,1.0006105306840527,0.0003408882776583206
1326.0176076541782,1326.0176076541782,0.9995197172959344,0.0003407697942707698
1326.0245520583517,1326.0245520583517,0.9999139517739828,0.0003409354870287708
1326.0314964625948,1326.0314964625948,0.9995836262418131,0.0003409987493066619
1326.0384408669136,1326.0384408669136,1.0003715507491586,0.0003410814505109583
1326.0453852712967,1326.0453852712967,0.9997158207594452,0.0003409825675755401
1326.0523296757606,1326.0523296757606,1.000167626721589,0.00034106270694066393
1326.0592740802954,1326.0592740802954,1.0004543038629548,0.00034111379790871196
1326.0662184848936,1326.0662184848936,0.9996254432746685,0.0003410270726059512
1326.0731628895614,1326.0731628895614,1.0004473420891749,0.0003411692518082988
1326.080107294306,1326.080107294306,0.9996204497421862,0.00034104958196471585
1326.0870516991076,1326.0870516991076,0.9988362968959352,0.0003409514539335923
1326.0939961039855,1326.0939961039855,1.0000391491382068,0.0003411641228078068
1326.1009405089271,1326.1009405089271,1.0007300906179286,0.00034123174663668016
1326.1078849139271,1326.1078849139271,1.0001714079851518,0.0003411510880461571
1326.1148293190142,1326.1148293190142,1.0004264202835955,0.0003412098883976998
1326.1217737241363,1326.1217737241363,0.9998859879817875,0.0003411600126117039
1326.1287181293342,1326.1287181293342,0.999956717454849,0.0003411576980375167
1326.1356625345961,1326.1356625345961,1.0000916445176922,0.0003412128252596311
1326.142606939928,1326.142606939928,1.00031894469484,0.00034123754074962687
1326.1495513453065,1326.1495513453065,0.9996127725940974,0.0003411646795691765
1326.15649575076,1326.15649575076,1.000268130439047,0.000341261126232839
1326.1634401562728,1326.1634401562728,0.9998030616396953,0.000341192018126617
1326.1703845618308,1326.1703845618308,0.9994997944310965,0.0003412311337275689
1326.1773289674597,1326.1773289674597,1.000086955259762,0.00034125020460926174
1326.1842733731464,1326.1842733731464,0.9998281727542591,0.0003411613014466366
1326.191217778891,1326.191217778891,1.0000706427774726,0.00034120758449350416
1326.198162184689,1326.198162184689,1.0000038607568817,0.0003411960577540937
1326.20510659055,1326.20510659055,0.9999032942943655,0.0003411710289304262
1326.2120509964584,1326.2120509964584,1.0000209323496094,0.00034120160253765336
1326.2189954024302,1326.2189954024302,1.0000670582545708,0.00034115681928268495
1326.2259398084602,1326.2259398084602,1.000389546607226,0.0003411987296334108
1326.2328842145373,1326.2328842145373,0.9999000895473656,0.0003411606478050377
1326.2398286206721,1326.2398286206721,1.0002870055504198,0.0003412081844181067
1326.2467730268595,1326.2467730268595,0.9999683508954507,0.00034116381951586496
1326.2537174330994,1326.2537174330994,1.0002683549995905,0.00034127828002715325
1326.2606618393916,1326.2606618393916,1.000050171162749,0.00034119651617502724
1326.267606245736,1326.267606245736,0.9998713958360325,0.000341127554023054
1326.274550652127,1326.274550652127,0.9994320159329732,0.0003410821508808493
1326.2814950585825,1326.2814950585825,1.0001649332291325,0.00034119452414164536
1326.2884394650723,1326.2884394650723,0.9991169380934048,0.00034105184814781835
1326.2953838716205,1326.2953838716205,1.0002867517510912,0.0003412156025760985
1326.3023282782267,1326.3023282782267,1.0001732451120946,0.0003411807794521602
1326.3092726848686,1326.3092726848686,1.0001616852412243,0.0003411518570775333
1326.3162170915507,1326.3162170915507,1.0001096359890247,0.0003411882891046806
1326.3231614983024,1326.3231614983024,0.9998416778012148,0.00034116648352376015
1326.33010590509,1326.33010590509,1.0003902200451753,0.0003412291101435577
1326.3370503119172,1326.3370503119172,1.0002263376006064,0.00034122289534527955
1326.3439947188087,1326.3439947188087,0.9999069436016315,0.0003412590397329877
1326.353716888519,1326.353716888519,1.0001786446813699,0.0003413328947210891
1326.3606612955095,1326.3606612955095,0.9995127335537198,0.0003413071544281496
1326.367605702547,1326.367605702547,1.0001616334558556,0.0003414290465768324
1326.3745501096244,1326.3745501096244,1.0002628703665528,0.00034148672962391565
1326.381494516761,1326.381494516761,0.9996323783236575,0.0003414461635243367
1326.3884389239204,1326.3884389239204,1.0000939203185752,0.00034153968394159327
1326.3953833311261,1326.3953833311261,0.9996269692577421,0.0003415053402029766
1326.4023277383792,1326.4023277383792,1.0002446372967335,0.0003416578714626834
1326.4092721456784,1326.4092721456784,0.9998326689919906,0.0003416436892869394
1326.4162165530183,1326.4162165530183,0.9998297553875872,0.0003416299235415174
1326.4231609603928,1326.4231609603928,1.0000928211747548,0.00034168834114176635
1326.4301053678141,1326.4301053678141,0.9997760232745831,0.0003416610209832273
1326.4370497752705,1326.4370497752705,1.0002905773326216,0.0003417354613157662
1326.4439941827736,1326.4439941827736,1.000537453405039,0.0003418147591563671
1326.4509385903114,1326.4509385903114,0.9999255641294098,0.0003417937930396141
1326.4578829978896,1326.4578829978896,0.9999456769673024,0.000341866796661175
1326.4648274055148,1326.4648274055148,1.000233661891023,0.0003419211836248451
1326.4717718131692,1326.4717718131692,1.0000872708969761,0.000341974337299747
1326.47871622087,1326.47871622087,0.9996036329319826,0.00034196460449053575
1326.4856606286057,1326.4856606286057,1.0001069013609685,0.00034207459310872743
1326.4926050363704,1326.4926050363704,0.9995189194204839,0.0003420146029444641
1326.4995494441762,1326.4995494441762,1.0001760187802462,0.00034215345517521045
1326.5064938520277,1326.5064938520277,0.9996606214729168,0.0003421275020330366
1326.5134382599035,1326.5134382599035,0.9998619557344135,0.0003421842538853667
1326.5203826678196,1326.5203826678196,0.9996972347802568,0.000342173709449335
1326.5273270757712,1326.5273270757712,1.0005249534859857,0.0003423461185236527
1326.5342714837625,1326.5342714837625,1.0007758164232896,0.00034246541246826334
1326.5412158917834,1326.5412158917834,0.9999579896604633,0.00034241856518506264
1326.5481602998334,1326.5481602998334,0.9997714861492579,0.0003424232058367007
1326.5551047079243,1326.5551047079243,0.9998069096423541,0.0003424764492168953
1326.5620491160557,1326.5620491160557,0.9997980024343975,0.0003424999931118695
1326.5689935242165,1326.5689935242165,1.0000694614502827,0.0003425535010895898
1326.5759379324006,1326.5759379324006,1.0001392971585443,0.000342553587587992
1326.5828823406305,1326.5828823406305,0.9999657792900669,0.0003425705153754168
1326.5898267488844,1326.5898267488844,1.000191263263027,0.000342674308065381
1326.5967711571734,1326.5967711571734,0.9997907127474484,0.0003426561192753081
1326.6037155654972,1326.6037155654972,1.0000548460562124,0.00034266605789444877
1326.6106599738498,1326.6106599738498,0.9998794658359532,0.00034268938771174495
1326.6176043822372,1326.6176043822372,1.00022085706701,0.00034275583963727847
1326.624548790654,1326.624548790654,0.9997939410671597,0.0003427239700837431
1326.631493199088,1326.631493199088,0.9997536348134185,0.00034267848166973666
1326.6384376075746,1326.6384376075746,1.0001433857601634,0.00034277215259193787
1326.6453820160789,1326.6453820160789,1.0000077005160375,0.0003427451229053356
1326.652326424612,1326.652326424612,1.000194244488026,0.000342774323704786
1326.6592708331805,1326.6592708331805,1.0002910869006238,0.00034272883797445495
1326.666215241777,1326.666215241777,1.0001847475151573,0.00034269832976041147
1326.6731596503978,1326.6731596503978,1.0000553902320202,0.0003426445834493488
1326.680104059053,1326.680104059053,0.9994125669169425,0.0003424774032837184
1326.6878817967759,1326.6878817967759,0.9998375537057186,0.00034255162013709204
1326.6953817581834,1326.6953817581834,1.0002192436329507,0.0003425278502136891
1326.70232616692,1326.70232616692,0.9998250181333603,0.0003424531536208921
1326.7095483520538,1326.7095483520538,0.9998561566380968,0.0003424126201104729
1326.71760386626,1326.71760386626,0.9999974964051008,0.0003424047384831874
1326.7245482750902,1326.7245482750902,1.0003546731175033,0.0003424369047771312
1326.7314926839435,1326.7314926839435,1.0000609027720453,0.0003423325075048599
1326.73843709282,1326.73843709282,1.0003526434319672,0.00034236656031893484
1326.745381501732,1326.745381501732,0.9997476633022512,0.00034224202758362574
1326.7523259106658,1326.7523259106658,0.9999659782026825,0.0003422804255763041
1326.7592703196246,1326.7592703196246,0.9999646210385214,0.0003422526324425613
1326.7662147286114,1326.7662147286114,0.9999841825075512,0.0003422519801775141
1326.7731591376164,1326.7731591376164,1.0003141534056452,0.00034228875697512424
1326.78010354665,1326.78010354665,0.9995522699648534,0.0003421871858351593
1326.7870479557187,1326.7870479557187,0.9996729646211149,0.0003421711943073325
1326.793992364799,1326.793992364799,0.9996317434819204,0.00034216963101907615
1326.8009367739082,1326.8009367739082,1.0003274324166838,0.0003422934306958928
1326.8078811830412,1326.8078811830412,1.0003072675362654,0.0003422815644463842
1326.8148255921967,1326.8148255921967,1.0004277688646623,0.00034227389473367564
1326.8217700013822,1326.8217700013822,0.9996227396363786,0.00034219733207947045
1326.828714410573,1326.828714410573,0.9999488171024019,0.00034227416143291125
1326.835658819799,1326.835658819799,1.0002770496509281,0.0003422769648533488
1326.842603229048,1326.842603229048,0.9998697548168252,0.00034217942895330524
1326.8495476383146,1326.8495476383146,0.9994807553862047,0.00034216603018311304
1326.8564920476101,1326.8564920476101,1.0006689755478366,0.0003423091244297837
1326.8634364569293,1326.8634364569293,0.9998779606978729,0.0003421475519146343
1326.87038086626,1326.87038086626,1.0004592758284596,0.0003422070782299124
1326.8773252756253,1326.8773252756253,0.9998708456987752,0.00034204924016445026
1326.8842696850024,1326.8842696850024,0.9997159712950177,0.0003419025354531208
1326.8912140943971,1326.8912140943971,0.9998985294137439,0.0003418681738372589
1326.898158503821,1326.898158503821,0.9997582574435822,0.0003417574941664679
1326.905102913262,1326.905102913262,0.999700065822703,0.0003416687080656175
1326.912047322738,1326.912047322738,0.9998945055037716,0.0003415716592414157
1326.9189917322142,1326.9189917322142,1.0005595913931664,0.0003415969128512086
1326.9259361417078,1326.9259361417078,1.0000755165408663,0.00034142003197983745
1326.9328805512366,1326.9328805512366,1.0003382737876274,0.00034135576368463886
1326.9398249607825,1326.9398249607825,0.9999512091324135,0.00034120475454170007
1326.94676937034,1326.94676937034,1.0000625413314612,0.0003410788140856264
1326.953713779921,1326.953713779921,0.9997279718101929,0.0003410134201368625
1326.960658189525,1326.960658189525,0.9997845620914212,0.0003409199314304965
1326.9676025991407,1326.9676025991407,0.99915622748354,0.0003407855215093806
1326.9745470087796,1326.9745470087796,1.0005555814409473,0.00034089417861383304
1326.9814914184426,1326.9814914184426,0.9999674054451262,0.0003407964839454358
1326.9884358281163,1326.9884358281163,0.9998157410412907,0.00034078519350913073
1326.9953802378138,1326.9953802378138,1.0004433415671978,0.00034072261421533355
1327.0023246475168,1327.0023246475168,1.000174156542593,0.00034070266024131953
1327.009269057249,1327.009269057249,0.9994761056397671,0.0003405950476289587
1327.0162134670045,1327.0162134670045,1.0000338114527696,0.00034065517676533103
1327.0231578767718,1327.0231578767718,0.9999138797591602,0.0003406288553176552
1327.030102286545,1327.030102286545,0.9997277240885882,0.00034059540143819433
1327.0370466963468,1327.0370466963468,1.0001791436363507,0.00034060930518967243
1327.0439911061608,1327.0439911061608,1.000047580894553,0.0003406363501795077
1327.0509355159916,1327.0509355159916,1.0004945460916614,0.0003406918568326968
1327.0584354786336,1327.0584354786336,1.0000432238255446,0.0003406688924795803
1327.066213217689,1327.066213217689,0.9998826430188388,0.00034068188846577525
