time,time,flux,flux_err
1354.1182717080285,1354.1182717080285,1.000729369354228,0.0014311594081155977
1354.1263736253525,1354.1263736253525,0.9994468886727109,0.0013058236523924773
1354.1333181257426,1354.1333181257426,1.0001055379427588,0.0013064723541219854
1354.1402626260399,1354.1402626260399,1.0001606894105497,0.0013053703739211988
1354.147207126151,1354.147207126151,0.9995296087575337,0.0013054778465694645
1354.1541516261689,1354.1541516261689,0.9985572646997474,0.0013046897832709428
1354.1610961259073,1354.1610961259073,0.9996535531928666,0.0013050966219456108
1354.168040625739,1354.168040625739,1.0019932476011875,0.001305974785647134
1354.174985125384,1354.174985125384,1.002297507944156,0.0013060038896645545
1354.1819296249366,1354.1819296249366,0.99689054283079,0.0013037528708445371
1354.1888741243024,1354.1888741243024,1.0021798535378585,0.0013057393004933912
1354.1958186234822,1354.1958186234822,0.999465630871569,0.0013042714933049217
1354.2027631226617,1354.2027631226617,0.9992468472689449,0.0013040716313834576
1354.2097076216553,1354.2097076216553,0.9998537627317245,0.001304500889802406
1354.2166521203694,1354.2166521203694,0.9993067930745061,0.0013036196629420626
1354.2235966192698,1354.2235966192698,0.9999860140916266,0.0013046100814795313
1354.2305411178902,1354.2305411178902,1.0007137166366067,0.0013049635891873798
1354.237485616232,1354.237485616232,1.0013260174506065,0.001305418917623573
1354.2444301147598,1354.2444301147598,1.0002896155573806,0.001305804371789754
1354.2513746130085,1354.2513746130085,1.0036687093467622,0.0013079114910860962
1354.2583191110703,1354.2583191110703,1.0007549545418886,0.00130747611480512
1354.2652636091323,1354.2652636091323,1.0017658270555552,0.0013080287369349529
1354.272208107008,1354.272208107008,1.001378661274218,0.0013088267212111454
1354.2791526047909,1354.2791526047909,0.9995552046468518,0.0013092529365999845
1354.2860971024802,1354.2860971024802,0.9961578884385232,0.0013089154155897951
1354.293041599984,1354.293041599984,0.9942463845063905,0.0013083826395603466
1354.2999860973937,1354.2999860973937,0.9932752723235166,0.001308387946802022
1354.3069305947108,1354.3069305947108,0.9915042351199261,0.0013089739522606897
1354.313875091935,1354.313875091935,0.9930199885016201,0.0013100825465594778
1354.3208195889724,1354.3208195889724,0.994205285688284,0.0013112642877525925
1354.3277640859171,1354.3277640859171,0.9964430913636875,0.0013114711061917054
1354.3347085827681,1354.3347085827681,0.9943880566569142,0.0013098585424177888
1354.3416530795264,1354.3416530795264,0.9907232450414943,0.0013074480231173818
1354.3485975760987,1354.3485975760987,0.9905495499741509,0.001305251098704881
1354.3555420727637,1354.3555420727637,0.995599911058985,0.001306468738586778
1354.3624865690563,1354.3624865690563,0.9983339077760268,0.0013070733228525012
1354.3694310653493,1354.3694310653493,0.9996387144058752,0.0013071864894545972
1354.3763755616415,1354.3763755616415,1.0038230151888334,0.001307657363051665
1354.3833200574686,1354.3833200574686,1.0010455563835343,0.0013059714906271055
1354.3902645535748,1354.3902645535748,1.0015791321330223,0.0013058006035946992
1354.3972090494015,1354.3972090494015,1.0018349701499678,0.0013055376284931298
1354.4041535451356,1354.4041535451356,0.9994007645980512,0.0013042759472424881
1354.4110980407763,1354.4110980407763,0.9994677981932639,0.0013041126032196767
1354.4180425363236,1354.4180425363236,1.0002446708396018,0.0013038994785024107
1354.4249870316853,1354.4249870316853,0.9987743866086533,0.0013034051818674025
1354.4319315269527,1354.4319315269527,0.9995177535888604,0.0013041665170658147
1354.4388760223144,1354.4388760223144,0.9987159984237668,0.0013035708041016737
1354.4458205173028,1354.4458205173028,0.999453320165421,0.0013042336649078403
1354.452765012385,1354.452765012385,1.0025178246586992,0.0013045544552991411
1354.4597095071877,1354.4597095071877,1.0003551132583357,0.001303969239043168
1354.46665400199,1354.46665400199,1.0005913958177888,0.00130418009897452
1354.4735984966994,1354.4735984966994,0.9987979912056474,0.0013029717916109998
1354.4805429913154,1354.4805429913154,0.9981792107338592,0.0013036992933515847
1354.487487485745,1354.487487485745,0.9997861980026321,0.001303078816624725
1354.4944319801757,1354.4944319801757,1.0019343645583871,0.0013043515755234538
1354.5013764744192,1354.5013764744192,1.001167491635529,0.0013041520321529954
1354.5083209686625,1354.5083209686625,1.000861158115705,0.0013039259736798085
1354.5152654628134,1354.5152654628134,0.9985568029056291,0.0013035641301644535
1354.5222099567777,1354.5222099567777,0.9998265966122464,0.001304630029543571
1354.5291544506488,1354.5291544506488,0.9978537273918198,0.001303414618504592
1354.5360989442404,1354.5360989442404,1.0008705519709624,0.0013038841228654766
1354.543043438019,1354.543043438019,1.000265073219256,0.0013037456971433706
1354.5499879316108,1354.5499879316108,0.9984359727997824,0.001302979681453258
1354.5569324251092,1354.5569324251092,1.002451206606055,0.0013042647793550873
1354.563876918514,1354.563876918514,0.9994837628954851,0.001303806739184885
1354.5708214117337,1354.5708214117337,1.0003786739720308,0.0013039092000699378
1354.5777659049527,1354.5777659049527,0.9982705578960888,0.0013026360460822418
1354.584710398079,1354.584710398079,1.000423889764027,0.001303046712185077
1354.5916548911123,1354.5916548911123,1.0007412082664728,0.0013035128156775148
1354.5985993839588,1354.5985993839588,1.000945009314475,0.0013031510276870321
1354.6055438768058,1354.6055438768058,0.9984167125218335,0.0013024830743551495
1354.6124883695588,1354.6124883695588,1.0009212979610755,0.0013032779998529292
1354.6194328622191,1354.6194328622191,0.9995658733220049,0.0013029281636437648
1354.6263773547867,1354.6263773547867,1.0009106619747357,0.001303319692352604
1354.6333218471677,1354.6333218471677,0.9983881879803306,0.0013028390302212835
1354.6402663395486,1354.6402663395486,1.0001934012098186,0.0013027118460047114
1354.6472108317437,1354.6472108317437,0.9986679224353254,0.0013028509003855698
1354.654155323938,1354.654155323938,0.9995289552727215,0.0013031220417002295
1354.6610998160402,1354.6610998160402,1.0002225232466977,0.00130362399647713
1354.6680443080486,1354.6680443080486,1.0011012575947322,0.001304044348449411
1354.6749887997773,1354.6749887997773,0.9992590567187225,0.001303518949460548
1354.6819332918797,1354.6819332918797,1.000568463529656,0.001303773205585065
1354.6888777835152,1354.6888777835152,0.9987995640595886,0.0013030082959820525
1354.6958222751514,1354.6958222751514,0.9999104723300916,0.0013035665153230274
1354.7027667666941,1354.7027667666941,0.9993337548294292,0.0013038770126219713
1354.7097112579577,1354.7097112579577,1.0016229536566048,0.0013046402047335946
1354.7166557494074,1354.7166557494074,1.0010837488371642,0.0013043770692665513
1354.723600240671,1354.723600240671,1.0013994657528245,0.0013044766788122893
1354.7305447318408,1354.7305447318408,0.9986966969271078,0.0013033681374784584
1354.7374892229186,1354.7374892229186,0.999684043888263,0.00130363492391524
1354.7444337139955,1354.7444337139955,0.997742194108118,0.0013029513871481461
1354.7513782048864,1354.7513782048864,1.0008399704181623,0.0013039626772782709
1354.7583226956842,1354.7583226956842,1.001794027830805,0.0013042738369870225
1354.765267186482,1354.765267186482,0.997722036101289,0.001302970073278034
1354.7722116771868,1354.7722116771868,1.001069431673363,0.0013039265856248613
1354.779156167705,1354.779156167705,1.0020990316543306,0.0013043053246851069
1354.7861006581304,1354.7861006581304,1.0018054152699223,0.001304376084667699
1354.7930451486488,1354.7930451486488,0.997668459283479,0.001302828894674286
1354.7999896389806,1354.7999896389806,0.9991938866843679,0.001302950994732316
1354.8069341292198,1354.8069341292198,0.9981037832592266,0.0013022898850482399
1354.8138786192726,1354.8138786192726,0.9994042564421545,0.001302886931897744
1354.8208231094184,1354.8208231094184,1.0005337801771907,0.0013032310469048758
1354.8277675993781,1354.8277675993781,0.9999679392912159,0.0013033493877114787
1354.8347120893382,1354.8347120893382,1.0008588193064785,0.001303453930790302
1354.8416565792043,1354.8416565792043,0.9999865895590769,0.0013031571226624625
1354.8486010688846,1354.8486010688846,0.9999905003273634,0.0013030672258231824
1354.8555455585645,1354.8555455585645,1.0008536033043345,0.0013035289750970703
1354.8624900481518,1354.8624900481518,1.000832639845147,0.0013032926885416499
1354.8694345376457,1354.8694345376457,0.9984920835896249,0.0013023668142797163
1354.8763790269534,1354.8763790269534,0.9996833683873445,0.0013029804941061698
1354.8833235162613,1354.8833235162613,1.0002808748784164,0.0013032195705881878
1354.8902680055687,1354.8902680055687,0.9994433829681355,0.0013031403408024947
1354.8972124948766,1354.8972124948766,1.0012744747018938,0.0013043026797420487
1354.904156983905,1354.904156983905,1.000098960887078,0.0013033274269773298
1354.9111014729328,1354.9111014729328,0.9983974832727107,0.0013036036682890822
1354.918045961868,1354.918045961868,1.0001111650449612,0.0013036099301924956
1354.92499045071,1354.92499045071,1.0023624214500784,0.0013045960687048366
1354.931934939459,1354.931934939459,0.9986750579044268,0.0013034913030469833
1354.939990546404,1354.939990546404,0.999882454470861,0.0013041103783967844
1354.947212814446,1354.947212814446,1.0000360402039674,0.0013044802196770396
1354.9541573030085,1354.9541573030085,0.9998747468603314,0.001304204406381225
1354.961101791478,1354.961101791478,1.0001390088983402,0.0013041639523633285
1354.9680462798544,1354.9680462798544,0.9998814796778124,0.001304083216590376
1354.974990768044,1354.974990768044,0.9983612104335172,0.0013032779379203053
1354.981935256421,1354.981935256421,0.9995364762639412,0.0013035360360951999
1354.988879744518,1354.988879744518,1.000565866522597,0.0013040138084237233
1354.9958242324285,1354.9958242324285,1.0011975929893246,0.001304207731522145
1355.0027687205256,1355.0027687205256,0.9991751034059785,0.0013030972528071598
1355.0097132083429,1355.0097132083429,1.0003619893416515,0.0013037544140064796
1355.016657696254,1355.016657696254,1.0033639847632172,0.0013044180095323264
1355.023602183978,1355.023602183978,0.9983387156177399,0.001302717423946386
1355.0305466716095,1355.0305466716095,1.0004896478326433,0.001303335621374794
1355.0374911592412,1355.0374911592412,0.9973813864757684,0.001302653472891347
1355.0444356466858,1355.0444356466858,0.998593822234738,0.0013027021406491627
1355.0513801342242,1355.0513801342242,1.0008687933332017,0.0013037329233801954
1355.058324621576,1355.058324621576,1.000888362219085,0.0013040693815133382
1355.0652691088349,1355.0652691088349,1.000369017901479,0.0013033260216226905
1355.072213596094,1355.072213596094,1.0010033240232992,0.001303572659864857
1355.0791580830728,1355.0791580830728,0.9997350003742392,0.0013035575184713647
1355.0861025704246,1355.0861025704246,0.998839111648499,0.001303250104976232
1355.0930470574974,1355.0930470574974,1.0006948865578353,0.001303900614871273
1355.0999915441041,1355.0999915441041,1.0010378019201016,0.0013043226434536676
1355.1069360309903,1355.1069360309903,0.9984815322395961,0.001302743195679939
1355.11388051797,1355.11388051797,1.0002973078714645,0.0013039491433609828
1355.1208250044833,1355.1208250044833,1.0020544983893918,0.0013048974128494737
1355.1277694911837,1355.1277694911837,0.9993440474499851,0.001304395031828937
1355.1347139776974,1355.1347139776974,0.9984009297420583,0.0013040290478480833
1355.1416584642106,1355.1416584642106,1.0011382930293802,0.0013049016629361914
1355.1486029506316,1355.1486029506316,0.9979750824714818,0.0013038075856957572
1355.1555474368663,1355.1555474368663,1.0015039462881103,0.0013048560708582024
1355.1624919232866,1355.1624919232866,1.0003763114342277,0.0013043059920727555
1355.1694364094278,1355.1694364094278,0.999242581143279,0.0013038307252518622
1355.1763808954759,1355.1763808954759,0.9989575829612006,0.0013037478108200546
1355.1833253816171,1355.1833253816171,0.9993137146318487,0.0013041088935662856
1355.190269867572,1355.190269867572,1.0018721087926328,0.0013042908887494161
1355.1972143534335,1355.1972143534335,0.9989818334147202,0.0013035721064341452
1355.2041588392956,1355.2041588392956,1.0019759717969794,0.0013040822236520914
1355.2111033250642,1355.2111033250642,0.999748591104278,0.0013034985452048929
1355.2180478107398,1355.2180478107398,0.9995757316747913,0.0013034426902987582
1355.2249922963224,1355.2249922963224,1.000235620945889,0.0013041595812150633
1355.2319367819048,1355.2319367819048,0.9992957551401267,0.001303330852093902
1355.238881267394,1355.238881267394,0.9997044849231337,0.0013037447016175966
1355.245825752697,1355.245825752697,1.0010372163646006,0.0013037050533421172
1355.252770238186,1355.252770238186,1.0008928256818879,0.0013043493102330322
1355.259714723396,1355.259714723396,0.99824474531335,0.0013029130964599509
1355.2666592086061,1355.2666592086061,0.9993788248350375,0.0013030057213428117
1355.2736036937226,1355.2736036937226,1.001028418570515,0.0013038012991265177
1355.2805481787461,1355.2805481787461,0.9994239620834877,0.0013031134445875925
1355.2874926636764,1355.2874926636764,0.9992284676073702,0.0013028441975297988
1355.2944371487006,1355.2944371487006,1.0008873850355369,0.0013033978186222774
1355.3013816333514,1355.3013816333514,0.9998552551488006,0.0013030962025364632
1355.3083261184681,1355.3083261184681,0.9995804738399758,0.0013027098975679702
1355.3152706031194,1355.3152706031194,1.0010545912567135,0.0013036364727709755
1355.3222150877705,1355.3222150877705,1.0004776605416457,0.0013031233524174843
1355.3291595723283,1355.3291595723283,1.0002566285911623,0.0013038978875761673
1355.3366596153792,1355.3366596153792,1.0008322154144356,0.0013034936461675385
1355.344437438095,1355.344437438095,1.0011284132350018,0.0013035937096048463
1355.3513819223738,1355.3513819223738,0.9973001901458802,0.0013028123114022354
1355.3583264066522,1355.3583264066522,0.9980448895499018,0.0013028830977265642
1355.3652708908376,1355.3652708908376,1.0005654467478793,0.0013041702861849112
1355.372215375023,1355.372215375023,1.0005026733968216,0.0013036825632435766
1355.3791598590221,1355.3791598590221,1.0004505166130229,0.0013042038349327574
1355.3861043431145,1355.3861043431145,1.0012702435880485,0.0013040750503588291
1355.3930488270205,1355.3930488270205,0.9977600354005262,0.0013027946947944
1355.4008266489916,1355.4008266489916,1.0021029756683055,0.0013043904966353974
1355.4083266914834,1355.4083266914834,0.9992215026213002,0.0013037431829762696
1355.4152711752033,1355.4152711752033,0.99978041587069,0.0013032623075735995
1355.4222156589228,1355.4222156589228,1.00014479147282,0.0013037711877373257
1355.4291601424563,1355.4291601424563,0.9986971794395065,0.0013030922607654113
1355.4361046258969,1355.4361046258969,1.0020450661377207,0.001304480719499692
1355.4430491094304,1355.4430491094304,0.9996970163734435,0.0013037428556668318
1355.4499935928707,1355.4499935928707,1.0005342879691805,0.0013038576919247372
1355.4569380761247,1355.4569380761247,0.9995195304070628,0.0013042765212594898
1355.463882559472,1355.463882559472,0.9997412601854204,0.0013033182469407852
1355.470827042633,1355.470827042633,1.0005766557837945,0.0013046161965875184
1355.477771525794,1355.477771525794,0.9995544970782488,0.0013040956063545433
1355.4847160088618,1355.4847160088618,0.9979244507565965,0.0013034027667902014
1355.4916604918367,1355.4916604918367,0.9999587295701229,0.0013040291508520448
1355.4986049748113,1355.4986049748113,1.0017151286739323,0.0013046277433383944
1355.5055494575995,1355.5055494575995,1.0021513543272138,0.001305099921083724
1355.512493940388,1355.512493940388,1.0003154090595419,0.0013041318414671425
1355.5194384230836,1355.5194384230836,0.9993101625451665,0.001303566036095051
1355.5263829057783,1355.5263829057783,1.000637542136361,0.0013035717238226827
1355.533327388474,1355.533327388474,0.9983636874164876,0.0013030668630066235
1355.5402718708901,1355.5402718708901,0.9997937928753732,0.0013034813531695223
1355.5472163533057,1355.5472163533057,1.0020015568369773,0.0013044779745910403
1355.554160836001,1355.554160836001,0.9996958404910993,0.0013036013085734994
1355.5611053183243,1355.5611053183243,0.998543614887125,0.0013035768619201404
1355.5680498004604,1355.5680498004604,1.0008153198606182,0.0013040732767196485
1355.574994282504,1355.574994282504,1.0010101601685941,0.0013039385595922889
1355.5819387648266,1355.5819387648266,0.9989736833097126,0.0013033370135894725
1355.5888832467767,1355.5888832467767,0.9991334203761456,0.0013027409981125645
1355.5958277289133,1355.5958277289133,0.9988708135107135,0.0013032913590569982
1355.6027722108636,1355.6027722108636,0.9997475643380117,0.0013031758658258819
1355.6097166927207,1355.6097166927207,0.9994237309227587,0.0013030240763043765
1355.6166611744848,1355.6166611744848,1.0010723937856176,0.0013035315739142214
1355.6236056562484,1355.6236056562484,1.0006948392238273,0.0013030072164903115
1355.6305501380127,1355.6305501380127,1.0000701306487858,0.001303172694836133
1355.6374946195906,1355.6374946195906,0.9993589394923728,0.0013028176732133975
1355.644439101168,1355.644439101168,1.0009769094317924,0.0013032536699668236
1355.6513835826527,1355.6513835826527,0.9988616260532959,0.001302706834477603
1355.6583280641375,1355.6583280641375,1.0004909691002513,0.0013030699978528997
1355.6652725454358,1355.6652725454358,0.9996151209848332,0.0013029860224389692
1355.6722170267342,1355.6722170267342,1.0003876092816821,0.001303147706799045
1355.6791615079394,1355.6791615079394,1.0001922578586606,0.0013033145967180789
1355.6861059893308,1355.6861059893308,0.9986287839862144,0.001303054805760298
1355.6930504702564,1355.6930504702564,0.9994109386686523,0.001303510631703983
1355.6999949513688,1355.6999949513688,1.0004577740265996,0.0013039691556814875
1355.7069394323876,1355.7069394323876,1.0014840409236316,0.001304230546086857
1355.713883913313,1355.713883913313,1.0020941952042277,0.0013049756986505312
1355.7208283941459,1355.7208283941459,0.9980022028240635,0.0013034479783125056
1355.7277728749787,1355.7277728749787,1.0009036527965511,0.0013043521610228927
1355.734717355718,1355.734717355718,0.9991502951511722,0.0013036514693774597
1355.7416618363648,1355.7416618363648,0.9981714458388027,0.0013036684427678797
1355.7497174339035,1355.7497174339035,1.0016332064077265,0.0013041824317116973
1355.7569396936565,1355.7569396936565,0.9979215232508916,0.0013026621113506446
1355.7638841741164,1355.7638841741164,0.9998261663010141,0.0013033609373326962
1355.7708286545767,1355.7708286545767,1.0003344444126716,0.001303646723335725
1355.7777731348506,1355.7777731348506,1.0021969713271042,0.001303837471808039
1355.7847176151242,1355.7847176151242,0.9999407490626936,0.0013033527181951928
1355.7916620953981,1355.7916620953981,0.9992996088442136,0.0013028844630291361
1355.7986065755792,1355.7986065755792,1.001852072383863,0.0013038681838319307
1355.8055510555737,1355.8055510555737,1.000112839879004,0.0013025900513636442
1355.8124955355681,1355.8124955355681,0.9982130355923147,0.0013025032450010893
1355.8194400155628,1355.8194400155628,0.9990998365511702,0.0013026233951762309
1355.8263844955568,1355.8263844955568,1.000453501275601,0.0013032924414837406
1355.8333289755515,1355.8333289755515,1.0004057182156851,0.0013038773044076004
1355.8402734550805,1355.8402734550805,1.0002836404052111,0.0013034500388614634
1355.8472179349815,1355.8472179349815,0.9994232886501729,0.0013030994868581168
1355.8541624146037,1355.8541624146037,1.0021140514328195,0.001303862424728863
1355.8611068941325,1355.8611068941325,1.0001460168127185,0.001303384684731724
1355.8680513737543,1355.8680513737543,0.9984573928814647,0.001302766836213778
1355.8749958532833,1355.8749958532833,0.9991122335825529,0.0013028865091153524
1355.8819403326258,1355.8819403326258,0.9992259474073141,0.0013029356089635231
1355.8888848119684,1355.8888848119684,0.9983064677753477,0.0013025158732872342
