time,time,flux,flux_err
1325.299703519141,1325.299703519141,0.999927379258323,0.00020609056023872832
1325.3080367867099,1325.3080367867099,0.9999310551174574,0.000206141405350202
1325.3163700545317,1325.3163700545317,1.0001644144172153,0.00020618918085078112
1325.32470332261,1325.32470332261,0.9999129549914744,0.0002061852148316745
1325.3323421518937,1325.3323421518937,1.0000281459234917,0.00018824180916699197
1325.339286542336,1325.339286542336,1.0000645885307151,0.00018827583233734128
1325.3462309329414,1325.3462309329414,1.000228609175431,0.00018831548744996956
1325.353175323721,1325.353175323721,0.9998240829534275,0.00018831956054847395
1325.3601197146636,1325.3601197146636,1.0000311493402325,0.00018837269677096676
1325.3670641057756,1325.3670641057756,0.9999361412296993,0.0001883853954687976
1325.3740084970443,1325.3740084970443,0.9999069727789079,0.0001884177272006142
1325.380952888482,1325.380952888482,0.9999333749990799,0.00018844121685671137
1325.3878972800765,1325.3878972800765,0.9997957946706663,0.0001884721294687244
1325.394841671828,1325.394841671828,1.000437354531676,0.00018855467928641174
1325.4017860637491,1325.4017860637491,1.0001300377581872,0.00018856922330004876
1325.408730455821,1325.408730455821,0.9998184255059297,0.00018855453906141203
1325.4156748480443,1325.4156748480443,0.999800426670111,0.0001885959325937528
1325.4226192404249,1325.4226192404249,1.0003330405025375,0.00018867230767423025
1325.4295636329628,1325.4295636329628,0.9998513992109335,0.00018866239610701977
1325.4365080256516,1325.4365080256516,0.9999881280457835,0.00018869576040844038
1325.4434524184803,1325.4434524184803,0.9999676869256859,0.00018873027310299304
1325.4503968114777,1325.4503968114777,0.9999654329526552,0.0001887495540668274
1325.4573412046034,1325.4573412046034,1.0001228216384772,0.00018879305432857878
1325.464285597886,1325.464285597886,1.0000278329649603,0.00018881245829894755
1325.4712299913085,1325.4712299913085,0.9998387580119934,0.0001888392583477634
1325.4781743848705,1325.4781743848705,0.9999744437286788,0.00018888108341551165
1325.4851187785896,1325.4851187785896,1.0001131957490281,0.00018892515226655318
1325.4920631724374,1325.4920631724374,1.0003847582745606,0.00018900538086432972
1325.4990075664302,1325.4990075664302,0.9996151355667247,0.00018896903898704847
1325.505951960551,1325.505951960551,0.9999292281329394,0.00018903265209571513
1325.5128963548232,1325.5128963548232,1.000199487668183,0.0001890720086212292
1325.5198407492237,1325.5198407492237,0.9997034499186641,0.00018908970450137556
1325.526785143752,1325.526785143752,0.9999299880086374,0.00018914835417542178
1325.5337295384259,1325.5337295384259,1.0000921379614476,0.00018919562428159766
1325.5406739332277,1325.5406739332277,1.0000941982144955,0.00018923204991515432
1325.547618328158,1325.547618328158,1.0000642649227947,0.00018927759501922016
1325.5545627232157,1325.5545627232157,1.0001627507789026,0.00018931628856037083
1325.5615071184022,1325.5615071184022,1.000041520538845,0.00018934124479428585
1325.5684515137223,1325.5684515137223,0.999815347594212,0.00018935451429961432
1325.57539590917,1325.57539590917,0.9998069349340675,0.00018940776098191073
1325.5823403047293,1325.5823403047293,0.9999796369438464,0.00018943076835934797
1325.5892847004093,1325.5892847004093,0.9999309873490366,0.00018946853407617088
1325.5962290962186,1325.5962290962186,1.0002013771187255,0.00018951268950613998
1325.6031734921496,1325.6031734921496,0.9999341914711926,0.00018951910267478767
1325.6101178881975,1325.6101178881975,1.0002500582594753,0.00018956139769451665
1325.6170622843672,1325.6170622843672,1.0000641638221204,0.00018955878769485714
1325.6240066806592,1325.6240066806592,1.000167011510645,0.00018957046552086065
1325.6309510770561,1325.6309510770561,0.9997379635100623,0.00018955125697419059
1325.6378954735696,1325.6378954735696,0.9996513996876167,0.00018955157626683578
1325.644839870199,1325.644839870199,1.0000750191757972,0.0001895910414973065
1325.6517842669334,1325.6517842669334,1.000145819856288,0.00018960720817747374
1325.65872866379,1325.65872866379,0.9999879006973641,0.00018959503516082654
1325.6656730607576,1325.6656730607576,0.9997823407323818,0.0001895884232150726
1325.6726174578234,1325.6726174578234,1.0002880446105844,0.00018960961453546367
1325.6795618550063,1325.6795618550063,0.9997694405376409,0.00018957847080644188
1325.686506252288,1325.686506252288,1.0001610109617034,0.00018961641049564787
1325.6934506496857,1325.6934506496857,1.0000516246663909,0.00018962745129717576
1325.7003950471776,1325.7003950471776,1.0000995321878856,0.000189617162959782
1325.7073394447789,1325.7073394447789,0.9998211137041606,0.00018962121899909512
1325.7142838424854,1325.7142838424854,1.0000295351853832,0.00018964658062339994
1325.721228240279,1325.721228240279,1.0001291374797172,0.00018967839318538633
1325.7281726381893,1325.7281726381893,0.9997501277100049,0.00018967116048048167
1325.7351170361928,1325.7351170361928,1.0000834939052297,0.0001897186487647635
1325.742061434295,1325.742061434295,0.9999853171606624,0.00018973805438696933
1325.7490058324904,1325.7490058324904,1.0002262775179585,0.00018978347131811595
1325.7559502307852,1325.7559502307852,0.9999677079041792,0.0001897857418301671
1325.7628946291725,1325.7628946291725,1.0001078097582345,0.0001898320328795542
1325.769839027659,1325.769839027659,0.9998855609666583,0.00018983791368435224
1325.7767834262445,1325.7767834262445,1.0000600115022995,0.00018987789424810091
1325.7837278249115,1325.7837278249115,0.9995518720297476,0.00018987786389108104
1325.7906722236717,1325.7906722236717,1.000002502606757,0.0001899297536226004
1325.7976166225187,1325.7976166225187,0.99968564839191,0.00018991676015198583
1325.804561021471,1325.804561021471,0.9999805145274422,0.0001899612071948729
1325.811505420493,1325.811505420493,1.0000455251646563,0.00018998379256386674
1325.8184498196142,1325.8184498196142,0.9999486809908846,0.0001899858566977678
1325.8253942188164,1325.8253942188164,1.0002632891822534,0.00019002212223992644
1325.8323386181062,1325.8323386181062,1.0002415619914673,0.00019004070877861522
1325.8392830174835,1325.8392830174835,1.0000930511185104,0.00019003599042378446
1325.846227416942,1325.846227416942,0.9999832282685904,0.00019002317937609917
1325.85317181647,1325.85317181647,0.9999095973616369,0.00019000241962962276
1325.8601162161035,1325.8601162161035,0.9999814034429783,0.00019001333543427053
1325.8670606158066,1325.8670606158066,0.9999862924590708,0.0001900014531722174
1325.874005015597,1325.874005015597,0.9996293586449234,0.00018995951983540648
1325.880949415463,1325.880949415463,1.0000491476573647,0.0001899720472634707
1325.8878938154046,1325.8878938154046,0.9998713322005688,0.00018993661782737764
1325.894838215422,1325.894838215422,1.0000706633830054,0.00018994049872666689
1325.901782615521,1325.901782615521,1.0002154807389392,0.0001899420469004262
1325.908727015701,1325.908727015701,1.0000039810647654,0.00018989027861215915
1325.9156714159571,1325.9156714159571,1.000018069380541,0.00018988657645645446
1325.922615816277,1325.922615816277,1.0000728993316725,0.00018988956264713128
1325.929560216673,1325.929560216673,0.9999869492617549,0.00018987850252679284
1325.9365046171442,1325.9365046171442,0.9999912986099554,0.00018989124703509187
1325.9434490176914,1325.9434490176914,1.0001832271827067,0.00018988232406987835
1325.9503934183085,1325.9503934183085,1.0000797458103947,0.00018988189918979728
1325.9573378190012,1325.9573378190012,0.9997793546201809,0.00018985833922185189
1325.9653933238885,1325.9653933238885,1.0000275931169902,0.00018987816578571048
1325.9726155007563,1325.9726155007563,0.9997962236516063,0.00018984358391048244
1325.9795599016584,1325.9795599016584,0.9999791881532694,0.00018987178986581602
1325.9865043026361,1325.9865043026361,0.9997576267960637,0.00018985947614337948
1325.9934487036776,1325.9934487036776,1.0000548791352564,0.00018989175438174064
1326.0003931047954,1326.0003931047954,1.0003156408681773,0.00018992252297688427
1326.007337505971,1326.007337505971,0.9999934318156116,0.00018992311411044328
1326.014281907205,1326.014281907205,0.9997690183150455,0.0001899084890850818
1326.021226308509,1326.021226308509,1.000336756833408,0.00018998124465000523
1326.0281707098827,1326.0281707098827,1.0001859483487043,0.00019000470775226724
1326.0351151113086,1326.0351151113086,0.9998547853365706,0.00018996955520829601
1326.042059512804,1326.042059512804,1.0001502452323088,0.00018998821371468867
1326.0490039143583,1326.0490039143583,0.9998706534855153,0.00018997109675006815
1326.0559483159761,1326.0559483159761,0.9998098417731442,0.00018997451650909226
1326.0628927176526,1326.0628927176526,0.9997212255967389,0.00018998180398754777
1326.0698371193928,1326.0698371193928,1.0002486660968932,0.00019003869263398032
1326.0767815211796,1326.0767815211796,1.0001989212778422,0.00019003474092154458
1326.0837259230366,1326.0837259230366,0.9995401636809426,0.00018997582335648493
1326.090670324946,1326.090670324946,1.0001444078634396,0.0001900417213556591
1326.097614726907,1326.097614726907,0.9997388792690606,0.00019000020384126322
1326.104559128939,1326.104559128939,1.0004586356157963,0.00019008285206286577
1326.1115035310104,1326.1115035310104,1.0001666527638067,0.00019004771946360218
1326.1184479331469,1326.1184479331469,0.9998559825900992,0.00019003766128640673
1326.125392335335,1326.125392335335,1.0001614532273515,0.0001900421749152523
1326.1323367375765,1326.1323367375765,0.9999535097438088,0.00019002556586468556
1326.1392811398812,1326.1392811398812,0.9998647368158418,0.00019002360019531879
1326.146225542227,1326.146225542227,1.0000446419309008,0.00019005642578211255
1326.1531699446248,1326.1531699446248,0.9995580842267197,0.00019000326772126375
1326.1601143470753,1326.1601143470753,1.0001981258814074,0.00019006610312853652
1326.167058749584,1326.167058749584,1.0001645007190856,0.0001900575456885022
1326.174003152139,1326.174003152139,1.0002536430402769,0.00019006067910078817
1326.1809475547411,1326.1809475547411,0.9996307279032901,0.0001900146756176432
1326.187891957395,1326.187891957395,1.0000117289055914,0.00019004410575091567
1326.1948363601018,1326.1948363601018,0.9999603653661865,0.00019004481966675824
1326.201780762855,1326.201780762855,1.0002804036982744,0.00019007692645776103
1326.2087251656544,1326.2087251656544,1.0001948080636283,0.0001900480815880985
1326.2156695685007,1326.2156695685007,0.9998526974504498,0.00019004294584815218
1326.2226139714053,1326.2226139714053,0.9998127231410457,0.0001900212022529883
1326.2295583743387,1326.2295583743387,0.9998806049148043,0.0001900387252654773
1326.2365027773246,1326.2365027773246,0.9997928810387371,0.0001900334145621203
1326.2434471803626,1326.2434471803626,1.0001593975799636,0.00019005506783356126
1326.2503915834363,1326.2503915834363,1.0002297412002374,0.00019005556707812841
1326.2573359865619,1326.2573359865619,1.0000252964735008,0.00019006344187926598
1326.2642803897227,1326.2642803897227,1.0001876053356709,0.00019004823540246508
1326.2712247929298,1326.2712247929298,0.9999480980571247,0.00019003071591504916
1326.278169196189,1326.278169196189,0.9994754869542521,0.00019000085584978263
1326.2851135994838,1326.2851135994838,1.0001658361410168,0.00019005199992971263
1326.292058002813,1326.292058002813,1.00011038213785,0.00019004752783235586
1326.299002406195,1326.299002406195,0.9999323310641721,0.000190037880048662
1326.3059468096171,1326.3059468096171,1.000062310532593,0.0001900412484374579
1326.312891213081,1326.312891213081,1.0000718686854255,0.000190062535191428
1326.3198356165844,1326.3198356165844,1.0001032353510797,0.0001900783742243384
1326.3267800201177,1326.3267800201177,1.0000849269909473,0.0001900700840469744
1326.3337244237032,1326.3337244237032,1.0000674020298281,0.00019007336315146568
1326.3406688273178,1326.3406688273178,0.9998975051515275,0.00019008158731168538
1326.3487243355698,1326.3487243355698,0.9999106884663249,0.00019009757719001816
1326.3573353961544,1326.3573353961544,1.0002892528418712,0.00019013163618817843
1326.3642797999091,1326.3642797999091,1.000008342528736,0.00019012611686745816
1326.3712242036922,1326.3712242036922,0.9997797561696634,0.00019010841664037303
1326.3781686075167,1326.3781686075167,1.000019657370941,0.00019014505445663055
1326.3851130113758,1326.3851130113758,1.0001058930764744,0.00019015326426339175
1326.3920574152753,1326.3920574152753,1.0000399813554233,0.00019017079895603675
1326.3990018191987,1326.3990018191987,1.000066865937776,0.0001901779373506272
1326.405946223168,1326.405946223168,0.9997186430259987,0.00019014502346114775
1326.4128906271615,1326.4128906271615,1.0001962359704977,0.00019019822917453459
1326.4198350312006,1326.4198350312006,1.000021900328179,0.0001902076965851087
1326.4267794352638,1326.4267794352638,0.9999246924027634,0.00019020792693717623
1326.4337238393668,1326.4337238393668,1.000317150550042,0.00019026187343950567
1326.4406682435056,1326.4406682435056,0.9999128912778404,0.00019022754255707667
1326.4476126476734,1326.4476126476734,0.9997402676719982,0.0001902130513054624
1326.4545570518699,1326.4545570518699,1.0000114426130693,0.0001902649757008123
1326.4615014561016,1326.4615014561016,1.0000049468672274,0.0001902631367802445
1326.4684458603738,1326.4684458603738,0.9999440338792305,0.00019025216904338893
1326.4753902646694,1326.4753902646694,0.999627868432348,0.00019024151726514078
1326.4823346689943,1326.4823346689943,1.0002192642687258,0.0001902954841189899
1326.489279073342,1326.489279073342,1.0000496940621533,0.00019030455209017935
1326.4962234777367,1326.4962234777367,1.0002951288311621,0.00019032103617590247
1326.5031678821545,1326.5031678821545,1.000145277913089,0.00019031628307003892
1326.5101122866017,1326.5101122866017,0.9999481116138998,0.00019030801834235341
1326.5170566910833,1326.5170566910833,1.0003018795581196,0.0001903575752710105
1326.524001095577,1326.524001095577,0.9997510159824156,0.00019031517513168512
1326.530945500123,1326.530945500123,0.9997714972375775,0.0001903470195976746
1326.5378899046805,1326.5378899046805,0.9998690838689251,0.00019037197708284215
1326.5448343092735,1326.5448343092735,1.0000099431916236,0.00019040905745150793
1326.5517787138947,1326.5517787138947,0.9998406432289846,0.00019042757290968861
1326.5587231185395,1326.5587231185395,1.0000849741580242,0.00019045708629218617
1326.5656675232135,1326.5656675232135,1.0002081317343205,0.00019046032277567174
1326.5726119279107,1326.5726119279107,0.9999616995457741,0.00019042405045609497
1326.579556332643,1326.579556332643,0.9997664548669238,0.0001904260385251555
1326.5865007373925,1326.5865007373925,1.0001269699866309,0.0001904545787314793
1326.5934451421715,1326.5934451421715,1.0002273568025153,0.00019046407812509694
1326.6003895469678,1326.6003895469678,0.9997402915804784,0.0001904229303900864
1326.6073339518102,1326.6073339518102,1.0000007152413712,0.00019045302495281432
1326.6142783566593,1326.6142783566593,1.0001951460241687,0.00019049754502860412
1326.6212227615365,1326.6212227615365,1.0002432338563003,0.00019048989162786365
1326.6281671664437,1326.6281671664437,0.9999103608638353,0.0001904739099830836
1326.6351115713678,1326.6351115713678,0.9999784115255487,0.00019046124888255465
1326.6420559763155,1326.6420559763155,0.9999632981619431,0.0001904834338039351
1326.649000381292,1326.649000381292,0.9998061002180973,0.00019046581363421443
1326.655944786292,1326.655944786292,0.9998710620271221,0.00019047524934838947
1326.6628891913097,1326.6628891913097,0.9998842463596089,0.00019046401850958926
1326.6698335963615,1326.6698335963615,1.0001994272486603,0.00019046949445384356
1326.6767780014202,1326.6767780014202,1.0001421404333077,0.00019046813105181884
1326.683722406513,1326.683722406513,0.9999936575712918,0.00019044223724832472
1326.6920556926457,1326.6920556926457,1.0000689424357478,0.00019044452237019317
1326.6990000977794,1326.6990000977794,0.9999526717979845,0.00019041506609238649
1326.7059445029422,1326.7059445029422,0.9998970016312857,0.00019038090538498088
1326.713722236742,1326.713722236742,0.9999527689727614,0.0001903915760862354
1326.7212221943605,1326.7212221943605,0.9999676831805262,0.00019037390296779478
1326.7281665995874,1326.7281665995874,1.0000148665708928,0.0001903646392667143
1326.7351110048257,1326.7351110048257,1.0001121070835484,0.0001903600711348253
1326.7420554100936,1326.7420554100936,0.9999358508111895,0.0001903226705180782
1326.7489998153785,1326.7489998153785,1.0000408650480204,0.00019034175663228673
1326.7559442206812,1326.7559442206812,1.0000294339292628,0.00019033794513099357
1326.7628886260013,1326.7628886260013,1.0001492251578386,0.00019034037158226615
1326.7698330313503,1326.7698330313503,1.0000875919678334,0.00019033499125394065
1326.7767774367112,1326.7767774367112,0.9997754057744807,0.00019029903959055626
1326.7837218420839,1326.7837218420839,0.9999589657367368,0.00019030708432368366
1326.7906662474857,1326.7906662474857,1.0001323893041456,0.00019033087421885424
1326.7976106529045,1326.7976106529045,0.9998838697781721,0.00019032074652239127
1326.8045550583356,1326.8045550583356,0.9998725196895913,0.000190322506846508
1326.8114994637888,1326.8114994637888,0.9997475252272725,0.0001903033202624681
1326.8184438692604,1326.8184438692604,1.0000452308283434,0.00019033944297207477
1326.8253882747435,1326.8253882747435,1.0000917721819884,0.00019034311008825296
1326.8323326802501,1326.8323326802501,1.0004205892321383,0.000190356871141295
1326.8392770857681,1326.8392770857681,1.00027889816946,0.00019034925556050112
1326.8462214913093,1326.8462214913093,0.9997544590485241,0.00019029304979239098
1326.8531658968564,1326.8531658968564,0.999704537373263,0.00019029917111149338
1326.8601103024325,1326.8601103024325,1.0002642707049922,0.0001903442955090029
1326.8670547080205,1326.8670547080205,1.000039268403747,0.00019028875512391142
1326.8739991136201,1326.8739991136201,0.9998470874128682,0.00019027051350001655
1326.880943519231,1326.880943519231,0.9997243381715105,0.0001902416147291545
1326.8878879248657,1326.8878879248657,1.000115409281673,0.000190230926306283
1326.8948323305112,1326.8948323305112,0.9998349544755284,0.00019019455143317763
1326.901776736181,1326.901776736181,1.0002334921984228,0.00019018078733784558
1326.9087211418444,1326.9087211418444,0.9998232360028547,0.00019012277444305296
1326.915665547537,1326.915665547537,0.9998939530281122,0.0001900924378736324
1326.922609953253,1326.922609953253,1.0003685197248684,0.00019009254096749294
1326.929554358969,1326.929554358969,0.9999731970663225,0.00019005286147261713
1326.9364987647023,1326.9364987647023,0.999963837560288,0.00019002605029119098
1326.943443170447,1326.943443170447,0.9999538248244152,0.00018999117969251993
1326.9503875762098,1326.9503875762098,1.0000283331200088,0.00018997965797030075
1326.9573319819835,1326.9573319819835,1.0000762490084631,0.00018996636882417955
1326.9642763877757,1326.9642763877757,1.0002333460340285,0.00018996157846213528
1326.9712207935786,1326.9712207935786,0.9998482324798896,0.00018990233030155343
1326.9781651993876,1326.9781651993876,1.000007632542722,0.00018990219097645973
1326.9851096052203,1326.9851096052203,1.0000110513565448,0.0001898748964949752
1326.9920540110584,1326.9920540110584,0.999884618240744,0.00018986001245804027
1326.998998416902,1326.998998416902,0.9998069230592709,0.00018982583589621048
1327.0059428227694,1327.0059428227694,0.9999434112950432,0.00018985710078204854
1327.0128872286425,1327.0128872286425,0.9999512574376942,0.00018984957260977824
1327.0198316345272,1327.0198316345272,1.0002897160506026,0.0001898582873131424
1327.0267760404292,1327.0267760404292,0.9998856239925104,0.00018983533845257384
1327.0337204463433,1327.0337204463433,1.0001143156678467,0.00018985125187978355
1327.040664852257,1327.040664852257,0.999838801773673,0.00018980952609952358
1327.0476092581882,1327.0476092581882,1.0001431973008421,0.00018985340005162204
1327.054553664137,1327.054553664137,0.9999127324158742,0.00018983316164042412
