time,time,flux,flux_err
1325.2998211837448,1325.2998211837448,1.0003157885683158,0.0004094295613170099
1325.3081544370189,1325.3081544370189,1.0002063268826185,0.0004097442178888873
1325.3164876905555,1325.3164876905555,0.999886388402574,0.00040971842545141417
1325.324820944334,1325.324820944334,0.9994794590444228,0.0004097416382544686
1325.3324597605074,1325.3324597605074,1.000014505117504,0.00037422776776655306
1325.339404139023,1325.339404139023,0.9998945173275053,0.0003742720270273626
1325.3463485177017,1325.3463485177017,0.9996150005902644,0.00037432856261024116
1325.3532928965662,1325.3532928965662,1.0000709497917737,0.000374445968100999
1325.3602372755936,1325.3602372755936,0.9999227326818559,0.000374678771757523
1325.3671816547617,1325.3671816547617,1.0005997573206078,0.00037484244186106864
1325.3741260341035,1325.3741260341035,1.0001178190291349,0.0003748569764611218
1325.3810704136085,1325.3810704136085,1.0004313509162355,0.0003750060014513155
1325.3880147932646,1325.3880147932646,0.999489944055435,0.0003750352781152434
1325.3949591731184,1325.3949591731184,0.9999269029944354,0.0003752666048484736
1325.4019035530778,1325.4019035530778,1.0005317846655726,0.0003753955377785007
1325.408847933223,1325.408847933223,0.9996843953915118,0.00037536344069940436
1325.4157923134965,1325.4157923134965,0.9996702059807465,0.00037556106533801544
1325.4227366939676,1325.4227366939676,0.9997325924560935,0.00037563416867900795
1325.4296810745554,1325.4296810745554,0.9994040083836536,0.00037575611683069273
1325.4366254552942,1325.4366254552942,1.000296071871937,0.00037594865034385215
1325.4435698361963,1325.4435698361963,1.000155902968441,0.00037600743841618045
1325.4505142172495,1325.4505142172495,1.0007450364866453,0.0003762210752157892
1325.4574585984308,1325.4574585984308,1.0000419980875312,0.0003762292257334011
1325.4644029797519,1325.4644029797519,1.0001102570713045,0.00037631335420593387
1325.4713473612476,1325.4713473612476,0.9997684932491593,0.0003763703950929861
1325.478291742883,1325.478291742883,0.9999581745817512,0.0003765181644761645
1325.4852361246344,1325.4852361246344,0.9994737280675702,0.0003765873715863804
1325.492180506538,1325.492180506538,1.000077728488457,0.0003768554554235058
1325.4991248885808,1325.4991248885808,1.0002588464885727,0.0003769968040454144
1325.506069270775,1325.506069270775,1.0000200631047809,0.0003770576631064806
1325.5130136530854,1325.5130136530854,1.0000810534265523,0.0003772216640414266
1325.5199580355475,1325.5199580355475,1.000117191104511,0.0003773675987179878
1325.5269024181375,1325.5269024181375,0.9995624042266554,0.00037734688703120335
1325.5338468008554,1325.5338468008554,0.9999816087486082,0.0003776309780016198
1325.5407911837015,1325.5407911837015,1.0001850110241859,0.0003776967765260681
1325.5477355666992,1325.5477355666992,0.9999539707135792,0.0003777956677764013
1325.5546799498243,1325.5546799498243,0.999726785577271,0.0003778922922116088
1325.5616243330433,1325.5616243330433,1.0002433692177881,0.0003781190420501767
1325.5685687164132,1325.5685687164132,1.0000685671801341,0.0003782088346709992
1325.575513099911,1325.575513099911,1.0001827548951556,0.0003783058616750149
1325.5824574835376,1325.5824574835376,1.0003870619146347,0.00037839806878346466
1325.5894018672675,1325.5894018672675,0.9993237503490539,0.0003783516168870668
1325.596346251127,1325.596346251127,1.0001983716787497,0.00037856403662993765
1325.6032906351022,1325.6032906351022,1.0000723077910814,0.0003786146469572999
1325.6102350192173,1325.6102350192173,0.9995946746449519,0.00037856403665800347
1325.6171794034256,1325.6171794034256,0.9997905435467306,0.00037868736504054017
1325.6241237877734,1325.6241237877734,1.0002098384946663,0.0003788244900483029
1325.631068172226,1325.631068172226,1.0002861714542288,0.00037884872280691983
1325.6380125567953,1325.6380125567953,1.0004583640305245,0.000378884169392014
1325.6449569414804,1325.6449569414804,0.9998552564528872,0.0003788140947517997
1325.6519013262707,1325.6519013262707,0.9998231549333401,0.0003788543224794607
1325.6588457111773,1325.6588457111773,0.9998320495074091,0.0003788752067599219
1325.6657900962005,1325.6657900962005,0.9998492460996216,0.0003789743508996283
1325.6727344813164,1325.6727344813164,0.9999937467628819,0.0003789530671805102
1325.6796788665727,1325.6796788665727,1.0000782738084735,0.00037901807009033697
1325.68662325191,1325.68662325191,1.0001385848997468,0.0003790852992827162
1325.6935676373635,1325.6935676373635,0.9999798848955533,0.0003791650263093996
1325.7005120228994,1325.7005120228994,1.0002527785794078,0.00037921371240215294
1325.7074564085624,1325.7074564085624,1.0001281132282593,0.0003793024122647105
1325.7144007943189,1325.7144007943189,0.9996642746983142,0.00037928214863167743
1325.7213451801915,1325.7213451801915,1.0000517304283005,0.00037937830955039805
1325.728289566146,1325.728289566146,1.0001309138492425,0.0003794501128636
1325.735233952217,1325.735233952217,0.9993654626433214,0.00037935908321621713
1325.7421783383809,1325.7421783383809,1.0000225382251096,0.00037957306647818143
1325.7491227246378,1325.7491227246378,0.9998868268189443,0.0003796254097247429
1325.7560671109882,1325.7560671109882,1.0004650800371473,0.0003797452405049413
1325.7630114974431,1325.7630114974431,0.9997372939068665,0.0003798158767222147
1325.7699558840027,1325.7699558840027,0.999918046886574,0.0003798924012916237
1325.7769002706325,1325.7769002706325,1.0000365759458965,0.00037998449348681455
1325.783844657367,1325.783844657367,1.0006027848944425,0.00038013573591083745
1325.7907890441943,1325.7907890441943,1.000075978973189,0.0003801680773726855
1325.797733431103,1325.797733431103,0.9999470038513794,0.0003802054770286194
1325.8046778181288,1325.8046778181288,0.9998595387415186,0.00038030190108584563
1325.8116222052122,1325.8116222052122,1.000016107752051,0.00038033297993646893
1325.8185665923893,1325.8185665923893,1.0000427411647719,0.0003804235691050637
1325.8255109796823,1325.8255109796823,0.9995123829665047,0.00038040108737089675
1325.8324553670336,1325.8324553670336,1.0002228589143916,0.0003805724846407745
1325.83939975449,1325.83939975449,0.9999653440740068,0.0003805636894047777
1325.846344142004,1325.846344142004,0.9996986809204049,0.00038048537744445125
1325.8532885296231,1325.8532885296231,0.9998162845723039,0.0003805041752309779
1325.8602329173123,1325.8602329173123,0.9998833068847095,0.0003805019345720394
1325.8671773050828,1325.8671773050828,1.0000961978552492,0.0003805400766078946
1325.8741216929582,1325.8741216929582,1.0002352901973368,0.00038048808776600487
1325.8810660808915,1325.8810660808915,1.0001897780222517,0.0003804319279722997
1325.8880104689297,1325.8880104689297,0.999878665724173,0.0003802803300674687
1325.8949548570145,1325.8949548570145,0.9995205130921686,0.0003801977973363538
1325.9018992451806,1325.9018992451806,1.0008002747955733,0.0003803565752604956
1325.90884363344,1325.90884363344,0.9994868035716596,0.0003800614898949332
1325.9157880217927,1325.9157880217927,0.9998333833016397,0.0003801003748800483
1325.9227324101798,1325.9227324101798,0.9999034710313028,0.0003801117274781838
1325.9296767986493,1325.9296767986493,0.9998807268805289,0.00038005369532219163
1325.9366211872227,1325.9366211872227,1.000167270410333,0.0003801333276773363
1325.9435655758198,1325.9435655758198,1.0000800058087869,0.0003801200099640864
1325.9505099645335,1325.9505099645335,1.0003745512687534,0.0003800807738589715
1325.9574543533167,1325.9574543533167,0.9995947170930501,0.00038000203340913467
1325.9655098443684,1325.9655098443684,0.9998946278708134,0.00038018367201215445
1325.9727320088612,1325.9727320088612,1.0002440801290906,0.00038013618163955777
1325.9796763978538,1325.9796763978538,0.9999017403953474,0.0003800500935494733
1325.986620786905,1325.986620786905,0.9998651131737567,0.0003800921113781326
1325.9935651760488,1325.9935651760488,1.0002771957508612,0.00038018993096916473
1326.00050956524,1326.00050956524,0.999990575015911,0.0003802265437723914
1326.0074539545235,1326.0074539545235,1.0000762005118757,0.00038026445477981104
1326.0143983438543,1326.0143983438543,1.0001657005874534,0.00038041357083579066
1326.021342733243,1326.021342733243,0.9996735523903586,0.0003804004042865076
1326.0282871227016,1326.0282871227016,0.9998858276730085,0.0003804551923809189
1326.0352315122182,1326.0352315122182,1.000365966490201,0.00038056396367366506
1326.0421759018277,1326.0421759018277,0.9997737181086401,0.00038052372062014896
1326.0491202914611,1326.0491202914611,0.9996715029020148,0.0003804975841170821
1326.0560646811869,1326.0560646811869,0.99985326455398,0.00038052220844055475
1326.06300907096,1326.06300907096,1.000177609058762,0.00038060470561764113
1326.0699534607909,1326.0699534607909,0.9998454337124321,0.0003806153539581937
1326.0768978506799,1326.0768978506799,1.00068296855557,0.00038074703707214984
1326.0838422406393,1326.0838422406393,1.0000389331530646,0.00038064593604004976
1326.0907866306568,1326.0907866306568,1.0001186233839872,0.0003806963036758042
1326.0977310207088,1326.0977310207088,1.000156908587732,0.0003807360974206678
1326.104675410843,1326.104675410843,0.9997514822933251,0.00038067699552618225
1326.1116198010227,1326.1116198010227,0.99943448930756,0.0003806061094731562
1326.118564191273,1326.118564191273,0.9998845032793271,0.00038067528965882717
1326.1255085815578,1326.1255085815578,1.0001828345788768,0.000380699129856609
1326.1324529719132,1326.1324529719132,0.9997738568913281,0.0003806693611147648
1326.1393973623028,1326.1393973623028,1.000112982974456,0.00038067199884593187
1326.146341752786,1326.146341752786,0.9999338016843715,0.00038076663137056216
1326.153286143292,1326.153286143292,1.0002769180442632,0.0003807064845230602
1326.1602305338563,1326.1602305338563,1.0005078076651273,0.00038079645764499507
1326.1671749244674,1326.1671749244674,0.9999162488392084,0.000380714807155853
1326.1741193151247,1326.1741193151247,0.9999888185757111,0.0003806855899810617
1326.1810637058525,1326.1810637058525,0.9993747228927294,0.0003805784975471571
1326.1880080966264,1326.1880080966264,1.0003810069935237,0.0003807802096344537
1326.1949524874585,1326.1949524874585,0.9999915107740511,0.00038065865214846373
1326.201896878314,1326.201896878314,0.9998009722731567,0.0003806599223110185
1326.2088412692394,1326.2088412692394,1.0000964484064572,0.00038069427999198576
1326.215785660223,1326.215785660223,1.0001080504377302,0.0003807483725042636
1326.2227300512182,1326.2227300512182,0.9996862061339012,0.00038061512286498213
1326.229674442283,1326.229674442283,1.0000308810321779,0.0003806794529822413
1326.236618833383,1326.236618833383,1.000516433935548,0.00038078028837449046
1326.2435632245408,1326.2435632245408,0.9996319558501998,0.0003805346190964063
1326.250507615746,1326.250507615746,0.9997212461287841,0.0003806299788040407
1326.2574520070089,1326.2574520070089,1.0001867783116392,0.0003806545567874419
1326.264396398295,1326.264396398295,1.0000316638334903,0.00038062672686666604
1326.2713407896165,1326.2713407896165,1.0005257608943148,0.00038071671258692
1326.2782851809955,1326.2782851809955,0.9994752247507168,0.0003805405163954301
1326.28522957241,1326.28522957241,0.9999287702753639,0.00038057675018755984
1326.2921739638823,1326.2921739638823,0.9999635799694762,0.0003805981232312998
1326.29911835539,1326.29911835539,1.0005220067699654,0.00038068812830632846
1326.3060627469436,1326.3060627469436,1.000120339680135,0.0003806387177927162
1326.3130071385212,1326.3130071385212,0.9998549711142519,0.00038065158948521924
1326.319951530168,1326.319951530168,0.9996941973730156,0.0003806718498907089
1326.3268959218383,1326.3268959218383,1.0000874928284456,0.0003807150147985699
1326.3338403135554,1326.3338403135554,1.000415782977147,0.00038082442384346357
1326.3407847053072,1326.3407847053072,0.9993763501935821,0.00038065496076411347
1326.3488401997815,1326.3488401997815,0.9997449311660944,0.0003806993431042502
1326.357451245663,1326.357451245663,1.00025787493783,0.0003808424023078672
1326.364395637555,1326.364395637555,1.0001519356139705,0.0003809258347684595
1326.3713400294812,1326.3713400294812,0.9999336530402415,0.00038083890239833985
1326.3782844214427,1326.3782844214427,1.000062465789552,0.00038098720953591
1326.385228813439,1326.385228813439,1.0002352466047488,0.0003809598037232241
1326.3921732054819,1326.3921732054819,0.9997832180631241,0.0003809302156837782
1326.3991175975484,1326.3991175975484,1.000578892136076,0.0003811458025081031
1326.4060619896723,1326.4060619896723,0.999354199711124,0.00038093056883857973
1326.4130063817972,1326.4130063817972,0.99972798855793,0.0003810414094542143
1326.419950773991,1326.419950773991,1.0000029955947622,0.0003811099141793483
1326.4268951661975,1326.4268951661975,1.0006070930024706,0.00038126876236656965
1326.4338395584496,1326.4338395584496,0.9993882284366474,0.0003810759956424441
1326.4407839507137,1326.4407839507137,1.0001486099006456,0.000381246694649107
1326.4477283430363,1326.4477283430363,1.000254591710537,0.0003812367967850727
1326.4546727353932,1326.4546727353932,1.0000131156669587,0.00038126393870201457
1326.461617127774,1326.461617127774,0.9996894623744608,0.0003812328510591876
1326.4685615201893,1326.4685615201893,1.0003496359126032,0.0003812991945109281
1326.4755059126162,1326.4755059126162,0.9999545430749404,0.0003813351025718704
1326.4824503051136,1326.4824503051136,0.9999874379047501,0.00038135514408859267
1326.4893946976217,1326.4893946976217,1.0005367795908424,0.00038143222507644627
1326.4963390901653,1326.4963390901653,0.9999654696093454,0.0003813955812477999
1326.5032834827437,1326.5032834827437,0.9994648188783717,0.0003813827964436732
1326.510227875334,1326.510227875334,0.9999385984455037,0.00038147331190095505
1326.5171722679704,1326.5171722679704,0.9994171642560964,0.0003813711226729787
1326.5241166606304,1326.5241166606304,0.9997922461068873,0.00038147261525624346
1326.5310610533138,1326.5310610533138,1.0006292745263603,0.00038171168230641863
1326.538005446055,1326.538005446055,1.0004692856047785,0.00038169952786674727
1326.5449498387968,1326.5449498387968,0.9998383030303476,0.00038163692515749096
1326.5518942315728,1326.5518942315728,0.9998621695433721,0.00038173796308618767
1326.5588386243726,1326.5588386243726,1.0001534401858703,0.00038182995733497457
1326.5657830172186,1326.5657830172186,0.9998941512369456,0.0003817161066920626
1326.5727274100648,1326.5727274100648,1.0000703590861029,0.00038175087714566067
1326.5796718029576,1326.5796718029576,1.000059034481428,0.00038183839321509076
1326.5866161958852,1326.5866161958852,0.9999999165211303,0.00038188938322379395
1326.5935605888249,1326.5935605888249,0.9997696259216781,0.0003818631964143188
1326.6005049817873,1326.6005049817873,1.0001398159832866,0.0003819539844018992
1326.6074493747847,1326.6074493747847,0.9999910370166066,0.0003819600694340595
1326.6143937677825,1326.6143937677825,1.0000351726151095,0.00038200591027975184
1326.6213381608493,1326.6213381608493,0.9996484630558264,0.0003819693548484245
1326.6282825539172,1326.6282825539172,1.0001502050331816,0.00038201293205970973
1326.6352269470194,1326.6352269470194,1.0001871116618524,0.00038207502106497475
1326.6421713401335,1326.6421713401335,1.000065179094306,0.00038199721934717906
1326.649115733282,1326.649115733282,0.9996825714272646,0.00038199268209627155
1326.6560601264541,1326.6560601264541,1.0002734047087176,0.0003820036240148855
1326.6630045196384,1326.6630045196384,0.9997260767178636,0.00038186680541283074
1326.6699489128566,1326.6699489128566,0.999883258062319,0.00038187684878126214
1326.676893306099,1326.676893306099,0.9999652098552829,0.0003818493256063483
1326.6838376993524,1326.6838376993524,0.9999253379761104,0.00038173078555428605
1326.6921709713174,1326.6921709713174,1.0003734224809921,0.0003818351393035657
1326.6991153645827,1326.6991153645827,0.9997937667787153,0.0003816711305770443
1326.706059757964,1326.706059757964,1.0005082975589374,0.00038174674535628583
1326.7138374784984,1326.7138374784984,0.9995767608229473,0.00038155819353244343
1326.7213374233577,1326.7213374233577,1.0008245848961692,0.0003817196906626543
1326.728281816751,1326.728281816751,0.9992764946123653,0.0003814832254101073
1326.735226210179,1326.735226210179,1.0000064460563562,0.0003815327040567908
1326.7421706036075,1326.7421706036075,1.0003478076339194,0.0003814654466713418
1326.7491149970822,1326.7491149970822,0.9998582689260292,0.00038144067302831156
1326.7560593905687,1326.7560593905687,0.9998911979515294,0.00038146129925810976
1326.7630037840668,1326.7630037840668,0.9997537168531135,0.00038141482998484756
1326.7699481775996,1326.7699481775996,0.9997922886700383,0.0003814546681697458
1326.7768925711327,1326.7768925711327,1.000539138376247,0.000381428651504843
1326.7838369647009,1326.7838369647009,0.9995826898229812,0.0003813075923019578
1326.7907813582692,1326.7907813582692,0.9999654385731584,0.00038142560582701146
1326.7977257518717,1326.7977257518717,1.0000658600995744,0.00038137951403387373
1326.8046701454866,1326.8046701454866,0.9998104854403653,0.0003814475351234021
1326.8116145391355,1326.8116145391355,0.9996076388631459,0.00038136149111676654
1326.818558932785,1326.818558932785,1.0008936499044874,0.00038157124491195507
1326.825503326458,1326.825503326458,1.0002689641475566,0.0003814744939018556
1326.8324477201425,1326.8324477201425,1.0006477900178452,0.0003814413368901592
1326.83939211385,1326.83939211385,0.9996498984932598,0.0003814017890090695
1326.8463365075809,1326.8463365075809,0.999370784770664,0.00038135536437438244
1326.8532809013236,1326.8532809013236,0.9999179266553204,0.0003814543090571071
1326.8602252950893,1326.8602252950893,1.0000034106726878,0.0003813794883337191
1326.8671696888555,1326.8671696888555,0.9992700056458587,0.0003813035034583612
1326.8741140826446,1326.8741140826446,1.0001758566823993,0.0003813589504640904
1326.8810584764453,1326.8810584764453,1.000885039951393,0.00038136439931981965
1326.888002870281,1326.888002870281,0.9993993967916304,0.0003810175790279281
1326.8949472641164,1326.8949472641164,0.9999957594219664,0.0003810452174591834
1326.9018916579641,1326.9018916579641,1.0002008444127037,0.0003809250999267745
1326.9088360518463,1326.9088360518463,0.9998555658425156,0.00038084685792169815
1326.9157804457052,1326.9157804457052,1.0001472750752034,0.0003807923588332662
1326.922724839611,1326.922724839611,0.9998527709857742,0.000380588386982991
1326.9296692335165,1326.9296692335165,1.00010762993696,0.00038057250180596356
1326.9366136274687,1326.9366136274687,1.0003976475639034,0.0003804673301447229
1326.9435580213972,1326.9435580213972,1.000183931118956,0.00038040853689587503
1326.9505024153614,1326.9505024153614,0.9998587862507696,0.0003801919361475908
1326.9574468093365,1326.9574468093365,0.9995091792833793,0.0003801215136750353
1326.9643912033123,1326.9643912033123,0.9997500450392053,0.0003800159576725984
1326.9713355973224,1326.9713355973224,1.000167742247387,0.0003800878918926022
1326.978279991321,1326.978279991321,1.0001605418597368,0.00037996267443604593
1326.985224385355,1326.985224385355,1.0005125681201301,0.00038002404650570827
1326.992168779377,1326.992168779377,1.0003214235500226,0.00037994377372418183
1326.9991131734337,1326.9991131734337,0.9994418166544532,0.00037968170901742386
1327.0060575675022,1327.0060575675022,0.9999018687912647,0.0003797966320805641
1327.0130019615708,1327.0130019615708,0.9995379009375313,0.0003797629487568972
1327.0199463556626,1327.0199463556626,0.999932192979134,0.00037975776200706226
1327.0268907497662,1327.0268907497662,0.9999886315318651,0.000379788058062718
1327.0338351438697,1327.0338351438697,1.000327448393063,0.0003798349148909398
1327.0407795379963,1327.0407795379963,1.000024861580529,0.0003797752534500556
1327.047723932123,1327.047723932123,1.000209854429074,0.00037971231757830115
1327.0546683262733,1327.0546683262733,1.000228474480248,0.0003797797013040946
1327.0627238234833,1327.0627238234833,1.0001609909516354,0.00037981352425441994
