time,time,flux,flux_err
1517.3664585380095,1517.3664585380095,1.0115318695825266,0.007197817950324844
1517.3750698055078,1517.3750698055078,1.0140583362546676,0.006684499975681588
1517.382292159461,1517.382292159461,1.01501503641959,0.006428974144004193
1517.3892367308172,1517.3892367308172,1.010162808086134,0.006217648206910917
1517.3961813027322,1517.3961813027322,1.0078535135637827,0.006025217880454788
1517.4045147890301,1517.4045147890301,1.0070172529745183,0.0058277821107422445
1517.4114593615038,1517.4114593615038,1.0017863083542937,0.005662007308891976
1517.4184039342574,1517.4184039342574,1.0015706157499367,0.005506376744682281
1517.4253485072893,1517.4253485072893,1.000768422418159,0.005363198019198182
1517.4322930806945,1517.4322930806945,1.0013402212676006,0.005228555815050557
1517.439237654379,1517.439237654379,1.0013086487143321,0.005108293532483557
1517.446182228436,1517.446182228436,1.0039946811203808,0.005000283771618727
1517.4531268026792,1517.4531268026792,0.993125010613787,0.004898305286344009
1517.4600713770155,1517.4600713770155,1.0000765596741723,0.004810131765933675
1517.4670159518178,1517.4670159518178,0.9899761249480825,0.00472481983367524
1517.473960526806,1517.473960526806,1.0031616623130746,0.0046514104028135645
1517.4809051020738,1517.4809051020738,1.008401151030164,0.0045816033304193395
1517.4878496775277,1517.4878496775277,0.993437492502931,0.004508724087681443
1517.4947942532613,1517.4947942532613,0.9937149161755059,0.004440468759478714
1517.5017388291806,1517.5017388291806,1.0034896004979266,0.004375572336100934
1517.5086834054732,1517.5086834054732,1.0014858297368485,0.004309893795699632
1517.5156279817652,1517.5156279817652,0.9974700546380936,0.004251085530424644
1517.5225725585228,1517.5225725585228,0.996730673911957,0.004193673913155846
1517.5295171351877,1517.5295171351877,0.9949369066083309,0.004137074741399724
1517.5364617123178,1517.5364617123178,1.0014658870241226,0.004085903713360746
1517.543406289448,1517.543406289448,1.0005283927782005,0.00403368445804726
1517.5503508668578,1517.5503508668578,0.9947998876107056,0.003983116348714918
1517.557295444361,1517.557295444361,1.002604351668864,0.003938914718690643
1517.5642400221434,1517.5642400221434,0.9978965134297738,0.003888442682487771
1517.5711846001118,1517.5711846001118,1.0068583239474564,0.0038441043479673204
1517.5781291781732,1517.5781291781732,0.9937337772613757,0.00379827231887485
1517.5850737564217,1517.5850737564217,0.9982890272531992,0.0037554749579204404
1517.5920183347625,1517.5920183347625,1.0005917472330281,0.0037156787241611395
1517.598962913476,1517.598962913476,1.0029263118300153,0.003679911776830786
1517.6059074919108,1517.6059074919108,1.002363191257868,0.003642636049801623
1517.6128520708098,1517.6128520708098,1.001814042281457,0.0036094211735160807
1517.6197966497102,1517.6197966497102,1.0022117966366026,0.003578264211933178
1517.6267412290758,1517.6267412290758,0.9989613480894383,0.0035509414976618936
1517.6336858081618,1517.6336858081618,0.998214592073775,0.0035195321119747547
1517.6406303875272,1517.6406303875272,1.0040900136782576,0.003494808782614254
1517.6475749669858,1517.6475749669858,0.9949991911046047,0.0034676878493571928
1517.654519546724,1517.654519546724,0.9945676916121851,0.0034390340568354687
1517.661464126369,1517.661464126369,1.0006269974894846,0.0034176344594658583
1517.6684087062,1517.6684087062,1.001476326908481,0.0033921425984157526
1517.6753532861244,1517.6753532861244,1.0002214409989763,0.003364015976549498
1517.682297866235,1517.682297866235,0.9953303776807567,0.0033369819936945244
1517.6892424462524,1517.6892424462524,0.999226020520785,0.003315526667802139
1517.6961870264563,1517.6961870264563,1.0039544721429936,0.0032887241339548284
1517.7031316067528,1517.7031316067528,0.9988782687399027,0.0032627509446662246
1517.7100761870497,1517.7100761870497,1.0019109362175045,0.003238307057532678
1517.7170207676259,1517.7170207676259,0.9949841365462675,0.0032100203311902103
1517.7239653482022,1517.7239653482022,1.003567825988135,0.0031868011240198573
1517.7309099287786,1517.7309099287786,1.0003160272252836,0.003162032687218887
1517.737854509448,1517.737854509448,1.002167800785268,0.003139329720186728
1517.7447990902103,1517.7447990902103,0.9939500753384328,0.0031133810378416856
1517.7517436711591,1517.7517436711591,0.997738147910253,0.003089365552337609
1517.7586882519217,1517.7586882519217,1.0021095162918001,0.0030672016488562394
1517.7656328329635,1517.7656328329635,1.001309388290752,0.003046815752871869
1517.7725774139126,1517.7725774139126,0.9981237948827054,0.0030219286362778964
1517.7795219951406,1517.7795219951406,1.0011455880363702,0.0030009807934240755
1517.7864665763689,1517.7864665763689,0.9996268533309053,0.0029779783811676587
1517.7934111574107,1517.7934111574107,0.9973848585903683,0.0029543553177641298
1517.800355738732,1517.800355738732,0.997266259851439,0.0029321036622126703
1517.807300320053,1517.807300320053,1.0018945725577952,0.002912716795775341
1517.8142449012817,1517.8142449012817,1.0020016041873494,0.0028929326171886044
1517.8211894825097,1517.8211894825097,0.998015150745496,0.002874273657440529
1517.8281340639242,1517.8281340639242,0.997786804690626,0.00285934457232505
1517.8350786454316,1517.8350786454316,1.0010351314485113,0.002839546597862698
1517.842023226846,1517.842023226846,0.9966451823446771,0.0028222801543388563
1517.8489678083536,1517.8489678083536,0.997355416407671,0.002809438153098815
1517.8559123899543,1517.8559123899543,1.0043056203950438,0.002795654701423494
1517.8628569713687,1517.8628569713687,0.9977027707928695,0.002776629721385708
1517.8698015529694,1517.8698015529694,1.0000959788934929,0.0027635914082142516
1517.8767461346636,1517.8767461346636,0.9999541458805419,0.0027520370850420734
1517.8836907162636,1517.8836907162636,0.9949238905754235,0.0027389101030937295
1517.8906352978643,1517.8906352978643,1.0032056054797933,0.00272975389177989
1517.8975798795586,1517.8975798795586,1.0020489143608238,0.0027200853515942968
1517.9045244612523,1517.9045244612523,1.0011569938474314,0.0027135824782744257
1517.9114690429462,1517.9114690429462,0.9982678580636017,0.0027014087956724743
1517.91841362464,1517.91841362464,0.9951216799411033,0.0026911565357946414
1517.9253582063338,1517.9253582063338,1.004810125650368,0.0026868351012083297
1517.9323027880273,1517.9323027880273,0.9982629799845087,0.002675694274619478
1517.9392473697214,1517.9392473697214,1.0004463900689173,0.00267418491630017
1517.9473030845047,1517.9473030845047,0.9989852132766945,0.002660518796409889
1517.954525449541,1517.954525449541,0.9982015743088383,0.0026551443078691975
1517.961470031328,1517.961470031328,1.0036223334197958,0.002651186191399313
1517.9684146130217,1517.9684146130217,1.0001740900080114,0.00264380264351087
1517.9753591947156,1517.9753591947156,1.001186589758308,0.0026382411525009567
1517.9823037765025,1517.9823037765025,0.9976400373241013,0.0026252229159110666
1517.9892483581964,1517.9892483581964,0.9991841359032387,0.0026231706153607573
1517.9961929398905,1517.9961929398905,0.9996590442548767,0.0026153459977481383
1518.0031375215838,1518.0031375215838,1.0015129992867524,0.002609276590776975
1518.010082103278,1518.010082103278,0.9964060745419256,0.002602827143376364
1518.0170266849716,1518.0170266849716,1.0026132531851926,0.0025964181334545504
1518.023971266572,1518.023971266572,1.0014589813427777,0.0025933352686407477
1518.0309158482664,1518.0309158482664,1.002286857718699,0.002585480186287803
1518.037860429867,1518.037860429867,1.0000481131802907,0.002581336283218365
1518.0448050115606,1518.0448050115606,0.9962088413934074,0.0025718009500577876
1518.0517495931613,1518.0517495931613,0.997604171287033,0.002565761269076371
1518.0586941747624,1518.0586941747624,1.002037028271012,0.0025646590712466786
1518.0656387562694,1518.0656387562694,1.0009740495314252,0.002558278335269564
1518.0725833378706,1518.0725833378706,1.0015458299638524,0.0025529513864399047
1518.0795279193778,1518.0795279193778,0.9998140312824498,0.002547984341608971
1518.0864725007923,1518.0864725007923,1.002229625999967,0.002545194341099228
1518.093417082393,1518.093417082393,0.9967281777534647,0.002533612239896868
1518.1003616637142,1518.1003616637142,0.9986362411048532,0.0025288562448656095
1518.107306245222,1518.107306245222,0.9979115571125075,0.0025235280057465176
1518.1142508266362,1518.1142508266362,0.9951258463847157,0.0025164617888401635
1518.1211954078644,1518.1211954078644,0.9985720071093402,0.0025141260623938256
1518.1281399890927,1518.1281399890927,1.000608933537815,0.0025109553456848462
1518.1350845706934,1518.1350845706934,1.0057160844862694,0.0025051272109182674
1518.1420291520146,1518.1420291520146,1.0039724257531148,0.0024990331940519432
1518.1489737332427,1518.1489737332427,0.9977987430515839,0.0024939284913902144
1518.155918314471,1518.155918314471,0.9972662974118183,0.0024850225888292804
1518.1628628953263,1518.1628628953263,0.9970663250126842,0.0024807147009102536
1518.1698074764615,1518.1698074764615,0.9990305468964144,0.002475444108946947
1518.17675205769,1518.17675205769,0.9992818992385745,0.002468747389959972
1518.1836966387316,1518.1836966387316,0.9986578397013586,0.002465732781747156
1518.1906412196804,1518.1906412196804,1.0008823686325914,0.0024639993779476807
1518.1975858007224,1518.1975858007224,1.0060495765545336,0.002461415090396429
1518.2045303816708,1518.2045303816708,1.0003960611574105,0.0024546647450053565
1518.2114749625266,1518.2114749625266,0.9984214544905436,0.002450929997910191
1518.2184195433824,1518.2184195433824,1.0000030976401244,0.0024503345092618083
1518.225364124238,1518.225364124238,1.0006838105022617,0.0024458353566494625
1518.2323087050006,1518.2323087050006,0.9997298509255907,0.0024456065310999304
1518.2392532856697,1518.2392532856697,1.0011469299175215,0.0024433933197224654
1518.2461978664323,1518.2461978664323,0.9974835483332585,0.0024404090657401995
1518.2531424470085,1518.2531424470085,0.9969374184075634,0.0024386609283944525
1518.260087027585,1518.260087027585,1.001572773061334,0.0024392692208768376
1518.2673093913168,1518.2673093913168,0.9994498237612988,0.002436639678091099
1518.2753651047967,1518.2753651047967,0.9998650535694107,0.0024320818225607083
1518.2823096851866,1518.2823096851866,1.000619997586531,0.0024291275395399454
1518.2892542654834,1518.2892542654834,0.9999277601899117,0.002427273966461872
1518.2961988458733,1518.2961988458733,1.000471983221146,0.0024240352246343664
1518.3031434261702,1518.3031434261702,1.0002965638987087,0.002421633270094335
1518.3100880064671,1518.3100880064671,0.9998476450264923,0.0024166597690932446
1518.318421502544,1518.318421502544,1.0010371262243207,0.0024185369284242223
1518.3253660828407,1518.3253660828407,0.9990100517834808,0.002410494228471128
1518.3323106628584,1518.3323106628584,0.9995212300992747,0.0024089644675871847
1518.3392552426892,1518.3392552426892,0.9979920106833969,0.0024042012194982034
1518.3461998228,1518.3461998228,1.0008359877450304,0.0024022286898121607
1518.3531444026312,1518.3531444026312,0.9988233740336272,0.0023984676516562676
1518.3600889824622,1518.3600889824622,0.9949717454781659,0.002396426898280899
1518.3670335622003,1518.3670335622003,1.0007951539242157,0.0023968504347637288
1518.3739781420313,1518.3739781420313,1.0025060794516807,0.0023918703812310332
1518.3809227217691,1518.3809227217691,1.0025832252405737,0.0023922382359338567
1518.3878673012282,1518.3878673012282,0.9996472661551673,0.0023907959982458465
1518.394811880873,1518.394811880873,0.9991408583983464,0.0023880673092536333
1518.4017564603316,1518.4017564603316,0.9997614313776774,0.002383897642515814
1518.4087010397902,1518.4087010397902,0.9985025317186004,0.002379941840151745
1518.4164789686238,1518.4164789686238,0.9984535168796764,0.002378281037427125
1518.4239791143943,1518.4239791143943,0.9999333827395892,0.0023788544256308467
1518.430923693574,1518.430923693574,0.9982095218940774,0.002374818401762451
1518.437868272753,1518.437868272753,1.0005599573589112,0.0023746069120366264
1518.4448128518388,1518.4448128518388,1.0024516847178824,0.0023768789453167496
1518.4517574310182,1518.4517574310182,1.0015770799737305,0.0023729476037269437
1518.4587020099184,1518.4587020099184,0.9990342958053324,0.0023681706724090696
1518.4670355045982,1518.4670355045982,0.9982838567522357,0.0023690018286878973
1518.4739800834977,1518.4739800834977,1.0016056504171924,0.002370141723714363
1518.480924662398,1518.480924662398,0.9968026017043705,0.002371182952128563
1518.4878692409252,1518.4878692409252,1.0002207894293473,0.0023698649791835612
1518.494813819732,1518.494813819732,0.9996902354456578,0.0023669002595382476
1518.501758398259,1518.501758398259,0.9993750904474699,0.0023642482547689483
1518.5087029767863,1518.5087029767863,1.0002121097660825,0.002363890993800493
1518.5156475553135,1518.5156475553135,0.9980864226926893,0.0023624028523595102
1518.5225921336546,1518.5225921336546,1.0016522435904398,0.0023610374206997865
1518.5295367119957,1518.5295367119957,1.0022891836804917,0.0023619288650670017
1518.5364812902435,1518.5364812902435,0.9991434148482158,0.002359015914403645
1518.5434258684913,1518.5434258684913,1.0006489299077024,0.0023590418941701755
1518.5503704465532,1518.5503704465532,0.9966828341189344,0.002359763405661952
1518.557315024615,1518.557315024615,1.0017590045582287,0.002360503336498949
1518.564259602584,1518.564259602584,1.002169307934816,0.0023604344749247755
1518.571204180552,1518.571204180552,0.9981210098075619,0.0023553585302374634
1518.5781487584275,1518.5781487584275,1.0013052154254107,0.002359658169946574
1518.5850933362096,1518.5850933362096,0.9979227942919284,0.0023565819695648615
1518.5920379139923,1518.5920379139923,1.0041455790096652,0.002359570400532505
1518.5989824914946,1518.5989824914946,0.9996214808195558,0.0023586695803567833
1518.6059270690907,1518.6059270690907,0.9983152946629383,0.002357143141355982
1518.6128716465937,1518.6128716465937,1.0022086850177128,0.0023610265103945127
1518.619816224003,1518.619816224003,1.0009457905034953,0.0023580414734073454
1518.6267608013197,1518.6267608013197,0.999586191645542,0.0023592548379045035
1518.6337053786367,1518.6337053786367,0.9987921232151183,0.0023589876722721233
1518.6406499558602,1518.6406499558602,0.9998443011347042,0.0023603477979775656
1518.6475945329905,1518.6475945329905,1.0002331904410782,0.0023568802720273676
1518.6545391100276,1518.6545391100276,0.9986167770602291,0.0023593164238199927
1518.6614836870647,1518.6614836870647,0.9979025354376253,0.0023560200450610893
1518.6684282639158,1518.6684282639158,0.9993033532950595,0.002358462060564378
1518.6753728408598,1518.6753728408598,1.0018244790429178,0.002358610747436823
1518.682317417431,1518.682317417431,1.005249863631636,0.0023606265181489268
1518.689261994375,1518.689261994375,0.9979264795868538,0.0023581128455050842
1518.69620657104,1518.69620657104,1.0015422103475022,0.0023582681903429204
1518.7031511476118,1518.7031511476118,0.997457257661942,0.0023590931528350437
1518.7100957237171,1518.7100957237171,1.0011304609135456,0.002359243205797723
1518.7170403002888,1518.7170403002888,1.0018849535129073,0.0023594323170030257
1518.723984876581,1518.723984876581,0.998313607268029,0.002357831617009067
1518.7309294528732,1518.7309294528732,0.992682449085818,0.0023596300194793827
1518.7378740289791,1518.7378740289791,0.9988085851435015,0.002358682400312214
1518.744818605085,1518.744818605085,0.999888487922614,0.002360501236151277
1518.7517631810977,1518.7517631810977,0.9991323561171626,0.0023619911654889705
1518.7587077571104,1518.7587077571104,1.0042360664750736,0.0023640765247711954
1518.7656523328442,1518.7656523328442,1.003531875046909,0.0023639021474215235
1518.77259690867,1518.77259690867,0.9973936261981141,0.0023589000307008374
1518.779541484404,1518.779541484404,1.0019167568826863,0.0023606703024085154
1518.786486060044,1518.786486060044,0.9998185764948444,0.002357760871174073
1518.7934306354975,1518.7934306354975,0.9974614176726513,0.002359782321281175
1518.8003752110449,1518.8003752110449,0.9998142973735817,0.002356418522715226
1518.8073197863125,1518.8073197863125,0.99984374616133,0.0023597965006340585
1518.8142643616732,1518.8142643616732,1.0011636464346363,0.0023584777736154637
1518.821208936941,1518.821208936941,1.0014694635025216,0.002361179089602331
1518.8281535121157,1518.8281535121157,1.000531062838996,0.002359533627869591
1518.8350980871037,1518.8350980871037,0.9951602233894155,0.0023569217810978657
1518.8420426620926,1518.8420426620926,1.0034403395164322,0.0023566229689378155
1518.8489872370806,1518.8489872370806,1.0014449077936978,0.0023601092942198434
1518.8559318118828,1518.8559318118828,0.9969526123616171,0.0023558912697908257
1518.8628763866848,1518.8628763866848,0.9998994523922409,0.0023602275639917404
1518.8698209613,1518.8698209613,1.0002021967389105,0.0023604971925048667
1518.876765535823,1518.876765535823,1.000253814794882,0.0023614310596090115
1518.8837101105319,1518.8837101105319,1.0013799428321382,0.0023579855791245365
1518.890654684775,1518.890654684775,1.0004775476421073,0.002357930741138877
1518.897599259018,1518.897599259018,0.9986312307743821,0.0023569944255689536
1518.9045438332614,1518.9045438332614,1.0011095300052666,0.0023582111316402376
1518.9114884075043,1518.9114884075043,0.9996285620320118,0.002359501965246394
1518.9184329817476,1518.9184329817476,0.9984421504151063,0.0023571464806453344
1518.925377555805,1518.925377555805,0.9994985126133308,0.00235792017589397
1518.9323221297686,1518.9323221297686,1.001261502087754,0.0023603679026209584
1518.939266703546,1518.939266703546,1.000554835551403,0.0023620906982695297
1518.946211277417,1518.946211277417,1.0000225306895139,0.002361791626945778
1518.9531558510082,1518.9531558510082,1.0029311663319258,0.002362178739133739
1518.960100424693,1518.960100424693,0.9980265354817774,0.002360943255959476
1518.9670449981909,1518.9670449981909,1.000391977690471,0.0023618618885383603
1518.9739895716891,1518.9739895716891,0.9988771858205381,0.0023626152046801593
1518.9809341450011,1518.9809341450011,0.9990788608898326,0.0023612217474416448
1518.98787871822,1518.98787871822,0.998517917980758,0.0023613552892065366
1518.9948232915312,1518.9948232915312,0.9977612787133545,0.0023629890724451968
1519.0017678646575,1519.0017678646575,1.0020473890863504,0.002360449139338544
1519.00871243769,1519.00871243769,1.000553958924399,0.0023610590197027242
1519.015657010536,1519.015657010536,1.001873713435462,0.0023621691630190097
1519.0226015834753,1519.0226015834753,1.0023551763499277,0.0023645420012466884
1519.0295461562284,1519.0295461562284,0.9958922717749766,0.0023571002012869584
1519.0364907289818,1519.0364907289818,1.003181665160506,0.002358487430643007
1519.0434353015485,1519.0434353015485,0.9999568749107688,0.0023648973442946925
1519.0503798740222,1519.0503798740222,0.9987863554079762,0.00236089629590301
1519.057324446496,1519.057324446496,1.0007408580432784,0.0023588900787093097
1519.0642690188765,1519.0642690188765,0.9983016829408257,0.002358786334480855
1519.0712135911638,1519.0712135911638,0.9982705676486686,0.002358979114194322
1519.078158163265,1519.078158163265,1.0014329964570143,0.0023599553507944802
1519.085102735459,1519.085102735459,1.001981104462229,0.0023603236933667183
1519.0920473075603,1519.0920473075603,0.9989782285261054,0.002357716287524735
1519.0989918794753,1519.0989918794753,0.996934953808547,0.0023621768707195795
1519.1059364513903,1519.1059364513903,1.0017944930149039,0.0023594396650490207
1519.1128810228392,1519.1128810228392,1.0020936260001108,0.0023611802635872597
1519.1198255947547,1519.1198255947547,1.0022784952545356,0.0023599302079869108
1519.1267701662034,1519.1267701662034,0.9977197727586719,0.00235945758944804
1519.133714737746,1519.133714737746,1.0000824489446298,0.002359686134239635
1519.140659309195,1519.140659309195,0.9984447710000289,0.0023545850598610937
1519.1476038804585,1519.1476038804585,0.9995391466532346,0.0023617408866412276
