time,time,flux,flux_err
1517.365826512472,1517.365826512472,1.0020441773503697,0.008361664248315007
1517.374437744953,1517.374437744953,1.0098414490585927,0.007774900142579593
1517.3816600692896,1517.3816600692896,0.991695225306457,0.007479377588378008
1517.388604612427,1517.388604612427,0.9889291543293905,0.007238287510864595
1517.3955491558434,1517.3955491558434,0.9945947881657631,0.0070181902768854275
1517.4038826085207,1517.4038826085207,1.000243676242986,0.0067868837778848334
1517.410827152496,1517.410827152496,0.9950519865803755,0.00659521676015262
1517.4177716970298,1517.4177716970298,0.9930333889479568,0.0064170143419862505
1517.424716241657,1517.424716241657,0.9961379484451987,0.00624520879910489
1517.4316607866567,1517.4316607866567,1.0001342749153752,0.006090516344001337
1517.438605332029,1517.438605332029,0.98874387336286,0.005938083999944448
1517.4455498776808,1517.4455498776808,0.9939824014364854,0.0058012754909953
1517.4524944235188,1517.4524944235188,1.0046506701041318,0.005679400752791741
1517.4594389696358,1517.4594389696358,1.0079094342235129,0.005567433763890459
1517.4663835160327,1517.4663835160327,0.9992887912364458,0.005462462903940268
1517.473328062802,1517.473328062802,0.9992626034559977,0.0053622500433241965
1517.4802726096646,1517.4802726096646,1.0036446674554473,0.005271491720166522
1517.4872171568993,1517.4872171568993,1.0038707858530416,0.005185491819414736
1517.4941617043205,1517.4941617043205,1.003146073794098,0.005103067777620852
1517.5011062518345,1517.5011062518345,0.9965532618092181,0.005026068167863783
1517.5080507997218,1517.5080507997218,0.9983437997707135,0.004950669502272935
1517.5149953477946,1517.5149953477946,1.0043297927209576,0.0048870956302353805
1517.5219398961472,1517.5219398961472,1.0016600649048524,0.004820240631413996
1517.5288844444065,1517.5288844444065,0.9894074560016479,0.004755027993120399
1517.5358289932246,1517.5358289932246,0.9995773302473744,0.004697872718575002
1517.5427735420426,1517.5427735420426,0.9973279395997425,0.004639523920426681
1517.5497180911402,1517.5497180911402,1.0034197709049186,0.004591993574033932
1517.5566626404243,1517.5566626404243,1.0035932260395388,0.004541131137772139
1517.5636071898011,1517.5636071898011,0.9917954617141194,0.004486977929922502
1517.5705517393642,1517.5705517393642,1.0020084852463895,0.004445043671510509
1517.5774962890205,1517.5774962890205,0.9977994719325037,0.004401367485018387
1517.5844408390499,1517.5844408390499,1.0042629180420892,0.0043616994117865685
1517.5913853891714,1517.5913853891714,1.0004171372123365,0.004322093919204373
1517.5983299392933,1517.5983299392933,1.0030979830508362,0.004281637681208044
1517.6052744896951,1517.6052744896951,1.0038822654646247,0.004249616543492834
1517.6122190401893,1517.6122190401893,0.997640533032134,0.004213988710151898
1517.6191635909636,1517.6191635909636,1.0018802697622036,0.004185879751475928
1517.6261081414577,1517.6261081414577,0.9974645383846775,0.00414768322949092
1517.633052692418,1517.633052692418,0.9955908673945014,0.00411659107475043
1517.6399972435643,1517.6399972435643,0.9986436066402034,0.004087140107373099
1517.6469417948042,1517.6469417948042,1.001252575887008,0.0040618585104295595
1517.6538863460437,1517.6538863460437,1.0029635337964182,0.004034148053648065
1517.6608308974696,1517.6608308974696,1.0009606556150188,0.004006644176275973
1517.667775448895,1517.667775448895,0.9990952817291012,0.003982077699716904
1517.6747200006007,1517.6747200006007,1.0021589161926434,0.003955100249194944
1517.6816645522129,1517.6816645522129,0.9999670500385875,0.00393579845426761
1517.688609104104,1517.688609104104,1.0048960126576005,0.003911624985139098
1517.695553656089,1517.695553656089,0.9979696314659618,0.0038884599130056528
1517.7024982079804,1517.7024982079804,1.0030968035605878,0.003871436953149008
1517.7094427600582,1517.7094427600582,0.9996365756268573,0.0038468057976076874
1517.7163873123222,1517.7163873123222,0.9995464028129646,0.0038299952530794525
1517.7233318645863,1517.7233318645863,1.0011111697979835,0.00381464564858085
1517.7302764169435,1517.7302764169435,0.9975672253234997,0.003787786010067815
1517.7372209693938,1517.7372209693938,0.9999963209870538,0.0037681814796650696
1517.7441655219372,1517.7441655219372,0.9943758660119448,0.003746634776522913
1517.7511100743875,1517.7511100743875,0.9997757396928643,0.003731438758399614
1517.7580546271172,1517.7580546271172,0.9992922525159461,0.0037066273287499154
1517.7649991798469,1517.7649991798469,1.0008543680444215,0.0036849592758195896
1517.7719437325768,1517.7719437325768,1.0007430473411494,0.0036624930385530177
1517.7788882853995,1517.7788882853995,0.9976220130015401,0.0036408959275587836
1517.7858328383154,1517.7858328383154,0.9983182775369347,0.00361985432791844
1517.7927773912313,1517.7927773912313,1.0056739391666139,0.003599433745644388
1517.7997219443337,1517.7997219443337,0.9939481191187785,0.0035740091003324767
1517.8066664972494,1517.8066664972494,0.9998556175488066,0.0035643197378507087
1517.8136110504452,1517.8136110504452,1.0067610273660954,0.003546611426706029
1517.8205556036403,1517.8205556036403,1.0071062720704582,0.00353098741834302
1517.8275001565562,1517.8275001565562,0.9986167062841986,0.003508401358682734
1517.8344447098448,1517.8344447098448,0.9996299078891033,0.003499438138873312
1517.8413892631331,1517.8413892631331,0.9958109918603556,0.0034805347498223192
1517.8483338164217,1517.8483338164217,0.9988690747197004,0.0034695280439451096
1517.85527836971,1517.85527836971,0.9980176528245022,0.00345564187344289
1517.8622229230918,1517.8622229230918,0.9994526324629147,0.0034482332697585195
1517.8691674767529,1517.8691674767529,0.9963107648181069,0.0034351172092905043
1517.8761120300414,1517.8761120300414,1.0082735499582678,0.003430623287095939
1517.8830565833298,1517.8830565833298,1.004619538263234,0.0034198089551827843
1517.8900011370838,1517.8900011370838,0.9966286301572838,0.0034059529749255004
1517.8969456903728,1517.8969456903728,0.9986166477431759,0.0034005629088880622
1517.9038902440336,1517.9038902440336,1.0009723903880015,0.0033908107553003906
1517.9108347974152,1517.9108347974152,0.9982604929310138,0.003382817582272125
1517.9177793510764,1517.9177793510764,0.9981845181403479,0.003374007230874091
1517.9247239045508,1517.9247239045508,0.9971171639533992,0.003365592619537724
1517.9316684582118,1517.9316684582118,1.0004808372317853,0.0033641434409121844
1517.9386130117796,1517.9386130117796,1.005075159879349,0.0033598775061913755
1517.9466686939668,1517.9466686939668,0.9974235809216966,0.003351951420732332
1517.9538910296665,1517.9538910296665,1.0007429990944854,0.003344579801540539
1517.9608355833273,1517.9608355833273,0.9998293771737092,0.0033369395758092216
1517.9677801368953,1517.9677801368953,1.0023185268925308,0.0033343003636397105
1517.9747246905565,1517.9747246905565,0.9996268068733638,0.003324999426036946
1517.9816692442175,1517.9816692442175,1.0005243790274698,0.0033207310022496904
1517.9886137978783,1517.9886137978783,0.9980628443334532,0.003314334780895204
1517.9955583514463,1517.9955583514463,1.0020449500366686,0.0033124698065142475
1518.002502905014,1518.002502905014,0.9973761861716351,0.0033106585769801843
1518.0094474587681,1518.0094474587681,1.000660841171721,0.0033100657117962904
1518.0163920123364,1518.0163920123364,0.9988175209956033,0.003295519059672685
1518.0233365658107,1518.0233365658107,1.0019658959061206,0.0032955857390556615
1518.0302811195652,1518.0302811195652,1.003218810050401,0.003295332818096746
1518.037225673133,1518.037225673133,0.9964875444449499,0.003284569062458073
1518.0441702266075,1518.0441702266075,0.998689126099403,0.0032785293297129077
1518.051114780362,1518.051114780362,1.0013206916602926,0.0032763004981425452
1518.0580593337436,1518.0580593337436,0.9995556500577913,0.0032709481437939265
1518.0650038874041,1518.0650038874041,1.001622531536892,0.0032642928484480685
1518.071948440879,1518.071948440879,0.9965125805368238,0.0032556303256468322
1518.078892994447,1518.078892994447,1.0026619557547667,0.0032584956799624936
1518.0858375478288,1518.0858375478288,0.9990319596784459,0.00324952666525074
1518.0927821014898,1518.0927821014898,0.9972161917155953,0.0032431029423039006
1518.0997266547784,1518.0997266547784,1.0025948428449598,0.0032414960972696133
1518.1066712082527,1518.1066712082527,1.000570955874134,0.003234101094519074
1518.1136157618207,1518.1136157618207,1.0000495190475374,0.003230557802062383
1518.1205603151093,1518.1205603151093,1.0030434735683573,0.003225610397815873
1518.1275048683976,1518.1275048683976,1.001296975517946,0.003222145782366153
1518.1344494216864,1518.1344494216864,0.9980598867521924,0.0032172236861396685
1518.1413939749746,1518.1413939749746,0.9970720004242724,0.0032110692740085637
1518.1483385282631,1518.1483385282631,0.9986145659629123,0.0032079460645753435
1518.155283081552,1518.155283081552,0.9993754259699934,0.0032035791137440027
1518.16222763484,1518.16222763484,0.995910940830416,0.0031990190689083035
1518.1691721881284,1518.1691721881284,1.0017352743485477,0.0031948891044610433
1518.1761167414172,1518.1761167414172,1.0038414775803386,0.0031960110075834715
1518.1830612945193,1518.1830612945193,1.0014463861509755,0.0031887470024608523
1518.1900058475285,1518.1900058475285,1.0015939732046955,0.0031840543553018795
1518.196950400817,1518.196950400817,1.000998676779082,0.0031781065954967257
1518.2038949536395,1518.2038949536395,0.9984399847145651,0.0031745556657234975
1518.2108395068349,1518.2108395068349,0.9986860211130789,0.0031800012378081074
1518.217784059751,1518.217784059751,1.0011685257937475,0.0031703474266780176
1518.224728612667,1518.224728612667,0.9990551467622619,0.003165703440733621
1518.2316731655833,1518.2316731655833,0.9984150125773625,0.0031653246060768143
1518.238617718499,1518.238617718499,1.0014122488824726,0.0031665639588551986
1518.2455622713217,1518.2455622713217,0.9993387763322185,0.003165849454654789
1518.2525068241448,1518.2525068241448,0.9973797552785568,0.0031636463893726582
1518.2594513768743,1518.2594513768743,1.0017009260035636,0.003161928509067276
1518.2666737116422,1518.2666737116422,0.9988311925525754,0.0031593241838075424
1518.2747293928053,1518.2747293928053,1.0038234256056366,0.0031604754421100736
1518.2816739455345,1518.2816739455345,1.00087547372287,0.0031594645897016606
1518.2886184979848,1518.2886184979848,1.001759574820521,0.003157273944191668
1518.2955630506217,1518.2955630506217,0.9966304618506454,0.003153489546006298
1518.3025076030722,1518.3025076030722,1.0011637879252775,0.003159131209124267
1518.3094521555222,1518.3094521555222,0.9985663303781053,0.0031545262917251947
1518.3177856184438,1518.3177856184438,1.00032663309165,0.003152595386480541
1518.3247301708009,1518.3247301708009,0.9996184465184637,0.00315423161746513
1518.3316747231586,1518.3316747231586,0.9958596908275839,0.0031509196806052166
1518.338619275422,1518.338619275422,1.0042126040899386,0.0031544762241465006
1518.345563827593,1518.345563827593,0.999366792703551,0.0031509062499213243
1518.3525083798572,1518.3525083798572,1.001507290824217,0.00315227268565128
1518.3594529320278,1518.3594529320278,1.0013035213838626,0.0031498209167695247
1518.3663974839196,1518.3663974839196,1.001434588575227,0.003148784278103129
1518.3733420360907,1518.3733420360907,0.9965689032554874,0.003145537360924989
1518.380286587982,1518.380286587982,0.9976431857168186,0.0031442038451425535
1518.3872311399664,1518.3872311399664,1.0025950558181154,0.003145228993643752
1518.394175691858,1518.394175691858,0.998969350046286,0.003139553412092406
1518.4011202436561,1518.4011202436561,0.9976334788692901,0.003136319486654645
1518.4080647954547,1518.4080647954547,0.9948688367885328,0.0031326803849894545
1518.4158426934616,1518.4158426934616,1.0023196839693937,0.003138332652092892
1518.4233428091504,1518.4233428091504,1.0018739780348151,0.003133264863735449
1518.4302873607626,1518.4302873607626,1.0002892145536646,0.003126076379714031
1518.437231912282,1518.437231912282,1.003148707014189,0.003125982676900431
1518.4441764638004,1518.4441764638004,1.0036625631017666,0.0031242301975994437
1518.4511210153196,1518.4511210153196,0.9935300048127687,0.0031174206679449637
1518.4580655667455,1518.4580655667455,0.999800064697955,0.003126905484785269
1518.4663990283634,1518.4663990283634,0.998143469513072,0.0031128748164376977
1518.4733435795097,1518.4733435795097,1.001527128787305,0.0031226984078066553
1518.4802881307492,1518.4802881307492,1.0032283953121799,0.003115653780917977
1518.4872326818956,1518.4872326818956,0.9945186381504161,0.0031123031157305582
1518.494177233135,1518.494177233135,1.0002212912826334,0.0031150098176643336
1518.5011217840952,1518.5011217840952,1.001750140611748,0.0031114359566610673
1518.5080663350554,1518.5080663350554,1.0019664675759556,0.0031125224099588806
1518.5150108860157,1518.5150108860157,1.0001555159784048,0.00310543838217187
1518.5219554369758,1518.5219554369758,1.000622356981587,0.0031046424851886257
1518.5288999875636,1518.5288999875636,0.9985809152577965,0.0031030109051169326
1518.5358445384304,1518.5358445384304,1.0022322186909705,0.003103932892635245
1518.542789089018,1518.542789089018,0.9953041246340202,0.0031009496688980563
1518.549733639699,1518.549733639699,1.0030017882899742,0.003106221607571762
1518.5566781902867,1518.5566781902867,0.9983967235245854,0.0031022200878303174
1518.5636227407813,1518.5636227407813,1.0030569122806345,0.0031060958807430485
1518.570567291276,1518.570567291276,0.9976050960579907,0.0031050967427511964
1518.5775118416768,1518.5775118416768,0.999250157914169,0.00310131032694725
1518.5844563919854,1518.5844563919854,0.9983717112002995,0.003098792613286768
1518.5914009422002,1518.5914009422002,1.0006712167767469,0.0031006103445333053
1518.5983454924153,1518.5983454924153,1.0024682037056518,0.003111157637900468
1518.6052900426305,1518.6052900426305,0.9989379501724338,0.0031034772483497204
1518.6122345926594,1518.6122345926594,0.9992827116209997,0.0031033827141791403
1518.619179142595,1518.619179142595,1.0016173835861448,0.003104592710514318
1518.6261236926243,1518.6261236926243,1.0005349224034943,0.003103076392717203
1518.6330682424664,1518.6330682424664,0.9995499430737823,0.0031060953166567352
1518.640012792216,1518.640012792216,0.9990704881853173,0.003111801820093792
1518.6469573420586,1518.6469573420586,1.0003885671462909,0.0031053828190378565
1518.6539018918081,1518.6539018918081,0.9954257970815175,0.003101845688032055
1518.6608464413712,1518.6608464413712,0.9994919371550551,0.0031038548351173933
1518.6677909909345,1518.6677909909345,1.0008820676391246,0.0031039311005214313
1518.6747355404045,1518.6747355404045,0.9954471496240046,0.0030992001846197404
1518.6816800897811,1518.6816800897811,1.0001019450339121,0.0030995621069182583
1518.6886246392514,1518.6886246392514,1.0003156574772318,0.003103673317120133
1518.6955691884418,1518.6955691884418,0.9964862337257973,0.003100929679291815
1518.7025137378191,1518.7025137378191,1.001237822822652,0.0031017402975208157
1518.7094582869163,1518.7094582869163,1.0058347659629032,0.0031039370569759792
1518.7164028360137,1518.7164028360137,0.9995403999484231,0.0031001967667265763
1518.7233473850188,1518.7233473850188,0.9998954003173592,0.00310180572195618
1518.730291934116,1518.730291934116,0.9985866665180234,0.0030993043218895764
1518.7372364828411,1518.7372364828411,1.002696731339089,0.0031040845891528784
1518.7441810318455,1518.7441810318455,0.9967075073698035,0.0031046494324173343
1518.751125580477,1518.751125580477,0.9977021993452432,0.003101581764783821
1518.7580701291092,1518.7580701291092,1.0003207894707127,0.003102954960611267
1518.765014677741,1518.765014677741,1.0040438057545853,0.0031105039505374766
1518.7719592263725,1518.7719592263725,1.0017204864241813,0.003106200072714408
1518.7789037749112,1518.7789037749112,1.000453965067876,0.0031058253119950452
1518.7858483231707,1518.7858483231707,0.9988750153396653,0.003104017103991697
1518.792792871616,1518.792792871616,0.9969591349018095,0.0031036487265012516
1518.799737419876,1518.799737419876,1.0052153964870167,0.003108776774716269
1518.806681968042,1518.806681968042,0.9998763357194015,0.0031084259079703865
1518.813626516208,1518.813626516208,0.9967237525243388,0.0030988722530139357
1518.820571064281,1518.820571064281,0.9976231723441273,0.003106269456716591
1518.8275156123543,1518.8275156123543,1.0015705681213878,0.003101378553060508
1518.834460160148,1518.834460160148,1.0027703534124845,0.00310360388206529
1518.8414047080348,1518.8414047080348,1.0028090783506873,0.003102312498212973
1518.8483492558285,1518.8483492558285,0.9974429300096318,0.0030993364125629255
1518.855293803529,1518.855293803529,0.9982473160332314,0.00310739933357802
1518.8622383512295,1518.8622383512295,1.0037223944576705,0.0031080833731391582
1518.8691828987435,1518.8691828987435,0.9994937508720666,0.003101474005723572
1518.876127446165,1518.876127446165,0.9976171390703087,0.0030987324418540628
1518.8830719936789,1518.8830719936789,0.9955743713118306,0.0030994710740604647
1518.8900165410068,1518.8900165410068,1.0033293572781672,0.0031082450786496804
1518.896961088335,1518.896961088335,1.0001504421957552,0.003101385194040321
1518.9039056354768,1518.9039056354768,1.001797498244387,0.00310298558281495
1518.9108501826188,1518.9108501826188,0.9976588445692249,0.0030992936615164574
1518.917794729667,1518.917794729667,1.0014918655690985,0.003099975050806873
1518.9247392766226,1518.9247392766226,1.0044207409799444,0.0031071883902768728
1518.931683823578,1518.931683823578,1.0009601134435855,0.0031019106350443464
1518.9386283704403,1518.9386283704403,0.9946149716834853,0.0030987953930942677
1518.9455729172096,1518.9455729172096,0.998001652577695,0.0031015262106529754
1518.9525174638854,1518.9525174638854,0.9992052913018192,0.0031030683466923585
1518.9594620105622,1518.9594620105622,1.0044320562673816,0.003108257974399895
1518.9664065570514,1518.9664065570514,1.0011786666048408,0.003103815299857041
1518.9733511036345,1518.9733511036345,0.9976991782500907,0.0031042361718945986
1518.9802956499384,1518.9802956499384,0.9984029169822127,0.0031078689417249126
1518.9872401962416,1518.9872401962416,0.9985146385156399,0.0031065871926326378
1518.9941847425448,1518.9941847425448,1.0034558402861227,0.0031074918305382423
1519.001129288849,1519.001129288849,0.9999620516663278,0.003102404571017202
1519.0080738346867,1519.0080738346867,1.0001211831822423,0.0031034925403145156
1519.015018380897,1519.015018380897,0.9994090710193705,0.0031039975380138854
1519.021962926828,1519.021962926828,1.0003426853518893,0.003105292513023278
1519.0289074726659,1519.0289074726659,0.9968848459409159,0.003099921381192948
1519.0358520184107,1519.0358520184107,0.9995091652736011,0.003101600620266709
1519.0427965641552,1519.0427965641552,1.0019678884801813,0.003103985498970626
1519.0497411099002,1519.0497411099002,1.002567822200873,0.0031034276569678583
1519.0566856553658,1519.0566856553658,0.9985569768983437,0.0030999583089947064
1519.0636302009239,1519.0636302009239,0.999097325679065,0.0031104000362082674
1519.0705747463894,1519.0705747463894,1.0057251644324634,0.003109913574983465
1519.0775192916685,1519.0775192916685,1.0025706798314447,0.0031041266498319006
1519.0844638369479,1519.0844638369479,0.9988017950546644,0.0031030238578889664
1519.0914083820403,1519.0914083820403,0.9998368135656956,0.0031030039413474067
1519.0983529272264,1519.0983529272264,1.0021945488269624,0.003104800031030694
1519.1052974723193,1519.1052974723193,0.9989906040676843,0.0031048734433102585
1519.1122420173185,1519.1122420173185,1.0002301834495573,0.0031029547888974805
1519.1191865622252,1519.1191865622252,0.9984612380550398,0.003102191447532811
1519.1261311069456,1519.1261311069456,0.9999470501716328,0.003101522247531339
1519.1330756516659,1519.1330756516659,0.9972341600213677,0.003100579291265306
1519.1400201964793,1519.1400201964793,0.9994010527447574,0.0031028920792004725
1519.1469647410136,1519.1469647410136,0.9997549285405926,0.0031011747826527945
