time,time,flux,flux_err
1491.640048341156,1491.640048341156,0.9994793222833902,0.0005934971161003319
1491.6483819845623,1491.6483819845623,1.0002439441643811,0.0005924687211681315
1491.6560211576893,1491.6560211576893,1.0009825493153253,0.0005404671576155994
1491.6629658604766,1491.6629658604766,0.9994680501304053,0.0005394803998001576
1491.6699105633568,1491.6699105633568,1.0006225349775442,0.0005391676845266783
1491.6768552661435,1491.6768552661435,0.999569558738802,0.0005385128997390289
1491.6837999689305,1491.6837999689305,0.9999099817164918,0.0005377941284739931
1491.6907446718105,1491.6907446718105,0.9995541213775321,0.0005373008643797159
1491.6976893745975,1491.6976893745975,0.999706644165137,0.0005368148365678508
1491.7046340773843,1491.7046340773843,1.0005323639093153,0.000536310659637421
1491.7115787801715,1491.7115787801715,0.999642619690311,0.0005358211852086924
1491.7185234829587,1491.7185234829587,1.000214684647873,0.0005351971223838366
1491.725468185652,1491.725468185652,1.0005342987734505,0.0005344992883597546
1491.7324128884393,1491.7324128884393,0.9999575129898002,0.0005338312693427608
1491.739357591133,1491.739357591133,0.9989991948410972,0.0005333446260910929
1491.7463022937336,1491.7463022937336,1.0004628834028169,0.0005326335320755902
1491.7532469965204,1491.7532469965204,1.000073047604305,0.000532097929335427
1491.7601916991212,1491.7601916991212,1.0006112734735828,0.0005318518212021748
1491.7671364016285,1491.7671364016285,0.9998039385966647,0.0005312270174713787
1491.7740811043227,1491.7740811043227,1.0003881121451956,0.0005306910579350533
1491.7810258067368,1491.7810258067368,0.9993971733181729,0.0005300036159911792
1491.7879705094304,1491.7879705094304,0.9992449145585642,0.0005296666385999303
1491.794915211845,1491.794915211845,1.0010331724073143,0.0005291518496073919
1491.8018599141665,1491.8018599141665,0.9995222311771943,0.0005285633628340108
1491.8088046164874,1491.8088046164874,1.000048437086822,0.0005279483546397102
1491.8157493188085,1491.8157493188085,1.0002895340924236,0.0005272925446519971
1491.8226940211298,1491.8226940211298,1.0001029228129137,0.0005266876156041571
1491.829638723451,1491.829638723451,0.9998173185957387,0.0005258877093536455
1491.8365834257725,1491.8365834257725,1.0001150279558015,0.0005254677109832
1491.8435281280936,1491.8435281280936,0.9998254288227868,0.0005246287430267642
1491.8504728300418,1491.8504728300418,1.0000905193032301,0.000524157045136189
1491.8574175322706,1491.8574175322706,0.999769095104363,0.0005235317172687119
1491.8643622342195,1491.8643622342195,1.0011542203928367,0.0005228851614838155
1491.8713069362614,1491.8713069362614,0.9996246940911739,0.00052239680139246
1491.87825163821,1491.87825163821,0.9995551301021933,0.000521507899185862
1491.8851963400655,1491.8851963400655,1.0006357100778642,0.0005216258535264189
1491.892141041828,1491.892141041828,1.0003675534417018,0.0005209224827752172
1491.8990857436834,1491.8990857436834,0.9999739855260792,0.0005207355758650699
1491.9060304453528,1491.9060304453528,0.9994850924394898,0.0005201264391907553
1491.9129751469293,1491.9129751469293,0.9991956635504573,0.0005194880224979844
1491.9199198486915,1491.9199198486915,1.0008512579709927,0.0005195652962784738
1491.9268645501743,1491.9268645501743,0.9999418481307382,0.0005191833708196117
1491.9338092515645,1491.9338092515645,1.000164887722574,0.0005188149082090311
1491.940753953047,1491.940753953047,0.999917130248463,0.0005186274053779083
1491.9476986544373,1491.9476986544373,1.0004135181504024,0.0005184629454402593
1491.9546433556413,1491.9546433556413,1.000040428196859,0.0005184427058407729
1491.9615880569377,1491.9615880569377,1.000096877296762,0.0005181668411887648
1491.9685327581415,1491.9685327581415,0.9994926283040975,0.0005176148760920061
1491.975477459066,1491.975477459066,0.9999357534148551,0.0005179427034367932
1491.9824221601762,1491.9824221601762,1.0004831856235423,0.0005177106693179637
1491.9893668611005,1491.9893668611005,0.9999115816625028,0.0005179464987034979
1491.996311561932,1491.996311561932,0.9999812086678477,0.000517817015817024
1492.0032562628562,1492.0032562628562,0.9993413355093228,0.0005178237566364075
1492.0102009635011,1492.0102009635011,1.0001311087862454,0.000517627066939105
1492.017145664146,1492.017145664146,1.0006610500533426,0.0005179364747648182
1492.0240903647907,1492.0240903647907,1.0003066149612072,0.0005177938542537127
1492.0310350653424,1492.0310350653424,1.0002540420210493,0.000517853091291673
1492.0379797658013,1492.0379797658013,0.9995037151005924,0.0005178707579801496
1492.0449244660736,1492.0449244660736,1.0001221303485839,0.0005179209982097774
1492.0518691665318,1492.0518691665318,0.9997978064249782,0.0005176418969813527
1492.058813866525,1492.058813866525,1.0002551525525367,0.0005176250432058336
1492.0657585669837,1492.0657585669837,1.0001338231963133,0.0005177668048086352
1492.0727032669765,1492.0727032669765,0.9990063312120189,0.000517790515616405
1492.0796479669693,1492.0796479669693,1.0007047884609162,0.0005179116385196417
1492.0865926668694,1492.0865926668694,1.000642266012558,0.0005180515138543088
1492.0935373664895,1492.0935373664895,0.9994071321365411,0.0005178719354748712
1492.1004820663898,1492.1004820663898,1.0002016591134042,0.0005177985552875662
1492.1074267660101,1492.1074267660101,0.9997037630444995,0.0005179263807222171
1492.1143714656303,1492.1143714656303,1.0005859465513842,0.0005180935618427921
1492.1213161651574,1492.1213161651574,1.0000777487159058,0.000518110835628876
1492.1282608644985,1492.1282608644985,0.9991430474047658,0.0005173500831591232
1492.1352055638392,1492.1352055638392,1.0000899774519667,0.0005180166713103742
1492.1421502631806,1492.1421502631806,1.0003574125218198,0.0005179575624607916
1492.1490949622425,1492.1490949622425,1.0001645494346039,0.0005176459822309423
1492.1560396613972,1492.1560396613972,0.9995374639533582,0.0005176246270904119
1492.1629843603655,1492.1629843603655,1.000048031424177,0.0005176735895570199
1492.1699290593344,1492.1699290593344,1.0003639966912306,0.0005178714444921522
1492.1768737581165,1492.1768737581165,1.0000220361404273,0.0005178067482427795
1492.1838184568985,1492.1838184568985,0.9995409771997854,0.0005175707314113564
1492.1907631554946,1492.1907631554946,0.9996678194473383,0.000517949719278394
1492.1977078540906,1492.1977078540906,1.0005734056634545,0.0005177027060305577
1492.2046525525934,1492.2046525525934,1.000770873013767,0.0005176762353147873
1492.211597251003,1492.211597251003,0.9997247870073794,0.0005176409510008433
1492.2185419493194,1492.2185419493194,1.0003679486962276,0.0005178489448762528
1492.2254866475428,1492.2254866475428,0.9999760932814133,0.0005177261597550951
1492.23243134558,1492.23243134558,0.9994198069027765,0.0005175717431965168
1492.2393760436175,1492.2393760436175,1.0001009170784478,0.0005179304390381085
1492.2463207416545,1492.2463207416545,0.9993818621366994,0.0005178334713604224
1492.2532654393187,1492.2532654393187,0.999579919217922,0.0005176133756407202
1492.2602101372631,1492.2602101372631,1.000349862768452,0.0005176239673450443
1492.2671548350204,1492.2671548350204,0.9994747705117317,0.000517370081825479
1492.2740995323127,1492.2740995323127,1.0007225905174022,0.0005179517140889753
1492.2810442299774,1492.2810442299774,1.0006145509801443,0.0005178772859695863
1492.287988927363,1492.287988927363,0.9998961555153099,0.0005176114740718434
1492.2949336246552,1492.2949336246552,1.0001999031753883,0.0005178200964491882
1492.3018783218542,1492.3018783218542,1.000165167477095,0.0005176248471671834
1492.30882301896,1492.30882301896,1.000604219366571,0.0005176482958476589
1492.315767715973,1492.315767715973,0.9990230793358685,0.0005175002490339124
1492.3227124128923,1492.3227124128923,0.9999288675816953,0.0005175432281590755
1492.3296571097187,1492.3296571097187,1.000679257470245,0.0005176823423142411
1492.336601806545,1492.336601806545,1.0001786474953742,0.0005176501307348569
1492.3435465031853,1492.3435465031853,1.0004685519671652,0.0005175422801284856
1492.3504911997322,1492.3504911997322,1.0005021570589347,0.000517568791732706
1492.3574358961862,1492.3574358961862,0.9997362118979037,0.000517737103601832
1492.3643805925471,1492.3643805925471,0.999585946200928,0.000517427157305888
1492.3713252887214,1492.3713252887214,1.0001491448515059,0.0005180433550617575
1492.3782699848957,1492.3782699848957,1.00008882738972,0.0005175300703983846
1492.3852146809775,1492.3852146809775,0.9994187467293753,0.0005175255082943294
1492.3921593769658,1492.3921593769658,1.0001823420430924,0.0005178436025491868
1492.3991040728606,1492.3991040728606,1.0002202990903695,0.0005177256872687267
1492.4060487686625,1492.4060487686625,0.9998444290379389,0.0005176675529435627
1492.4129934641855,1492.4129934641855,1.0009749261903973,0.0005179679947414467
1492.4199381599872,1492.4199381599872,0.9993079850861065,0.0005175568775156446
1492.4268828553238,1492.4268828553238,0.9993943624993736,0.0005175554275218577
1492.4338275506602,1492.4338275506602,0.9997412988128621,0.0005176224860532674
1492.4407722459964,1492.4407722459964,0.9999658557918455,0.0005176510324366054
1492.447716941333,1492.447716941333,1.0003139851068734,0.0005178470580863676
1492.4546616362036,1492.4546616362036,1.0003871392930022,0.0005174223318626583
1492.4616063312603,1492.4616063312603,0.9998682828284124,0.0005175771804471787
1492.468551026224,1492.468551026224,1.0007952004609226,0.0005178902479016209
1492.475495721002,1492.475495721002,0.999842758930888,0.0005176400260155028
1492.4824404156861,1492.4824404156861,1.0001183298046876,0.0005177972387395747
1492.4893851102775,1492.4893851102775,0.9996391331178931,0.0005177089028394726
1492.4963298047758,1492.4963298047758,0.9991918501033631,0.0005174036585231882
1492.5032744991809,1492.5032744991809,1.000148342935739,0.0005177937769224376
1492.510219193399,1492.510219193399,1.0002502089096978,0.0005176676831840505
1492.5171638876182,1492.5171638876182,0.9999399943736753,0.0005175883428098816
1492.5241085817438,1492.5241085817438,1.0004760976847629,0.0005178320977419251
1492.5310532756828,1492.5310532756828,1.0004512091963829,0.0005177072249571674
1492.5379979695292,1492.5379979695292,0.9992591797483297,0.0005175470043778345
1492.5449426632822,1492.5449426632822,0.9996760429831631,0.0005173928378503063
1492.551887357035,1492.551887357035,0.9998395054133182,0.0005175152956093469
1492.558832050602,1492.558832050602,0.9997818598153145,0.0005175763131575264
1492.565776744076,1492.565776744076,1.0002164506140516,0.0005175878031244342
1492.5727214374563,1492.5727214374563,1.0006523458661996,0.0005179433076714008
1492.5796661308366,1492.5796661308366,0.9999533580404918,0.0005175790568752276
1492.586610823845,1492.586610823845,1.0006744479488046,0.0005176935781726039
1492.5935555168523,1492.5935555168523,0.9998894347732648,0.0005173246146465405
1492.6005002098614,1492.6005002098614,0.9993139070773903,0.0005174690681771378
1492.6074449028695,1492.6074449028695,0.9995237325636781,0.000517600106133511
1492.614389595598,1492.614389595598,1.0004726450658654,0.0005176865862979035
1492.6213342883264,1492.6213342883264,1.0001975523033353,0.0005176902187648375
1492.6282789807758,1492.6282789807758,0.9999143644972636,0.0005176018574030042
1492.635223673318,1492.635223673318,0.9996596130832918,0.0005172240739647067
1492.6421683655808,1492.6421683655808,1.000235189067785,0.0005174939758456175
1492.649113057844,1492.649113057844,1.0001567546736307,0.0005179546592456628
1492.6560577500138,1492.6560577500138,1.0002393081645937,0.0005170570513510576
1492.6630024420901,1492.6630024420901,0.9993284839594484,0.0005175854716909039
1492.669947133981,1492.669947133981,0.9997162591456787,0.0005175497922787739
1492.6768918258713,1492.6768918258713,1.0003208907483,0.0005177602462011252
1492.6838365175754,1492.6838365175754,1.0001863779724545,0.000517555236208859
1492.6907812091868,1492.6907812091868,1.0005914061257015,0.0005175713241639178
1492.6977259006112,1492.6977259006112,0.9997892957252013,0.0005178519682634968
1492.7046705921289,1492.7046705921289,1.0003168966141562,0.0005179833550600212
1492.711615283461,1492.711615283461,0.9993282476024336,0.0005173965298557956
1492.7185599746063,1492.7185599746063,0.9999740470801779,0.0005176725887213667
1492.7255046657515,1492.7255046657515,1.000123005587128,0.0005179891824764061
1492.7324493568035,1492.7324493568035,0.9996071206920734,0.000517429292947265
1492.73939404767,1492.73939404767,0.9998523957004164,0.0005176409735203937
1492.7463387383493,1492.7463387383493,1.0005031477330761,0.0005175411822587693
1492.753283429029,1492.753283429029,0.9998879198152963,0.0005176650116725057
1492.7602281197092,1492.7602281197092,1.000694689445191,0.000517856103694307
1492.7671728102027,1492.7671728102027,0.9994080485858581,0.0005173577451366028
1492.7741175006026,1492.7741175006026,0.9996380024892707,0.0005174025519603654
1492.781062190817,1492.781062190817,1.0001083444743935,0.0005176277827243312
1492.7880068809377,1492.7880068809377,1.0005320554862542,0.0005178906802893922
1492.7949515710586,1492.7949515710586,1.0001944129232994,0.0005178013882185553
1492.8018962609935,1492.8018962609935,1.0001664415797804,0.0005173611021154524
1492.808840950835,1492.808840950835,0.9992688450489533,0.0005175041684774068
1492.8157856405833,1492.8157856405833,0.9998690220471657,0.0005177314571572603
1492.8227303301458,1492.8227303301458,0.9999892141706826,0.0005174696604146365
1492.8296750196146,1492.8296750196146,0.9994716849894137,0.0005177116338763295
1492.8366197091764,1492.8366197091764,1.0009591273949827,0.0005176956553583614
1492.8435643984594,1492.8435643984594,1.0004357715525596,0.0005177857298540121
1492.850509087649,1492.850509087649,0.9998202962484225,0.0005177675546069772
1492.8574537768384,1492.8574537768384,0.9995711852649627,0.0005178608788320129
1492.8643984657488,1492.8643984657488,1.0003913838794536,0.0005175362094097961
1492.871343154659,1492.871343154659,0.9999756775746469,0.0005176169920077888
1492.8782878434754,1492.8782878434754,0.9991301038749196,0.0005174227112933526
1492.8852325321063,1492.8852325321063,0.999922599661015,0.0005177493419129352
1492.8921772207377,1492.8921772207377,1.0002043707935466,0.0005176228618214955
1492.8991219090885,1492.8991219090885,1.000511218081367,0.0005176951443628329
1492.90606659744,1492.90606659744,0.9996652083479189,0.0005174165387468648
1492.9130112857918,1492.9130112857918,1.0001954596734186,0.0005176755985434997
1492.9199559739563,1492.9199559739563,1.0005429132774046,0.0005177123197708146
1492.9269006620293,1492.9269006620293,0.9999685310966434,0.0005177675894069815
1492.9338453499151,1492.9338453499151,0.9996371927851335,0.0005176319077915333
1492.9407900377075,1492.9407900377075,0.9999020150352855,0.0005175489884751606
1492.9477347255001,1492.9477347255001,0.9997875960656403,0.0005174532188202322
1492.9546794131065,1492.9546794131065,1.0000553342682366,0.0005175784062727933
1492.9616241006197,1492.9616241006197,1.0003512343997722,0.0005179260715290637
1492.9685687880396,1492.9685687880396,0.9997471566040271,0.0005176513571591157
1492.9755134752736,1492.9755134752736,0.999809945713561,0.0005176742933312784
1492.9824581624143,1492.9824581624143,0.9999915493082808,0.0005176945271966511
1492.9894028496478,1492.9894028496478,1.0000370218040076,0.0005176565374152918
1492.9963475365093,1492.9963475365093,1.0000648387165079,0.0005178992435371422
1493.0032922234636,1493.0032922234636,0.9998104971607953,0.000517634243309029
1493.0102369101387,1493.0102369101387,0.9999013639009897,0.0005179618257029246
1493.0171815968135,1493.0171815968135,1.0009862750269505,0.0005179061835852009
1493.0241262833956,1493.0241262833956,0.9992542318455655,0.0005175948711184828
1493.031070969791,1493.031070969791,0.9996965672935854,0.0005177247955686019
1493.0380156560939,1493.0380156560939,1.000093871497758,0.0005177519607988186
1493.0449603424895,1493.0449603424895,1.000271389419644,0.0005180618154481308
1493.0519050286055,1493.0519050286055,0.9992254929310744,0.0005177642548870622
1493.0588497146286,1493.0588497146286,1.0006595395825464,0.0005177138253842858
1493.0657944004656,1493.0657944004656,0.9994193135674173,0.0005173912776572554
1493.0727390862091,1493.0727390862091,1.0001162579608966,0.0005177067775304738
1493.0796837719527,1493.0796837719527,0.9991864386048691,0.000517505172978777
1493.0866284575102,1493.0866284575102,1.0002067979462264,0.0005175568641601721
1493.0935731429743,1493.0935731429743,1.0002097403954096,0.0005176037038977349
1493.100517828346,1493.100517828346,1.0004532264523989,0.000517586757569634
1493.1074625136243,1493.1074625136243,1.0008468151535348,0.0005177111299614072
1493.1144071988087,1493.1144071988087,1.0003498433784828,0.0005178452925382211
1493.1213518838076,1493.1213518838076,1.000657027453292,0.000517891267109861
1493.1282965687133,1493.1282965687133,0.9993269424639161,0.0005178444045071193
1493.1352412535257,1493.1352412535257,1.0001682056813608,0.0005174585051148305
1493.142185938338,1493.142185938338,0.9993201524264883,0.0005175253512902322
1493.149130622964,1493.149130622964,1.0001191561226923,0.0005179943814042671
1493.1560753074968,1493.1560753074968,1.000185435207562,0.0005177004331749749
1493.1630199918436,1493.1630199918436,0.9999420667624268,0.0005175285005249509
1493.1699646761906,1493.1699646761906,1.0003189695199226,0.0005179382934093471
1493.1769093603511,1493.1769093603511,1.0003720202184723,0.0005178055961202892
1493.1838540444182,1493.1838540444182,0.999822243960035,0.0005175186179980808
1493.1907987284856,1493.1907987284856,0.9998537618208749,0.0005174914901004437
1493.1977434122734,1493.1977434122734,0.9999456128817907,0.0005175414298126739
1493.2046880959679,1493.2046880959679,1.000401792556827,0.0005176214289117639
1493.2116327796628,1493.2116327796628,0.9999398096939878,0.0005174547730721816
1493.218577463358,1493.218577463358,0.9999934087201096,0.0005178720377221829
1493.2255221465866,1493.2255221465866,0.9997242759570634,0.0005175766068171556
1493.232466830002,1493.232466830002,0.9993333269662694,0.0005176463191262557
1493.2394115132315,1493.2394115132315,0.9995932669084372,0.0005174208428387734
1493.246356196367,1493.246356196367,1.0015112243784183,0.0005179538786024469
1493.253300879317,1493.253300879317,0.9993226144610391,0.0005177406146189446
1493.2602455622668,1493.2602455622668,1.0007037720635692,0.0005180242950188038
1493.2671902450302,1493.2671902450302,0.9998993167897385,0.0005177437971730172
1493.2741349277007,1493.2741349277007,1.0006758112803367,0.0005178799195239418
1493.281079610185,1493.281079610185,1.0003407460204516,0.0005180382378567901
1493.2880242927622,1493.2880242927622,0.9995439133653111,0.0005177299836558214
1493.2949689750599,1493.2949689750599,0.9996654992094058,0.0005178530297793172
1493.301913657265,1493.301913657265,1.0005177746250478,0.0005180226478744487
1493.3088583394697,1493.3088583394697,0.9989444626235683,0.000517639276216343
1493.3158030214877,1493.3158030214877,1.0002081226146526,0.0005181872404034748
1493.3227477035064,1493.3227477035064,1.0003361710705996,0.0005180563674769239
1493.3296923852454,1493.3296923852454,1.0000396057973957,0.0005180005161975405
1493.3366370670774,1493.3366370670774,1.000375200816395,0.0005181251398144284
1493.3435817484437,1493.3435817484437,0.999485969903559,0.0005177241924016193
1493.3505264302762,1493.3505264302762,1.0006309297023877,0.0005178366848503416
1493.3574711116423,1493.3574711116423,0.9998445048295928,0.0005177482697661225
1493.3644157927297,1493.3644157927297,0.9992193972547205,0.0005178430138550667
1493.3713604739098,1493.3713604739098,1.0000933883019671,0.0005177573423600589
1493.3783051549967,1493.3783051549967,0.9997643108913306,0.0005175875292229633
1493.3852498359906,1493.3852498359906,1.0013291506476114,0.0005180339334897503
1493.3921945167986,1493.3921945167986,0.9995476724953493,0.0005176786653873758
1493.3991391975128,1493.3991391975128,1.000503090448862,0.0005179522170165832
1493.4060838782273,1493.4060838782273,0.9994749372729729,0.0005179148649050354
