time,time,flux,flux_err
1570.684224759417,1570.684224759417,0.9999909559318395,0.0005057922876401117
1570.6925583713792,1570.6925583713792,1.000148359801584,0.0005047785803240334
1570.7008919833415,1570.7008919833415,0.9997810785340802,0.0005040032620538693
1570.708531127641,1570.708531127641,1.0007148516353979,0.00045929762981520536
1570.7154758042764,1570.7154758042764,0.9998439881441893,0.000458273471868989
1570.7224204810045,1570.7224204810045,0.9997146986577109,0.00045777692733699784
1570.7293651580121,1570.7293651580121,0.9997394455025489,0.000456909137600724
1570.7363098346475,1570.7363098346475,0.9996836670471285,0.00045597051003508853
1570.7432545117495,1570.7432545117495,0.9999255062004704,0.000455240600303051
1570.7501991885706,1570.7501991885706,0.9997680747278197,0.0004542283842072773
1570.7571438655789,1570.7571438655789,1.0002707923903649,0.00045338867308813426
1570.764088542586,1570.764088542586,1.0000903643518106,0.0004524762005669594
1570.771033219687,1570.771033219687,1.0009681480552048,0.000451877414220778
1570.7779778967893,1570.7779778967893,0.9998437737092646,0.00045101130465172845
1570.7849225739828,1570.7849225739828,0.9998592959104794,0.0004503116167491253
1570.7918672511769,1570.7918672511769,0.9992876095484657,0.00044959321568627426
1570.7988119283707,1570.7988119283707,1.0003221906480684,0.000449168988444678
1570.8057566056577,1570.8057566056577,0.9992981457535096,0.0004483709811882844
1570.8127012829464,1570.8127012829464,1.0001171896308523,0.00044802218313034456
1570.8196459603264,1570.8196459603264,1.000149360773493,0.00044728340309187675
1570.8265906377062,1570.8265906377062,0.9998965212475799,0.0004466326846433874
1570.8335353151797,1570.8335353151797,1.000652880478743,0.0004466005091561352
1570.84047999256,1570.84047999256,0.99944632328252,0.00044561470495208514
1570.8474246701276,1570.8474246701276,0.9996827560957362,0.00044497545770372726
1570.854369347601,1570.854369347601,0.9997787389664132,0.00044461588984706646
1570.8613140251673,1570.8613140251673,1.0005778146702444,0.0004446425991943524
1570.8682587027338,1570.8682587027338,0.9998344704009922,0.0004439845834627719
1570.8752033803003,1570.8752033803003,1.000471635719245,0.00044374717374741433
1570.8832592064089,1570.8832592064089,1.0001521090708363,0.00044335819792426094
1570.8904816712272,1570.8904816712272,0.9994767347518616,0.00044284934788546896
1570.8974263489797,1570.8974263489797,0.9997730798234074,0.00044259856551214394
1570.9043710267324,1570.9043710267324,1.0002244111381366,0.00044214703830170506
1570.9113157043923,1570.9113157043923,0.9997429974381136,0.0004417537925320669
1570.9182603821462,1570.9182603821462,0.9999411384828886,0.00044109211133987376
1570.9252050601783,1570.9252050601783,0.9999889242999526,0.0004410204481093581
1570.932149738024,1570.932149738024,1.0003785245761438,0.0004403271016709673
1570.9390944157767,1570.9390944157767,0.9998290916702188,0.00043981934119702206
1570.946039093809,1570.946039093809,1.0003479738377952,0.0004393614710834266
1570.952983771656,1570.952983771656,0.9999951585041883,0.0004388504277308213
1570.9599284496883,1570.9599284496883,0.9994548395232175,0.00043839493308558063
1570.966873127627,1570.966873127627,1.0004167552356777,0.00043798469478994746
1570.9738178056596,1570.9738178056596,1.0003374140885257,0.0004375987107204997
1570.9807624836917,1570.9807624836917,0.9998439157884178,0.00043723484797903714
1570.9877071617245,1570.9877071617245,1.0000848532643725,0.00043676067965409875
1570.9946518398501,1570.9946518398501,1.0000941512292847,0.0004364638574420292
1571.001596517975,1571.001596517975,0.9993602972984718,0.000435666776885052
1571.0085411960074,1571.0085411960074,0.9997940233291512,0.00043526543753539713
1571.0154858742258,1571.0154858742258,1.0002138767916624,0.00043464681417224315
1571.022430552352,1571.022430552352,0.9999016966662078,0.00043411245480964855
1571.0293752305708,1571.0293752305708,1.000398876752025,0.0004337916270377177
1571.0363199087892,1571.0363199087892,1.0001013328543111,0.0004331921992065794
1571.043264586914,1571.043264586914,1.0005256800293982,0.0004326777989999696
1571.0502092652255,1571.0502092652255,0.9999324456039572,0.0004326211229449173
1571.057153943445,1571.057153943445,0.9998674182893916,0.0004322227216231358
1571.0640986217568,1571.0640986217568,1.0000884669264556,0.00043178346529462773
1571.0710432999754,1571.0710432999754,1.0002991013809157,0.0004311617293766554
1571.07798797838,1571.07798797838,0.9998078133573474,0.0004303947822358081
1571.084932656598,1571.084932656598,0.9995213318114295,0.000429938207685889
1571.0918773350036,1571.0918773350036,1.0000429269038151,0.0004293836836391491
1571.0988220134088,1571.0988220134088,0.9999076115773262,0.00042916892201793613
1571.1057666916272,1571.1057666916272,0.9994404471777042,0.00042865549900833016
1571.112711370032,1571.112711370032,1.0002510698749838,0.0004281498207817952
1571.1196560485294,1571.1196560485294,1.0002153535769507,0.00042772522599353845
1571.1266007269344,1571.1266007269344,1.0009056166533006,0.0004276962381531275
1571.13354540534,1571.13354540534,0.9999684310658822,0.00042718041867636597
1571.1404900837447,1571.1404900837447,0.9998777833308387,0.0004267333514959938
1571.1474347621497,1571.1474347621497,0.9996780569172771,0.0004262564141751752
1571.1543794406473,1571.1543794406473,0.9999492232671514,0.00042624397572139884
1571.161324119052,1571.161324119052,0.9999507140212801,0.0004259465027176879
1571.1682687975506,1571.1682687975506,1.0008455942044474,0.00042554491495426603
1571.1752134760488,1571.1752134760488,0.9995962955566531,0.0004252447237930052
1571.1821581545466,1571.1821581545466,0.9998701329396671,0.0004249008474682519
1571.1891028330442,1571.1891028330442,0.9998036080075016,0.0004247107030860316
1571.196047511542,1571.196047511542,0.9992457455144024,0.0004245704644178762
1571.2029921900407,1571.2029921900407,1.0007639576490512,0.00042422339384187615
1571.209936868632,1571.209936868632,1.0003351112642875,0.00042415266657064657
1571.21688154713,1571.21688154713,1.0004184139446042,0.00042383007842126464
1571.2238262257206,1571.2238262257206,1.0000307904798391,0.0004234116705892039
1571.2307709042182,1571.2307709042182,0.9998585021841212,0.0004234637130145668
1571.2377155827166,1571.2377155827166,1.0000223266493302,0.00042306463793274587
1571.2446602613084,1571.2446602613084,0.9996247189656128,0.0004227794847599365
1571.2516049398992,1571.2516049398992,0.9997233347941095,0.00042246151575192685
1571.2585496184902,1571.2585496184902,0.9999279301095653,0.00042245904539972665
1571.2654942970807,1571.2654942970807,1.0001988706930753,0.00042210673319401126
1571.272438975672,1571.272438975672,1.0000722173518433,0.0004219102487080062
1571.279383654171,1571.279383654171,1.000740849864571,0.0004216306349319172
1571.2863283327617,1571.2863283327617,0.9998918586997917,0.00042152116886355173
1571.293273011353,1571.293273011353,0.9998897316655236,0.000421183512898937
1571.3002176899433,1571.3002176899433,0.9996753438807285,0.00042098903622141777
1571.3071623685346,1571.3071623685346,1.0002551309392351,0.00042070867820576943
1571.314107047126,1571.314107047126,0.9996780784057038,0.00042043990103256414
1571.3210517257176,1571.3210517257176,0.999765185799985,0.00042014937175126967
1571.3279964043088,1571.3279964043088,1.0002262916632572,0.000419895844424975
1571.3349410828996,1571.3349410828996,1.0001944547219517,0.0004196629766768069
1571.3418857615836,1571.3418857615836,1.0002508818052307,0.0004192677345916399
1571.3488304400814,1571.3488304400814,1.000006586678891,0.00041898935773117854
1571.3557751186734,1571.3557751186734,0.9993008885398262,0.00041857304270926065
1571.3627197972644,1571.3627197972644,0.9994214984584542,0.0004184955817350076
1571.3696644759486,1571.3696644759486,1.0000118388802315,0.0004181308371652828
1571.3766091545392,1571.3766091545392,1.0002867918485032,0.000417991408184934
1571.3835538330372,1571.3835538330372,1.0010236952989695,0.00041759934977894956
1571.3904985116287,1571.3904985116287,1.0002192102547682,0.00041735301277762946
1571.3974431902202,1571.3974431902202,0.9998600030356798,0.0004171919223824456
1571.4043878688112,1571.4043878688112,0.9996573897371517,0.00041676707513744777
1571.4113325474948,1571.4113325474948,1.0002630891735746,0.000416624227769874
1571.4182772259928,1571.4182772259928,0.9997991140577851,0.00041626106987002824
1571.4252219044906,1571.4252219044906,0.9993236106585061,0.0004160563878562977
1571.4321665830826,1571.4321665830826,1.0001448350976412,0.00041588752708504524
1571.4391112616738,1571.4391112616738,0.9998404520454439,0.0004158375394921335
1571.4460559402644,1571.4460559402644,1.000109906537586,0.0004156743664671885
1571.4530006188556,1571.4530006188556,1.0002853972166943,0.0004154596291761699
1571.4599452973534,1571.4599452973534,1.000376187245331,0.00041537578983042784
1571.4668899759447,1571.4668899759447,0.9998627975236746,0.0004154711826983375
1571.4738346544432,1571.4738346544432,1.0001362165113334,0.00041529338385218486
1571.480779332941,1571.480779332941,0.9997653145818178,0.00041527493514450055
1571.4877240115318,1571.4877240115318,0.999519621351433,0.0004153588457398231
1571.4946686900298,1571.4946686900298,0.999693754143965,0.00041512046802450093
1571.5016133685278,1571.5016133685278,0.99962471620212,0.0004149751628944183
1571.5085580470266,1571.5085580470266,1.000129922069847,0.00041500313264367485
1571.5155027255246,1571.5155027255246,0.9998569894577234,0.0004149536771856249
1571.522447404022,1571.522447404022,1.0000547187038482,0.0004148570498059984
1571.5293920825197,1571.5293920825197,1.0000789878384047,0.0004150622094779929
1571.5363367609245,1571.5363367609245,1.0001556421705948,0.000414916688027016
1571.543281439423,1571.543281439423,1.000006669709339,0.0004148410799304082
1571.5502261178283,1571.5502261178283,0.9996234663671675,0.0004148732833519778
1571.5571707963259,1571.5571707963259,0.9999696537511147,0.00041485407200517074
1571.5641154747304,1571.5641154747304,0.999955359609557,0.0004146575685288899
1571.571060153135,1571.571060153135,1.0000922979849682,0.0004145592557061895
1571.5780048315396,1571.5780048315396,0.9999633918525339,0.0004146161832188072
1571.5849495100388,1571.5849495100388,1.0002340921351451,0.00041454487453372965
1571.59189418835,1571.59189418835,0.9999209522174434,0.00041453722611238097
1571.598838866755,1571.598838866755,0.9998073766768483,0.00041431155095840417
1571.6057835451597,1571.6057835451597,1.0000173712995526,0.0004142057127647494
1571.6127282233779,1571.6127282233779,1.0003641565081787,0.00041432925445659816
1571.6196729017831,1571.6196729017831,0.9996930112799328,0.0004144645186496531
1571.6266175801886,1571.6266175801886,1.000322372236112,0.0004142082805036158
1571.633562258407,1571.633562258407,1.0003426298947278,0.00041427103817946747
1571.6405069367186,1571.6405069367186,0.9998754197542489,0.0004143544937184939
1571.6474516150297,1571.6474516150297,0.9997785851733159,0.0004140764569240958
1571.6543962933415,1571.6543962933415,0.999818137128455,0.000413956558911766
1571.6613409715605,1571.6613409715605,0.9996604836900749,0.00041396405156213565
1571.6682856497796,1571.6682856497796,1.000025958386897,0.00041401210894939574
1571.675230328091,1571.675230328091,1.000049077953642,0.00041394075884724726
1571.6821750063095,1571.6821750063095,0.9999766023995132,0.0004140004011552327
1571.6891196844342,1571.6891196844342,1.00043943353197,0.0004138899426301161
1571.6960643626528,1571.6960643626528,1.0006395667910863,0.0004143735367270529
1571.7030090408728,1571.7030090408728,0.9994326935176447,0.00041356045365038016
1571.7099537189977,1571.7099537189977,0.9993042337240798,0.00041363338924784885
1571.716898397123,1571.716898397123,0.9999735667706986,0.00041369091490847724
1571.7238430752482,1571.7238430752482,1.0002515849287639,0.0004135180365141625
1571.7307877533733,1571.7307877533733,0.9996400893320958,0.0004133046867616191
1571.7377324314991,1571.7377324314991,1.0007529544916516,0.00041348307328063696
1571.7446771095322,1571.7446771095322,1.0002166821009815,0.000413134531802652
1571.751621787564,1571.751621787564,0.9995429816467112,0.0004128047850851612
1571.7585664656895,1571.7585664656895,1.0003166132960202,0.0004130014882823028
1571.7655111436284,1571.7655111436284,0.9997832149321095,0.00041302914592033563
1571.7724558216607,1571.7724558216607,1.0001229455546627,0.00041248840541128096
1571.779400499693,1571.779400499693,0.9998924053737079,0.0004124097000574768
1571.786345177633,1571.786345177633,0.9999846750017902,0.00041215440365445293
1571.7932898555719,1571.7932898555719,0.9996248765086719,0.0004121769387860286
1571.800234533511,1571.800234533511,1.000464880192049,0.00041213709853508035
1571.8071792114501,1571.8071792114501,0.9998675917726662,0.0004119158752203438
1571.8141238892954,1571.8141238892954,0.9999024736108663,0.0004120456793853299
1571.8210685671422,1571.8210685671422,1.0001713117045499,0.00041174311604105465
1571.828013245175,1571.828013245175,0.9994720187194887,0.00041180133985472655
1571.8349579229275,1571.8349579229275,1.000374656981292,0.00041168490063777415
1571.8419026007737,1571.8419026007737,1.0003944173892365,0.0004117567340450708
1571.8488472785261,1571.8488472785261,0.9997617819266033,0.0004116332960609799
1571.8557919563718,1571.8557919563718,1.0003356140057744,0.00041151747923489723
1571.8627366341257,1571.8627366341257,1.0000116129919676,0.00041128292658384417
1571.8696813116924,1571.8696813116924,1.0002957779370019,0.0004111926006839472
1571.876625989538,1571.876625989538,0.9994204532628344,0.00041112562499193064
1571.883570667198,1571.883570667198,0.9991315348501317,0.0004111569452131125
1571.8905153448572,1571.8905153448572,1.000567544357135,0.0004112691405367943
1571.897460022517,1571.897460022517,0.9996412607481193,0.0004110014939194701
1571.9044047001776,1571.9044047001776,1.000863598368176,0.00041167363316488585
1571.911349377744,1571.911349377744,1.000239964763823,0.0004112035285532731
1571.918294055311,1571.918294055311,0.9995934789636577,0.00041089686112412904
1571.9252387328772,1571.9252387328772,0.999690339924704,0.0004110055366723414
1571.9321834104435,1571.9321834104435,1.000095234899024,0.00041098838888212744
1571.9391280880102,1571.9391280880102,0.999589621004158,0.0004112281179263224
1571.9460727654841,1571.9460727654841,0.9999822167980303,0.00041088505394970196
1571.953017442865,1571.953017442865,1.0006148309257052,0.00041113132927071173
1571.9599621204316,1571.9599621204316,1.0003427321120324,0.0004111073136241027
1571.9669067978116,1571.9669067978116,0.9994419741316903,0.0004109578419738162
1571.9738514752848,1571.9738514752848,0.9998897350738322,0.0004108674644759733
1571.9807961524787,1571.9807961524787,1.0004347393291937,0.0004107660983136391
1571.987740829953,1571.987740829953,0.9994894542237323,0.0004107165656365054
1571.9946855072405,1571.9946855072405,0.9999899618542445,0.0004107440583454499
1572.0016301846204,1572.0016301846204,1.0004396035003462,0.000410498656749635
1572.0085748618144,1572.0085748618144,0.9995324355664028,0.00041068255066220046
1572.0155195390084,1572.0155195390084,1.0002832123950662,0.00041059205925025633
1572.0224642162952,1572.0224642162952,1.0001667649242447,0.00041044154348418024
1572.0294088934902,1572.0294088934902,1.0000015692608961,0.0004104067387044778
1572.0363535706842,1572.0363535706842,1.0002446417898747,0.00041033291152462625
1572.0432982477853,1572.0432982477853,1.000364621096653,0.00041028789722796213
1572.0502429249793,1572.0502429249793,0.9990649893218201,0.00041034740829960277
1572.05718760208,1572.05718760208,1.0002216006052818,0.00041025287301643736
1572.0641322790877,1572.0641322790877,1.000397806328055,0.00041023152678141455
1572.071076956189,1572.071076956189,0.9995693176932615,0.0004102991930067754
1572.0780216331973,1572.0780216331973,0.9999077577457962,0.00041019541172643395
1572.0849663101121,1572.0849663101121,0.9998787448192751,0.00041026545271347873
1572.0919109872125,1572.0919109872125,0.9995294867822198,0.00041002059624366597
1572.098855664034,1572.098855664034,1.0003300063268659,0.0004101872007822824
1572.1058003409485,1572.1058003409485,1.00004037141754,0.00041022972004745896
1572.1127450178637,1572.1127450178637,1.0005827614241647,0.00040994817601533467
1572.119689694686,1572.119689694686,0.9999647230441949,0.0004098542182686302
1572.1266343715074,1572.1266343715074,0.9997880406099364,0.00040973417412359226
1572.1335790484213,1572.1335790484213,1.0003108978048172,0.0004097222284786109
1572.1405237250567,1572.1405237250567,0.9999591950634477,0.0004099385964868393
1572.1474684016919,1572.1474684016919,0.9998672691574468,0.0004096396390814164
1572.1544130784205,1572.1544130784205,0.999478351033716,0.00040944282579554695
1572.1613577554292,1572.1613577554292,0.9996344907115432,0.0004093615971781786
1572.1683024320641,1572.1683024320641,1.0004073951144339,0.0004096195481347268
1572.175247108699,1572.175247108699,0.9998621274311766,0.0004093526615121947
1572.1821917850552,1572.1821917850552,0.9997037033833436,0.00040932452356322156
1572.189136461504,1572.189136461504,1.0004913028461686,0.00040952521103946167
1572.196081138139,1572.196081138139,1.0007162004565973,0.0004093242410382743
1572.2030258147754,1572.2030258147754,1.0003946440173999,0.0004092947786121743
1572.209970491224,1572.209970491224,0.9994879408288442,0.00040906488166709274
1572.2169151675803,1572.2169151675803,0.9995734235715809,0.00040911016723938956
1572.2238598441222,1572.2238598441222,1.0002602656895858,0.00040931965454414474
1572.2308045203847,1572.2308045203847,1.0001444391710614,0.00040910689050248003
1572.23774919674,1572.23774919674,0.99962357253196,0.0004091288028462447
1572.24469387319,1572.24469387319,1.000047370191209,0.00040920174163072904
1572.2516385493602,1572.2516385493602,0.9998715527751424,0.0004093243260115018
1572.2585832256223,1572.2585832256223,0.999668312065811,0.00040918459694328174
1572.265527901885,1572.265527901885,1.0004751259272928,0.0004090485457222353
1572.2724725780547,1572.2724725780547,0.9995335812318394,0.00040896547262706076
1572.279417254224,1572.279417254224,1.0003695251352653,0.00040912765735172965
1572.2863619303942,1572.2863619303942,1.0004389074707354,0.00040912555566304426
1572.293306606471,1572.293306606471,0.9999169351354764,0.00040870753675325823
1572.3002512826404,1572.3002512826404,1.0000129705435534,0.0004086985942228146
1572.3071959586237,1572.3071959586237,0.9993890530599643,0.0004085589361463998
1572.3141406346072,1572.3141406346072,1.0004310083830552,0.0004089213622876967
1572.3210853105902,1572.3210853105902,0.9998517930415332,0.00040867580682704175
1572.3280299865735,1572.3280299865735,0.9999486964973012,0.00040879969043134296
1572.3349746624644,1572.3349746624644,0.9999276516208759,0.0004085273546497278
1572.3419193383547,1572.3419193383547,1.0002283967075662,0.00040846833405981133
1572.348864014152,1572.348864014152,0.9996782757928381,0.0004085857044588779
1572.3558086899486,1572.3558086899486,1.000386964398923,0.000408430756464724
1572.3627533657457,1572.3627533657457,0.9998943525465768,0.0004084242373249526
1572.3696980414493,1572.3696980414493,0.9997414241208027,0.00040831164602483206
1572.3766427172473,1572.3766427172473,1.0003370328583314,0.00040826635398897427
1572.3835873928585,1572.3835873928585,0.9994794524736552,0.00040803922220443835
1572.390532068469,1572.390532068469,0.9999506959554202,0.00040819172616061246
1572.3974767441728,1572.3974767441728,1.0006628211381496,0.00040814169195711936
1572.4044214196902,1572.4044214196902,1.0003318788827014,0.0004081253288092662
1572.4113660953008,1572.4113660953008,0.9993578585996898,0.00040780188819775065
1572.4183107708186,1572.4183107708186,1.0001337907526717,0.00040792334673336037
1572.4252554462441,1572.4252554462441,1.0004338321074555,0.0004078420122725605
1572.4322001217615,1572.4322001217615,0.9999364510711051,0.00040789192944326233
1572.4391447969997,1572.4391447969997,0.9996203810836214,0.0004076673601722637
