time,time,flux,flux_err
1354.1171793356589,1354.1171793356589,0.9995977792954158,0.00020805571827833824
1354.1259757920034,1354.1259757920034,1.0000594276946315,0.00020820530772726868
1354.1336148198814,1354.1336148198814,1.0002114916801936,0.0001901434421058763
1354.1405593906798,1354.1405593906798,1.0008074642578477,0.00019022975281198922
1354.1475039612455,1354.1475039612455,1.0001421793329404,0.00019023464049224573
1354.1544485318577,1354.1544485318577,0.999908040330731,0.00019025532008155345
1354.1613931023765,1354.1613931023765,0.9997730338894366,0.0001902699636229931
1354.1683376728492,1354.1683376728492,0.9997294943905006,0.00019029878222755182
1354.1752822432281,1354.1752822432281,0.9999210544449069,0.0001903318415239156
1354.1822268135613,1354.1822268135613,0.999864408640797,0.0001903607109984954
1354.1891713838936,1354.1891713838936,0.9996205434018609,0.00019033702420074092
1354.1961159540867,1354.1961159540867,0.999938985110713,0.0001903799276461356
1354.2030605242333,1354.2030605242333,1.000238169919936,0.0001904196906092254
1354.2100050943332,1354.2100050943332,0.9998113346386969,0.00019039319723597442
1354.2169496643398,1354.2169496643398,1.0002309738244337,0.00019040257604209542
1354.2238942343004,1354.2238942343004,1.0002670431671956,0.00019040640821000687
1354.2308388042136,1354.2308388042136,1.0002554219792807,0.00019039434354125535
1354.2377833740811,1354.2377833740811,0.999663717369317,0.00019034821258922486
1354.2447279438081,1354.2447279438081,1.0000871386281873,0.00019037434794195052
1354.2516725135822,1354.2516725135822,1.0000175847889383,0.00019037200797720726
1354.2586170833094,1354.2586170833094,0.9997132067898867,0.00019032907698362446
1354.265561652804,1354.265561652804,1.0003564584623086,0.0001903886301741905
1354.2725062223449,1354.2725062223449,1.0004682084325127,0.00019040941187434504
1354.27945079184,1354.27945079184,0.9999313169010264,0.0001903574426856551
1354.286395361241,1354.286395361241,0.9997617385884612,0.0001903486730580407
1354.2933399305962,1354.2933399305962,0.999853358473031,0.00019038182563452916
1354.3002844998578,1354.3002844998578,0.9998908407520102,0.00019038153444560034
1354.3072290690727,1354.3072290690727,1.0003790765459606,0.00019041045970158053
1354.3141736382415,1354.3141736382415,1.000100680911386,0.00019039504554333586
1354.3211182072705,1354.3211182072705,1.0001194529010557,0.00019041321317011763
1354.3280627763456,1354.3280627763456,0.999974988860027,0.00019041924371750245
1354.335007345328,1354.335007345328,0.9998773542404449,0.0001904155977184633
1354.3419519142637,1354.3419519142637,1.0000187257751996,0.0001904131542706245
1354.3488964830601,1354.3488964830601,0.9995735357415259,0.00019040632284431005
1354.3558410518558,1354.3558410518558,1.0002833935100788,0.00019046067539129963
1354.362785620559,1354.362785620559,0.9999866344769085,0.00019044499631469566
1354.3697301892155,1354.3697301892155,0.9999463151026259,0.0001904280331883633
1354.3766747577783,1354.3766747577783,0.9997789421276035,0.00019040034812106368
1354.3836193262487,1354.3836193262487,1.0000208804007302,0.00019042484318313246
1354.3905638947188,1354.3905638947188,1.0000732012885352,0.00019041411172774405
1354.3975084631886,1354.3975084631886,0.9998556912908934,0.00019039254984605614
1354.404453031519,1354.404453031519,1.000152076783068,0.00019040230813004884
1354.411397599803,1354.411397599803,0.9999063080469968,0.00019036666123854658
1354.4183421679936,1354.4183421679936,1.000187171632381,0.00019038329643212664
1354.425286736138,1354.425286736138,1.000049703797655,0.00019038751292012709
1354.432231304235,1354.432231304235,1.0000767804631747,0.00019037029734936557
1354.4391758722397,1354.4391758722397,1.0001234692158416,0.00019036345178600252
1354.4461204401975,1354.4461204401975,1.0001449991129334,0.00019036217560526835
1354.453065008109,1354.453065008109,0.9997847926730083,0.00019034426607485896
1354.4600095759274,1354.4600095759274,0.9999147342238818,0.00019034701741181282
1354.4669541436986,1354.4669541436986,0.9999581373101073,0.000190348383754569
1354.473898711377,1354.473898711377,0.9997630959532658,0.00019034447629009737
1354.4808432790558,1354.4808432790558,1.0001015736406385,0.00019037417158283178
1354.4877878465943,1354.4877878465943,0.9999924589978398,0.00019036026967860848
1354.4947324140867,1354.4947324140867,1.0004433163510207,0.00019040254096796983
1354.5016769816255,1354.5016769816255,0.9997650039018525,0.00019034802512668666
1354.5086215489314,1354.5086215489314,0.9999735667116824,0.00019036955191524925
1354.5155661162376,1354.5155661162376,1.0000576778127699,0.00019036905850764067
1354.5225106835433,1354.5225106835433,1.0000197620908908,0.0001903598815239983
1354.5294552507094,1354.5294552507094,0.999668764198222,0.0001903257112957876
1354.536399817876,1354.536399817876,1.000088569843541,0.00019036108348033815
1354.5433443849022,1354.5433443849022,1.0001299202648222,0.00019037169834994815
1354.550288951929,1354.550288951929,1.0000563727213068,0.00019035875548608126
1354.5572335189092,1354.5572335189092,0.9999719909186771,0.00019034896777843258
1354.5641780857488,1354.5641780857488,1.000177091797509,0.00019035534100734987
1354.5711226525896,1354.5711226525896,0.999887130028883,0.00019033374821950333
1354.5780672193828,1354.5780672193828,1.000098033772171,0.00019033498376657288
1354.5850117859904,1354.5850117859904,0.9997801443856815,0.00019029715507149893
1354.5919563526447,1354.5919563526447,0.9998710451727908,0.00019028727422588468
1354.5989009192522,1354.5989009192522,1.0000170346662967,0.00019028685867083326
1354.6058454857198,1354.6058454857198,1.0000701563319176,0.0001903027615872525
1354.612790052141,1354.612790052141,1.0001423410768597,0.00019028833400023008
1354.6197346185618,1354.6197346185618,1.0000385178641413,0.00019025656389990575
1354.6266791848434,1354.6266791848434,0.9997193437214463,0.0001902206403177204
1354.6336237511252,1354.6336237511252,0.999625056765119,0.00019019835649016756
1354.6405683172666,1354.6405683172666,1.000248262530039,0.00019023234640519758
1354.6475128834088,1354.6475128834088,1.0001501171946185,0.00019021557072689446
1354.6544574495504,1354.6544574495504,1.0002630456795374,0.00019024506014187942
1354.6614020154595,1354.6614020154595,0.9998801759200386,0.00019018745251780605
1354.6683465814153,1354.6683465814153,1.0001201644080342,0.00019020959497378616
1354.6752911473236,1354.6752911473236,1.0005044213281837,0.00019024615058789565
1354.6822357130936,1354.6822357130936,0.9999256981745251,0.00019018535864040426
1354.6891802788625,1354.6891802788625,0.9997634133524776,0.00019015468745478998
1354.6961248445848,1354.6961248445848,0.9997681891152654,0.00019016439260366837
1354.7030694101682,1354.7030694101682,0.9997245377985736,0.00019015020770891573
1354.7100139757047,1354.7100139757047,0.9999101049496172,0.0001901848190440075
1354.7169585412876,1354.7169585412876,0.9992287998391849,0.00019010464034553682
1354.7239031066845,1354.7239031066845,1.000863172717459,0.00019024748300638936
1354.730847672081,1354.730847672081,1.0003078008211366,0.0001902132971373121
1354.7377922373848,1354.7377922373848,1.0002594976098462,0.00019019217302454532
1354.744736802642,1354.744736802642,1.000459800118473,0.00019020263742429124
1354.7516813678521,1354.7516813678521,0.9998491409719159,0.00019015486283647848
1354.758625933016,1354.758625933016,1.000143638006872,0.00019017719949622174
1354.7655704980402,1354.7655704980402,0.9999252430406553,0.0001901576572416332
1354.7725150630179,1354.7725150630179,0.9995272835250948,0.00019010246743156225
1354.7794596279957,1354.7794596279957,1.0000514424586064,0.00019014593591707026
1354.7864041929265,1354.7864041929265,0.9997435421084757,0.00019011006018443104
1354.793348757718,1354.793348757718,0.9994565677159672,0.00019009251175269138
1354.8002933225093,1354.8002933225093,0.9999492399757937,0.0001901086833845953
1354.8072378871611,1354.8072378871611,0.9995791829283475,0.00019006880446517977
1354.8141824518127,1354.8141824518127,1.000918849729946,0.0001901890284694577
1354.8211270163713,1354.8211270163713,1.0006995053814571,0.00019016123358954153
1354.8280715809299,1354.8280715809299,1.0013305455305634,0.00019020235581710163
1354.8350161453952,1354.8350161453952,1.0003624070656771,0.0001901151123762963
1354.8419607098142,1354.8419607098142,0.9999123254578061,0.0001900740950186873
1354.8489052740936,1354.8489052740936,0.9997540673081812,0.00019003927921645817
1354.8558498384186,1354.8558498384186,0.9997698608141439,0.00019005147755539676
1354.862794402605,1354.862794402605,0.9996828257950627,0.00019004013334506054
1354.8697389667445,1354.8697389667445,0.999850547671915,0.00019006636473009865
1354.8766835308375,1354.8766835308375,1.000063152071489,0.0001900774485915495
1354.8836280948838,1354.8836280948838,1.000043530354937,0.00019006933952459842
1354.8905726587902,1354.8905726587902,0.9999661164257352,0.00019007621799855425
1354.89751722279,1354.89751722279,0.9999345448353509,0.00019005404255441168
1354.9044617866505,1354.9044617866505,0.9999772804511842,0.00019005208638182326
1354.9114063504635,1354.9114063504635,0.9999143893079492,0.00019003032568733194
1354.9183509140441,1354.9183509140441,1.0001801913451678,0.00019005105371680179
1354.9252954777646,1354.9252954777646,0.9998272941685666,0.00019002158017420766
1354.9322400413919,1354.9322400413919,1.000213835108551,0.00019005068296168226
1354.940573517642,1354.940573517642,1.000114663454156,0.00019003789967735578
1354.9475180810832,1354.9475180810832,1.0001409642045076,0.00019003691978435397
1354.9544626444774,1354.9544626444774,0.9999783144752736,0.0001900192555464553
1354.9614072078718,1354.9614072078718,0.9999417573660521,0.00019001797365875576
1354.968351771127,1354.968351771127,0.9999934070689861,0.00019002164206838705
1354.9752963343344,1354.9752963343344,1.00002653920536,0.00019002606536536838
1354.982240897543,1354.982240897543,0.9999107816165406,0.00019002591851788946
1354.989185460658,1354.989185460658,0.9998843383604384,0.00019001197477966472
1354.996130023726,1354.996130023726,0.9999205651709439,0.00019002259108341667
1355.0030745867016,1355.0030745867016,0.9999960493611189,0.00019002816534155676
1355.0100191496301,1355.0100191496301,1.0003564432784846,0.00019004017492793828
1355.0169637125125,1355.0169637125125,1.000018493666508,0.0001900190226051322
1355.0239082753483,1355.0239082753483,0.9998059220426845,0.00018998491303398742
1355.030852838044,1355.030852838044,0.9999480839921582,0.00018999058346130224
1355.0377974006938,1355.0377974006938,1.000177737318372,0.00019001624390075456
1355.0447419633426,1355.0447419633426,0.9996775893577885,0.00018995041104405343
1355.0516865259922,1355.0516865259922,1.000141702074164,0.00018998004366475117
1355.0586310885017,1355.0586310885017,0.9999851495284411,0.00018997154364703653
1355.0655756509648,1355.0655756509648,0.9997654494077158,0.00018993893687654508
1355.0725202133349,1355.0725202133349,1.000140261613993,0.0001899720604512384
1355.0794647757048,1355.0794647757048,0.9998399390970025,0.00018993374208480708
1355.0864093379812,1355.0864093379812,1.0003901339036598,0.00018997277875461662
1355.093353900165,1355.093353900165,1.0000339808704273,0.0001899459161162809
1355.100298462349,1355.100298462349,1.0001780932037965,0.0001899620909960635
1355.1072430244392,1355.1072430244392,0.999939481846592,0.00018993992091460027
1355.11418758653,1355.11418758653,1.00005959244116,0.00018995409259051763
1355.1211321484807,1355.1211321484807,0.999960038157955,0.000189954063006121
1355.128076710385,1355.128076710385,0.9999317416820939,0.00018996372428951419
1355.1350212722896,1355.1350212722896,0.9998207620491512,0.00018994635920153592
1355.1419658340537,1355.1419658340537,0.999892851565343,0.00018995050476469162
1355.1489103958188,1355.1489103958188,1.000290328121993,0.00018998466816470328
1355.1558549575366,1355.1558549575366,0.999643698081471,0.00018994104646561809
1355.1627995190681,1355.1627995190681,0.9999867639746723,0.00018995250994665425
1355.1697440807866,1355.1697440807866,0.9995599942584106,0.0001899284056006549
1355.1766886422715,1355.1766886422715,1.0002410299780893,0.00018998176945945336
1355.183633203757,1355.183633203757,1.0002268144616653,0.00018997130015065565
1355.1905777650095,1355.1905777650095,1.0004657372936716,0.00018999008653525107
1355.1975223264476,1355.1975223264476,1.0002091495203156,0.00018995820702511572
1355.2044668877002,1355.2044668877002,0.999855219760011,0.0001899304028064804
1355.211411448906,1355.211411448906,0.9996347952233273,0.0001899014280573264
1355.2183560101118,1355.2183560101118,1.0000009289354528,0.00018991134300689537
1355.225300571178,1355.225300571178,1.0002042243348348,0.00018992853343141836
1355.232245132244,1355.232245132244,0.9997302636336756,0.0001899100196430082
1355.2391896932636,1355.2391896932636,0.9998674658747191,0.0001899133721770348
1355.2461342541433,1355.2461342541433,1.000239917881085,0.00018994740061474807
1355.2530788150696,1355.2530788150696,0.9998249570454625,0.0001899059011269354
1355.2600233758567,1355.2600233758567,1.000384427968256,0.00018994294300895114
1355.2669679365965,1355.2669679365965,0.9996807387720879,0.0001898671657459881
1355.2739124973366,1355.2739124973366,0.999551672882029,0.00018985286531798774
1355.280857057937,1355.280857057937,1.0000766959770506,0.00018989571538255754
1355.2878016185373,1355.2878016185373,0.9996467817962517,0.0001898647845165207
1355.2947461790914,1355.2947461790914,1.0019321301982402,0.00019006057174662374
1355.3016907395056,1355.3016907395056,1.0010848743750609,0.00018997481433220581
1355.308635300013,1355.308635300013,1.0000532166312148,0.00018990616508757495
1355.3155798603343,1355.3155798603343,1.0001090710698364,0.00018991161952121142
1355.322524420655,1355.322524420655,0.9997165706750077,0.00018988338293994731
1355.3294689808363,1355.3294689808363,0.999845550665499,0.0001899123797308664
1355.3372468882562,1355.3372468882562,0.9998519936560332,0.00018991273390447043
1355.34474701317,1355.34474701317,1.0000293383544085,0.00018992121930248306
1355.3516915732118,1355.3516915732118,0.9998831541783598,0.0001899137370134783
1355.3586361332539,1355.3586361332539,1.0003002215484083,0.0001899479341462432
1355.3655806931554,1355.3655806931554,0.9998446845748417,0.00018991386363176638
1355.3725252530571,1355.3725252530571,0.9998614061955685,0.0001899001145691803
1355.3794698129127,1355.3794698129127,0.9999934342822703,0.00018992319431147662
1355.3864143726285,1355.3864143726285,0.9998118486977517,0.00018989227730817633
1355.3933589323908,1355.3933589323908,1.0001731274324062,0.00018992626516589546
1355.4014146215716,1355.4014146215716,1.000018274694233,0.00018990545192894187
1355.4086369635136,1355.4086369635136,1.0002494590458562,0.00018992808362797343
1355.415581523043,1355.415581523043,0.9998496424896297,0.0001898921918563813
1355.4225260825729,1355.4225260825729,1.0000790207615817,0.00018991799943624736
1355.4294706419623,1355.4294706419623,0.9999097763435145,0.0001898767961498437
1355.4364152013054,1355.4364152013054,0.9999081822534857,0.00018987584675490978
1355.4433597606953,1355.4433597606953,1.0004707215643769,0.00018991796040961187
1355.450304319852,1355.450304319852,1.0000471101975776,0.00018987845266474194
1355.457248879009,1355.457248879009,0.9996678778940937,0.0001898492039383185
1355.464193438166,1355.464193438166,0.999680587248203,0.00018983780395016246
1355.4711379973228,1355.4711379973228,0.9996950945776497,0.00018983338937652214
1355.4780825562934,1355.4780825562934,1.0001135214640615,0.00018985997727567378
1355.4850271153105,1355.4850271153105,1.000128166770675,0.00018985353773685523
1355.4919716741883,1355.4919716741883,1.0003522306274146,0.00018986416703107163
1355.4989162330658,1355.4989162330658,0.999957375904283,0.00018984360346319354
1355.5058607918497,1355.5058607918497,1.0002099754501796,0.00018984759324292078
1355.5128053505878,1355.5128053505878,1.0002279482146037,0.00018985416159444124
1355.5197499092792,1355.5197499092792,0.9996074132233861,0.00018979291844185056
1355.5266944679233,1355.5266944679233,0.9996771964716015,0.00018979108588665047
1355.5336390265215,1355.5336390265215,0.9999691288550517,0.00018981489529894388
1355.5405835849804,1355.5405835849804,0.9998239916404401,0.00018980310934802347
1355.5475281434851,1355.5475281434851,1.000130183424864,0.0001898366878516572
1355.5544727018503,1355.5544727018503,1.0001547592184241,0.00018986110603265823
1355.5614172602159,1355.5614172602159,1.000336931949914,0.00018986512959877567
1355.5683618184878,1355.5683618184878,1.0003623131014427,0.0001898884712353024
1355.5753063767602,1355.5753063767602,0.9997395018019601,0.00018982477908842428
1355.5822509349855,1355.5822509349855,1.000037152905092,0.00018985208746079315
1355.5891954930248,1355.5891954930248,0.9997900630296295,0.00018985160874064182
1355.596140051204,1355.596140051204,0.9997704942648475,0.00018985281121678698
1355.6030846091965,1355.6030846091965,1.0000993914609138,0.00018988517923194115
1355.6100291671894,1355.6100291671894,0.999622471961265,0.00018983755223743405
1355.616973724996,1355.616973724996,1.000176243943851,0.00018988070649838341
1355.6239182828951,1355.6239182828951,1.0005729777441106,0.00018992380867759894
1355.6308628406555,1355.6308628406555,0.9998754321167397,0.000189845700650902
1355.6378073984154,1355.6378073984154,0.9999101230274127,0.00018983624072335147
1355.6447519560818,1355.6447519560818,0.9997517393785753,0.0001898176359447967
1355.6516965137487,1355.6516965137487,0.9999408902048874,0.00018981876633331654
1355.658641071276,1355.658641071276,0.9999418439572523,0.0001898281889774177
1355.6655856288028,1355.6655856288028,0.9998587833648518,0.00018980732820697417
1355.6725301862837,1355.6725301862837,1.0001619576616014,0.00018983477572686382
1355.6794747436709,1355.6794747436709,1.0002378124793783,0.00018985162230136812
1355.686419301012,1355.686419301012,1.000082324079759,0.0001898282648724029
1355.6933638583525,1355.6933638583525,0.999930879590465,0.0001898216232126641
1355.7003084156,1355.7003084156,1.0000195498156468,0.00018981686101192684
1355.7072529727548,1355.7072529727548,1.0002824611209429,0.0001898497351179187
1355.7141975299094,1355.7141975299094,0.9999201163179998,0.00018982716001808195
1355.7211420869705,1355.7211420869705,0.9998921640104126,0.0001898345215375707
1355.7280866439858,1355.7280866439858,0.9996466787811983,0.00018982308162838324
1355.7350312010003,1355.7350312010003,1.0001764022954942,0.00018987378782525882
1355.741975757876,1355.741975757876,1.0001341775897172,0.00018987378674098105
1355.75030922607,1355.75030922607,1.0000536720440625,0.00018986619708076917
1355.7572537828987,1355.7572537828987,0.9998692728818244,0.0001898634452422552
1355.764198339634,1355.764198339634,0.9995737830158691,0.00018984068396875382
1355.771142896323,1355.771142896323,0.9999058879102792,0.0001898691386466476
1355.7780874529183,1355.7780874529183,1.0009688172868152,0.00018997395420072496
1355.7850320094678,1355.7850320094678,1.0001944283689692,0.0001898902991125091
1355.791976566017,1355.791976566017,1.0003616321830235,0.0001899111794083305
1355.7989211224733,1355.7989211224733,1.0001741036784833,0.00018988738740714339
1355.8058656788824,1355.8058656788824,0.9999268534880109,0.00018986487886241024
1355.8128102352453,1355.8128102352453,1.0000971472381655,0.00018987225915991762
1355.8197547915156,1355.8197547915156,0.999577730291499,0.0001898259932707469
1355.8266993477387,1355.8266993477387,1.0002184057605068,0.00018987796309526936
1355.833643904008,1355.833643904008,0.9998017247024791,0.0001898302873871492
1355.840588460092,1355.840588460092,0.9996834822881902,0.00018981571627062758
1355.8475330162219,1355.8475330162219,1.000219612578616,0.0001898496396918509
1355.8544775722592,1355.8544775722592,1.0000190257618913,0.0001898142114419852
1355.8614221282028,1355.8614221282028,1.0002404117555375,0.0001898511979256709
1355.8683666841466,1355.8683666841466,0.9996684412136609,0.00018977344062906672
