time,time,flux,flux_err
1354.1138567162761,1354.1138567162761,0.9997795148328001,0.00037782692073161264
1354.1226530168449,1354.1226530168449,1.0000849875251279,0.00037789689007875225
1354.1302919096634,1354.1302919096634,1.0001643241132196,0.0003450290992586001
1354.1372363578707,1354.1372363578707,1.0001342080631301,0.00034502473330820787
1354.1441808062407,1354.1441808062407,1.0005219482311112,0.0003450816083394312
1354.1511252547798,1354.1511252547798,0.9997511164427149,0.0003450009408403395
1354.1580697034847,1354.1580697034847,0.9993142537028122,0.00034494816890595994
1354.1650141523528,1354.1650141523528,1.0000327368575326,0.0003450219866307039
1354.1719586013865,1354.1719586013865,1.0001123947283381,0.0003450957234620802
1354.1789030505774,1354.1789030505774,1.0000419416913215,0.0003450570411017685
1354.1858474999342,1354.1858474999342,0.999930744560005,0.0003450277700347491
1354.1927919494424,1354.1927919494424,1.000171737650012,0.000345050435155054
1354.199736399108,1354.199736399108,0.9997962261909963,0.00034504203329285143
1354.2066808489303,1354.2066808489303,1.0001086470294536,0.00034506278401089856
1354.213625298907,1354.213625298907,1.0001814427951348,0.0003450289706633342
1354.2205697490353,1354.2205697490353,0.9996073603313329,0.00034493723243388
1354.2275141993146,1354.2275141993146,0.9998796022269719,0.0003450663310021368
1354.2344586497427,1354.2344586497427,1.0001484930803421,0.0003450648639058723
1354.2414031003186,1354.2414031003186,1.0004657947121112,0.00034510133862657454
1354.2483475510405,1354.2483475510405,0.9997284817774064,0.00034498668668899905
1354.2552920019104,1354.2552920019104,1.0000812686015554,0.0003450454883401165
1354.262236452921,1354.262236452921,0.9996217647369727,0.0003449919894984876
1354.269180904076,1354.269180904076,1.0001493726633375,0.00034505965910333993
1354.2761253553626,1354.2761253553626,1.0003049403476654,0.0003450615229323544
1354.2830698067974,1354.2830698067974,0.9999223718440847,0.00034502458417382616
1354.2900142583662,1354.2900142583662,1.0001407028244513,0.0003450497995941943
1354.2969587100715,1354.2969587100715,1.0003885701841297,0.0003451056580915888
1354.3039031619137,1354.3039031619137,0.9995525228920883,0.0003450058871168035
1354.3108476138873,1354.3108476138873,0.9991865930723177,0.0003449091259587134
1354.3177920659944,1354.3177920659944,1.0001919634924423,0.0003450536097021225
1354.3247365182294,1354.3247365182294,1.0002634199357876,0.000345083224491133
1354.3316809705987,1354.3316809705987,1.00043999460036,0.0003450508901208432
1354.33862542309,1354.33862542309,0.9997816449465484,0.0003450198076272792
1354.3455698757125,1354.3455698757125,1.0002038193950094,0.00034505503418646386
1354.3525143284567,1354.3525143284567,0.9998144718213068,0.0003449946240719218
1354.3594587813236,1354.3594587813236,1.0001414629651948,0.0003449969084195534
1354.3664032343215,1354.3664032343215,1.0000600120411698,0.0003449723544315638
1354.3733476874295,1354.3733476874295,1.000020241620594,0.00034501128655817177
1354.3802921406661,1354.3802921406661,0.9996565862278184,0.0003449287436520309
1354.387236594022,1354.387236594022,0.9998080285351147,0.00034499951438498363
1354.394181047488,1354.394181047488,1.0002539490088727,0.00034502662268446704
1354.4011255010766,1354.4011255010766,1.0000778229857405,0.0003449955688741578
1354.4080699547758,1354.4080699547758,0.9995993184317736,0.0003449470628921851
1354.4150144085913,1354.4150144085913,1.0002636845867512,0.0003450474268639103
1354.4219588625235,1354.4219588625235,0.9999789761173282,0.00034502066607848515
1354.4289033165599,1354.4289033165599,1.0002581734431129,0.00034504430173666557
1354.4358477707071,1354.4358477707071,1.0002425891063331,0.00034504583829247394
1354.4427922249652,1354.4427922249652,0.9995785130744927,0.0003449392422996349
1354.4497366793307,1354.4497366793307,0.9999187691790599,0.0003449753668008739
1354.4566811338043,1354.4566811338043,1.000054463860784,0.0003450287372736286
1354.4636255883852,1354.4636255883852,1.0001435587172285,0.0003450254512005005
1354.4705700430677,1354.4705700430677,0.9998092518353751,0.0003450125852801642
1354.477514497847,1354.477514497847,1.0000800285344442,0.0003450675855099431
1354.4844589527363,1354.4844589527363,0.9999361153650819,0.0003450402969669007
1354.4914034077278,1354.4914034077278,1.0004054535655396,0.00034506277665008223
1354.4983478628124,1354.4983478628124,0.9992576082935771,0.00034488680366513935
1354.5052923179985,1354.5052923179985,1.0001332655212267,0.00034498222214248754
1354.5122367732843,1354.5122367732843,1.0001660782145787,0.0003449937383171938
1354.5191812286623,1354.5191812286623,0.9998306825919533,0.00034493294956622144
1354.5261256841427,1354.5261256841427,1.0009182594171286,0.0003451200104639937
1354.5330701397074,1354.5330701397074,1.0001627208694002,0.0003450090382401364
1354.540014595371,1354.540014595371,1.0001417351417854,0.00034499225478602314
1354.546959051128,1354.546959051128,0.9998623186177336,0.0003449671822007585
1354.553903506975,1354.553903506975,0.9999176270287486,0.000344962771276791
1354.5608479629118,1354.5608479629118,0.9999540790348849,0.0003449847907363453
1354.5677924189395,1354.5677924189395,0.9996106080392814,0.00034491490700617685
1354.574736875054,1354.574736875054,1.0001089619057648,0.0003450134227918365
1354.5816813312563,1354.5816813312563,0.9998210516008352,0.0003449021741935425
1354.5886257875459,1354.5886257875459,1.0000401574713067,0.00034494891423500484
1354.5955702439194,1354.5955702439194,1.000008162119157,0.000344947564728022
1354.6025147003747,1354.6025147003747,1.0002586655921182,0.0003449749269570474
1354.6094591569172,1354.6094591569172,0.9999605515968593,0.0003449583971613655
1354.616403613541,1354.616403613541,1.0000245410029973,0.0003449697495352328
1354.6233480702497,1354.6233480702497,1.0003824965138404,0.0003450437789853125
1354.6302925270343,1354.6302925270343,0.9996032092624816,0.00034494209521632993
1354.6372369838996,1354.6372369838996,1.0002719198415457,0.00034503967957810657
1354.644181440844,1354.644181440844,1.0001794690480603,0.00034504209372681954
1354.6511258978635,1354.6511258978635,0.999769191849517,0.0003449795940186558
1354.658070354965,1354.658070354965,0.9998727390198164,0.0003449998526803168
1354.6650148121425,1354.6650148121425,1.0003328610674473,0.0003450712611160253
1354.671959269392,1354.671959269392,0.999897810896338,0.00034503880288225166
1354.6789037267176,1354.6789037267176,0.9995977298830259,0.00034498900839349366
1354.6858481841214,1354.6858481841214,0.9994391757613194,0.00034494424079893474
1354.6927926415894,1354.6927926415894,1.000116183245908,0.0003450392418421111
1354.6997370991335,1354.6997370991335,0.9999557601516953,0.0003450153071398309
1354.706681556747,1354.706681556747,1.0003073977910417,0.0003450596520508479
1354.7136260144332,1354.7136260144332,1.000555102975084,0.00034504789529439284
1354.7205704721928,1354.7205704721928,0.9993926432035753,0.00034489343726619063
1354.7275149300126,1354.7275149300126,1.0001847739585188,0.0003449970084330229
1354.734459387909,1354.734459387909,1.0000218315871132,0.000344962018438885
1354.7414038458658,1354.7414038458658,1.0000159195030551,0.0003449405314372939
1354.7483483038925,1354.7483483038925,1.0003049405334727,0.00034499247181599504
1354.7552927619863,1354.7552927619863,0.9997480295454253,0.00034489524992499564
1354.762237220144,1354.762237220144,0.9998183899657354,0.0003449305319302227
1354.7691816783658,1354.7691816783658,1.000698444366359,0.00034505417316140814
1354.776126136649,1354.776126136649,0.9997845892442943,0.0003449183865764397
1354.7830705949932,1354.7830705949932,0.9999218723770772,0.0003449500645450516
1354.7900150534072,1354.7900150534072,0.9999296921048348,0.0003449580599043715
1354.7969595118764,1354.7969595118764,1.0002264571944028,0.00034498973195998793
1354.8039039704126,1354.8039039704126,0.9997802440361507,0.00034493847328206364
1354.8108484290012,1354.8108484290012,0.999607010665555,0.0003449467878495899
1354.8177928876569,1354.8177928876569,1.0000347963142648,0.0003450562064322239
1354.8247373463646,1354.8247373463646,1.0002124193803685,0.00034500259208838246
1354.831681805131,1354.831681805131,0.999935082604645,0.0003450032320492518
1354.8386262639583,1354.8386262639583,1.0002489680098006,0.000345051252060316
1354.8455707228409,1354.8455707228409,0.9995884819215701,0.00034496547853849374
1354.8525151817782,1354.8525151817782,1.0002428138353985,0.0003450761145811379
1354.8594596407686,1354.8594596407686,1.0001974178285893,0.00034503414262295547
1354.8664040998203,1354.8664040998203,0.9998384655433223,0.0003450100753164604
1354.8733485589178,1354.8733485589178,0.9998334970538647,0.00034497682261666834
1354.88029301808,1354.88029301808,0.9999778239469892,0.0003450190719823396
1354.8872374772884,1354.8872374772884,1.0003492544105936,0.00034507726521087486
1354.8941819365464,1354.8941819365464,1.0001433696601816,0.00034505187042797067
1354.90112639586,1354.90112639586,0.9995060333876511,0.00034493089153368164
1354.9080708552224,1354.9080708552224,1.0005482286075418,0.00034508415546414113
1354.9150153146431,1354.9150153146431,0.9995671754018872,0.0003449542033133722
1354.9219597741023,1354.9219597741023,1.0003274806048252,0.0003450626719464587
1354.928904233619,1354.928904233619,0.9997419515537089,0.0003449810177580192
1354.9372375851012,1354.9372375851012,0.9999990977732025,0.0003450209275738706
1354.9441820447203,1354.9441820447203,0.9996079042616863,0.00034494088300381586
1354.9511265043916,1354.9511265043916,1.0001935012210665,0.0003450317760825092
1354.9580709641064,1354.9580709641064,1.0002074487157138,0.0003450490323212393
1354.965015423871,1354.965015423871,0.9999732126060203,0.00034492980679732416
1354.9719598836787,1354.9719598836787,1.0000720717742282,0.0003449922121441093
1354.9789043435308,1354.9789043435308,1.0001012822451953,0.00034502201499955314
1354.985848803432,1354.985848803432,0.9998973296346285,0.0003449507616017281
1354.9927932633734,1354.9927932633734,0.9999438008738506,0.0003449947877474261
1354.999737723362,1354.999737723362,0.9994623549743077,0.00034493217500741643
1355.0066821833884,1355.0066821833884,1.0004830396435385,0.00034498519919434246
1355.0136266434642,1355.0136266434642,1.000484795413702,0.00034504610334631014
1355.020571103578,1355.020571103578,0.9998501231232014,0.00034489543999470865
1355.027515563738,1355.027515563738,0.9997907169182584,0.0003448987408619939
1355.0344600239364,1355.0344600239364,0.9999433931505587,0.0003449946071181166
1355.0414044841777,1355.0414044841777,0.9996860118701963,0.00034493513040264494
1355.0483489444573,1355.0483489444573,1.0003598946272834,0.00034503286067458043
1355.0552934047778,1355.0552934047778,0.9999607346812336,0.0003450244026378676
1355.0622378651417,1355.0622378651417,0.9997775916196983,0.0003449618747621692
1355.0691823255434,1355.0691823255434,1.0001020879675262,0.00034505337794286966
1355.076126785977,1355.076126785977,1.000281363938735,0.0003450885174780803
1355.0830712464572,1355.0830712464572,0.9998436720902515,0.0003449974775517737
1355.0900157069668,1355.0900157069668,0.9998100375540547,0.00034500350935481384
1355.096960167523,1355.096960167523,1.000245896641389,0.00034506444025140924
1355.103904628108,1355.103904628108,1.000222098803906,0.0003451088147883764
1355.1108490887311,1355.1108490887311,0.9999628951917338,0.00034507182181506605
1355.1177935493974,1355.1177935493974,1.000369590412039,0.0003451393515534269
1355.1247380100933,1355.1247380100933,0.999961887320733,0.00034507705575006505
1355.1316824708242,1355.1316824708242,1.0001008379455316,0.00034507850667569366
1355.138626931595,1355.138626931595,1.0001257468241551,0.00034510515523212816
1355.145571392396,1355.145571392396,0.9996322599974456,0.00034501993512618884
1355.1525158532284,1355.1525158532284,0.9998328096199793,0.0003451187800454335
1355.1594603140984,1355.1594603140984,1.000194727224291,0.0003450937521667601
1355.1664047750012,1355.1664047750012,1.0002422047581032,0.0003451021086513908
1355.173349235938,1355.173349235938,0.9998316761563062,0.00034505981233604884
1355.1802936969018,1355.1802936969018,0.9998208645770102,0.0003450207739287655
1355.1872381579033,1355.1872381579033,0.9999290758873162,0.00034501835344842666
1355.1941826189334,1355.1941826189334,1.0002565896241347,0.00034501527572839124
1355.2011270799962,1355.2011270799962,0.999643980985691,0.00034490989270545585
1355.2080715410902,1355.2080715410902,1.0002204434390805,0.0003449716923279929
1355.215016002214,1355.215016002214,1.0003041964467372,0.0003449721056821115
1355.2219604633697,1355.2219604633697,1.0004814427628383,0.0003450272654026604
1355.2289049245542,1355.2289049245542,0.9993328078225335,0.00034484985004963365
1355.2358493857741,1355.2358493857741,0.9994559689512139,0.00034484441782570965
1355.2427938470137,1355.2427938470137,0.999917356839189,0.00034487793454118
1355.2497383082828,1355.2497383082828,1.0002190624491636,0.0003449477009995251
1355.2566827695841,1355.2566827695841,0.9996496920321551,0.0003448578582474397
1355.2636272309112,1355.2636272309112,0.9996676189727166,0.00034488925192534845
1355.2705716922646,1355.2705716922646,1.000845628572862,0.00034503782365839526
1355.277516153653,1355.277516153653,1.0000571657766184,0.0003449664724946413
1355.2844606150645,1355.2844606150645,0.999764560178438,0.00034497448697284454
1355.2914050765025,1355.2914050765025,1.0001469250480057,0.0003449888615467587
1355.2983495379665,1355.2983495379665,0.9997628764533978,0.0003449415968156381
1355.3052939994568,1355.3052939994568,1.0000338232493624,0.00034501004646699055
1355.3122384609735,1355.3122384609735,1.00010185753793,0.0003450146943856454
1355.3191829225161,1355.3191829225161,1.0001166148682994,0.00034504999039540436
1355.326127384082,1355.326127384082,0.9997838638902332,0.00034502665177063807
1355.3339051810701,1355.3339051810701,1.0000544245886744,0.0003450731832213014
1355.3414051996212,1355.3414051996212,0.9996305483392616,0.0003450150369374315
1355.3483496612657,1355.3483496612657,1.000209217896276,0.00034508609876860265
1355.3552941229395,1355.3552941229395,1.0000036001027235,0.0003450958048442516
1355.3622385846306,1355.3622385846306,1.000221788519005,0.000345109587014305
1355.3691830463533,1355.3691830463533,0.9999091490164531,0.0003450289011399034
1355.3761275080913,1355.3761275080913,1.0000303863339415,0.00034505041361738184
1355.3830719698522,1355.3830719698522,1.000060440120785,0.00034503740794916183
1355.3900164316365,1355.3900164316365,1.000088597615468,0.00034506006500087665
1355.3980720073384,1355.3980720073384,0.9999287982016136,0.000344970152946869
1355.405294247647,1355.405294247647,0.9995074998073148,0.00034497907769412796
1355.4122387095042,1355.4122387095042,0.9996038385190019,0.00034491822874175356
1355.4191831713815,1355.4191831713815,1.000684881392896,0.00034511258839744314
1355.426127633279,1355.426127633279,1.000146501174249,0.00034500292969750514
1355.4330720952003,1355.4330720952003,1.0004848606995722,0.000345108417705613
1355.4400165571385,1355.4400165571385,0.9997579595344526,0.00034493583698371524
1355.4469610191031,1355.4469610191031,0.9995698713931939,0.00034495783037961447
1355.4539054810855,1355.4539054810855,0.9998714924404719,0.0003449486123936851
1355.4608499430851,1355.4608499430851,1.0003892148811753,0.0003450288214748516
1355.467794405105,1355.467794405105,0.9997752371469601,0.00034493878754622814
1355.4747388671483,1355.4747388671483,0.9999403118350993,0.0003449283259899755
1355.4816833292086,1355.4816833292086,0.999777144034091,0.00034494591375652583
1355.4886277912842,1355.4886277912842,0.9999323439096568,0.00034497056338524557
1355.4955722533828,1355.4955722533828,1.0002905935836572,0.00034501398043993803
1355.5025167154954,1355.5025167154954,1.0001738352308045,0.0003449550205593436
1355.509461177629,1355.509461177629,0.9994973653082738,0.00034488060432838073
1355.5164056397832,1355.5164056397832,1.0004037478949424,0.00034506020725855527
1355.5233501019509,1355.5233501019509,0.9993001461751048,0.00034490795595111426
1355.53029456414,1355.53029456414,1.0005044797599605,0.00034507698147918773
1355.5372390263435,1355.5372390263435,0.9997842722646935,0.0003449398097196119
1355.544183488564,1355.544183488564,1.0001081831211909,0.0003450189002214217
1355.5511279507996,1355.5511279507996,0.9998808977622996,0.00034498312416685674
1355.5580724130582,1355.5580724130582,0.9995729141847753,0.0003449984277600524
1355.5650168753284,1355.5650168753284,1.0005075308964515,0.0003451380784935111
1355.5719613376161,1355.5719613376161,1.0002947638620343,0.0003451278162601128
1355.578905799924,1355.578905799924,0.9998770036774873,0.000345049073447246
1355.585850262238,1355.585850262238,1.0004157264729208,0.00034513420024041776
1355.5927947245723,1355.5927947245723,0.9994764083108578,0.0003449584798757495
1355.599739186921,1355.599739186921,0.999833105278381,0.0003450541739021727
1355.6066836492873,1355.6066836492873,1.0003928572516045,0.0003451301683034342
1355.6136281116683,1355.6136281116683,0.9999365115668896,0.0003450936822319588
1355.6205725740606,1355.6205725740606,1.0000830468424105,0.00034509565206277846
1355.6275170364706,1355.6275170364706,1.000104309319037,0.0003450377441836142
1355.6344614988925,1355.6344614988925,1.000295889284373,0.0003451041857326411
1355.6414059613312,1355.6414059613312,0.9997560885651963,0.00034497920123617137
1355.648350423785,1355.648350423785,0.9997312176469553,0.0003449770871943994
1355.6552948862504,1355.6552948862504,0.9998479789002154,0.0003449751671794231
1355.6622393487298,1355.6622393487298,1.0001843516533966,0.00034500829487402423
1355.6691838112215,1355.6691838112215,0.9999001109659325,0.00034500156035897976
1355.6761282737243,1355.6761282737243,1.00051814498066,0.0003451391456988106
1355.6830727362478,1355.6830727362478,0.9997633437256684,0.00034495869280697187
1355.6900171987802,1355.6900171987802,1.000186922874586,0.0003450471060729113
1355.696961661321,1355.696961661321,0.9998382459901611,0.00034503307714199344
1355.7039061238763,1355.7039061238763,0.999731261470823,0.000344962036320542
1355.7108505864464,1355.7108505864464,1.0002039645427092,0.0003449962196952133
1355.7177950490282,1355.7177950490282,0.9998183940304267,0.0003449360685545726
1355.7247395116187,1355.7247395116187,0.9999824440942341,0.000344982321834159
1355.7316839742205,1355.7316839742205,1.000198340178862,0.0003450095274800089
1355.738628436843,1355.738628436843,1.0001399614812376,0.0003450569532301621
1355.7469617919949,1355.7469617919949,0.9999396937942245,0.0003449794152337051
1355.753906254638,1355.753906254638,1.0000343101039721,0.00034497814593956335
1355.7608507172895,1355.7608507172895,0.9998224436623204,0.00034502195662105227
1355.7677951799556,1355.7677951799556,1.0004486718071166,0.0003451105571193644
1355.7747396426325,1355.7747396426325,0.9995166059210803,0.00034498251739680007
1355.7816841053111,1355.7816841053111,1.000026582518759,0.0003450589828804236
1355.788628568009,1355.788628568009,1.0000841494353303,0.0003450505486353857
1355.7955730307128,1355.7955730307128,0.9999967957562047,0.00034502246387044363
1355.8025174934282,1355.8025174934282,0.9998890672852113,0.00034503318448464844
1355.8094619561525,1355.8094619561525,0.9999519882016468,0.0003450624767958577
1355.8164064188888,1355.8164064188888,0.9999953136767573,0.00034501577581212684
1355.8233508816393,1355.8233508816393,1.0002140187120445,0.00034509939435047835
1355.8302953443895,1355.8302953443895,1.0005453808800648,0.0003451079377557513
1355.837239807149,1355.837239807149,0.9995930847409973,0.00034498969314829253
1355.8441842699253,1355.8441842699253,0.999816780280781,0.00034503483254774855
1355.8511287327021,1355.8511287327021,0.999527551951689,0.0003449768694617958
1355.858073195496,1355.858073195496,1.0001146589176504,0.00034505824722081324
1355.865017658296,1355.865017658296,1.0002278224349364,0.0003450201411375845
1355.871962121105,1355.871962121105,0.9995695237666231,0.000344965499485622
