time,time,flux,flux_err
1325.2995262441445,1325.2995262441445,1.0001540112321632,0.00025441851982033507
1325.3078594737426,1325.3078594737426,0.9998761819646926,0.00025436933575421
1325.3161927036083,1325.3161927036083,1.0001267604246775,0.00025442810832094755
1325.3245259337543,1325.3245259337543,0.9998180759491812,0.0002544112606856912
1325.332164728296,1325.332164728296,0.9998192119606755,0.000232293266817337
1325.3391090871546,1325.3391090871546,0.9998331247860746,0.0002323222541981679
1325.3460534462233,1325.3460534462233,1.000141169656414,0.00023237619180374727
1325.3529978054544,1325.3529978054544,1.00036228522857,0.00023245875807279651
1325.3599421648833,1325.3599421648833,1.0003614879183718,0.00023251614301564557
1325.3668865244817,1325.3668865244817,0.9999791223130383,0.00023251145280588905
1325.3738308842717,1325.3738308842717,0.9995867549891498,0.00023250780744243669
1325.3807752442306,1325.3807752442306,0.9997301939165144,0.00023257217276072208
1325.3877196043697,1325.3877196043697,1.0000435308721438,0.0002326724441559455
1325.3946639646833,1325.3946639646833,0.9999050707727968,0.00023271472640155481
1325.401608325178,1325.401608325178,0.9999983171381104,0.00023279014267345663
1325.408552685841,1325.408552685841,1.0001809934082393,0.00023284764731406954
1325.4154970466848,1325.4154970466848,1.000362830694405,0.00023289927936369698
1325.4224414076855,1325.4224414076855,0.999942721646011,0.00023291589389845627
1325.4293857688667,1325.4293857688667,0.9997208242382809,0.0002329279300341143
1325.436330130205,1325.436330130205,1.0000530961647347,0.00023303222524804164
1325.4432744917121,1325.4432744917121,1.0000551291297834,0.00023304540630399783
1325.4502188533822,1325.4502188533822,1.0000091315729827,0.00023309046879085938
1325.4571632152154,1325.4571632152154,0.9998888757613112,0.0002331373664469348
1325.4641075772174,1325.4641075772174,1.0002729812290905,0.00023322044126800078
1325.4710519393707,1325.4710519393707,1.0003091788017524,0.0002332718617552873
1325.4779963016867,1325.4779963016867,1.000077883034307,0.000233292829550655
1325.4849406641542,1325.4849406641542,0.9998153519493551,0.00023333104748524683
1325.4918850267793,1325.4918850267793,0.9998580710386445,0.0002333844430542396
1325.4988293895613,1325.4988293895613,1.0000877577180045,0.00023344832161693348
1325.5057737525003,1325.5057737525003,0.9997177755878983,0.00023348850911445945
1325.5127181155847,1325.5127181155847,0.9999437956395912,0.00023353851282896832
1325.519662478821,1325.519662478821,1.0002805129090453,0.00023361769619448776
1325.5266068422138,1325.5266068422138,1.0001889191814688,0.0002336942202649013
1325.5335512057409,1325.5335512057409,1.0000444302419436,0.0002337281283151713
1325.5404955694307,1325.5404955694307,1.0003960433506216,0.00023383338902766227
1325.5474399332431,1325.5474399332431,0.9994568050069678,0.00023378197713907724
1325.5543842972063,1325.5543842972063,0.9997646166363129,0.00023384405642269066
1325.5613286613216,1325.5613286613216,0.9997808816028154,0.000233897554687582
1325.5682730255703,1325.5682730255703,0.9998150027975756,0.00023394689147587583
1325.5752173899587,1325.5752173899587,1.0000712052146725,0.0002340336276121893
1325.5821617544814,1325.5821617544814,1.0002676970755817,0.00023409074403787835
1325.5891061191542,1325.5891061191542,1.0002020496661908,0.00023416903774697422
1325.5960504839506,1325.5960504839506,1.0005632255838914,0.0002342268780098715
1325.6029948488801,1325.6029948488801,1.0000308981208597,0.00023418267525744823
1325.609939213944,1325.609939213944,0.9997185699291447,0.0002342234698700124
1325.6168835791357,1325.6168835791357,0.9999729772846029,0.00023426424537507617
1325.6238279444672,1325.6238279444672,0.9997915009128595,0.00023425637434466121
1325.6307723099267,1325.6307723099267,0.9996417993989806,0.0002342619117137222
1325.6377166755142,1325.6377166755142,1.0001212901737622,0.00023435457138509737
1325.6446610412236,1325.6446610412236,1.0003200856185346,0.00023438367094893065
1325.6516054070557,1325.6516054070557,0.9999565548112436,0.0002343506710725655
1325.658549773016,1325.658549773016,0.9999293365742276,0.00023437862973152082
1325.6654941390925,1325.6654941390925,0.9995999790171528,0.0002343268180901216
1325.6724385052967,1325.6724385052967,1.0000162611519008,0.00023439835916405963
1325.6793828716295,1325.6793828716295,1.000126856469108,0.00023439680882473548
1325.686327238067,1325.686327238067,1.0000781310090143,0.00023440845860421767
1325.693271604632,1325.693271604632,1.000290988814017,0.00023446951014575204
1325.7002159713088,1325.7002159713088,1.0000851266484863,0.0002344637877554813
1325.7071603381007,1325.7071603381007,1.0003077557415314,0.00023449447113896331
1325.7141047050095,1325.7141047050095,0.9996538824959315,0.0002344771010106158
1325.7210490720288,1325.7210490720288,0.999936687349121,0.00023453083612538827
1325.727993439165,1325.727993439165,0.9998044119795069,0.000234543858007068
1325.7349378064055,1325.7349378064055,1.000089181095103,0.0002346308219175022
1325.7418821737624,1325.7418821737624,0.9999227590826669,0.0002346522216329981
1325.7488265412242,1325.7488265412242,0.9999941348891979,0.00023470886605091585
1325.7557709088028,1325.7557709088028,0.9998871019412287,0.0002347395609327466
1325.762715276474,1325.762715276474,1.0000646163580782,0.00023479991261564375
1325.7696596442615,1325.7696596442615,1.000234884835029,0.00023486202565412245
1325.7766040121485,1325.7766040121485,0.9999022902010642,0.00023489803679088432
1325.78354838014,1325.78354838014,1.000271334945418,0.0002349798977140932
1325.790492748242,1325.790492748242,0.9994474089401532,0.0002349502026688047
1325.7974371164314,1325.7974371164314,1.0002701011157065,0.00023506111170718555
1325.8043814847256,1325.8043814847256,1.0001029055646007,0.00023507999363736243
1325.8113258531243,1325.8113258531243,1.0002132388260314,0.00023513611826240605
1325.8182702216286,1325.8182702216286,0.9998382212399501,0.0002351202852205958
1325.8252145902193,1325.8252145902193,0.9998424551953479,0.00023513984057585744
1325.8321589589093,1325.8321589589093,1.0000909419120547,0.00023519467327784275
1325.8391033276926,1325.8391033276926,0.9996226361247377,0.00023515402084924524
1325.8460476965688,1325.8460476965688,0.9998349442779393,0.00023519243996513302
1325.8529920655378,1325.8529920655378,1.00002355351778,0.00023520696016095973
1325.8599364346123,1325.8599364346123,1.0002687288552163,0.00023521017810956146
1325.866880803768,1325.866880803768,1.0001831045107623,0.00023520043025952066
1325.873825173017,1325.873825173017,1.0002437620490174,0.0002351845653269581
1325.8807695423588,1325.8807695423588,0.9998924946945331,0.00023510231122542426
1325.8877139117822,1325.8877139117822,0.9999621594354073,0.00023508167643233432
1325.8946582813046,1325.8946582813046,1.0000143320065786,0.00023507072962103507
1325.9016026509084,1325.9016026509084,0.9998115854826173,0.00023504710950203472
1325.9085470205937,1325.9085470205937,0.9997783719626749,0.00023501872170056558
1325.9154913903662,1325.9154913903662,1.0003116777241068,0.00023507288004890798
1325.9224357602377,1325.9224357602377,1.0001619343929156,0.00023506129321908343
1325.9293801301737,1325.9293801301737,1.000116595563169,0.00023506594107306975
1325.9363245002023,1325.9363245002023,0.9997413589430433,0.00023502778371727162
1325.9432688703068,1325.9432688703068,1.0003526882821923,0.00023504525448926782
1325.950213240499,1325.950213240499,0.9997389153888868,0.00023503389520673003
1325.9571576107662,1325.9571576107662,0.9996105971756275,0.00023499277445800055
1325.96521308038,1325.96521308038,0.99977992722009,0.00023497377546476012
1325.972435225635,1325.972435225635,1.0002079286782706,0.0002350538227936443
1325.9793795961643,1325.9793795961643,0.999893848934826,0.00023505827746651953
1325.9863239667634,1325.9863239667634,1.0001766951458546,0.00023509449113562163
1325.9932683374382,1325.9932683374382,1.0001920814637448,0.00023510432433362544
1326.000212708189,1326.000212708189,1.0004315081194453,0.00023516108957953157
1326.007157079021,1326.007157079021,1.0001650623883236,0.00023517831293664508
1326.014101449923,1326.014101449923,0.9999401236986325,0.00023517908768697348
1326.0210458208949,1326.0210458208949,0.9996593927811899,0.00023520432249610456
1326.0279901919366,1326.0279901919366,0.9995045349838575,0.00023525124130623697
1326.0349345630536,1326.0349345630536,0.9999125063532335,0.0002352875005501668
1326.0418789342461,1326.0418789342461,0.9998527498274454,0.0002352928795038939
1326.0488233055034,1326.0488233055034,1.0006469839857524,0.0002353680097862731
1326.0557676768299,1326.0557676768299,1.0002724253074367,0.0002353416653211874
1326.0627120482327,1326.0627120482327,0.9996519077460707,0.00023527287046517715
1326.0696564197049,1326.0696564197049,1.000060947143051,0.0002353295628255785
1326.0766007912353,1326.0766007912353,0.9999273711366271,0.00023535132452041815
1326.0835451628418,1326.0835451628418,1.000038714820761,0.0002353637433304021
1326.0904895345063,1326.0904895345063,0.9997619522042938,0.00023533429073542507
1326.0974339062404,1326.0974339062404,0.9997378463272744,0.000235355632622088
1326.1043782780391,1326.1043782780391,1.0006940448788841,0.0002354551248497961
1326.111322649895,1326.111322649895,1.0004149497583525,0.00023541776788923186
1326.1182670218218,1326.1182670218218,0.9999943140599712,0.00023539315858906235
1326.1252113938058,1326.1252113938058,0.9996573654311318,0.00023537045923645409
1326.1321557658725,1326.1321557658725,0.9996364747958209,0.000235363165481147
1326.1391001379732,1326.1391001379732,1.0003218642225196,0.00023541562816691225
1326.14604451015,1326.14604451015,0.999828893555625,0.00023540040549084747
1326.1529888823788,1326.1529888823788,1.0001014641954435,0.00023542626483838994
1326.1599332546778,1326.1599332546778,1.0003241887351835,0.00023544208959024393
1326.166877627029,1326.166877627029,0.9998969516620966,0.00023541373664723758
1326.1738219994381,1326.1738219994381,1.0003119381770458,0.00023544195212213382
1326.1807663719121,1326.1807663719121,0.9999237215727872,0.0002353947165797301
1326.1877107444438,1326.1877107444438,0.9996265131203369,0.00023535793123504372
1326.1946551170279,1326.1946551170279,0.9997743012711366,0.00023539380466645454
1326.201599489676,1326.201599489676,1.000056570331861,0.00023544998538292932
1326.208543862359,1326.208543862359,0.9999531681167859,0.00023539974093448197
1326.2154882351176,1326.2154882351176,1.0000698960390424,0.00023543393956249183
1326.2224326079229,1326.2224326079229,1.0006561457923868,0.00023548210871980157
1326.2293769807807,1326.2293769807807,0.9998476733595025,0.00023541034763433145
1326.2363213537024,1326.2363213537024,0.9997925242732911,0.0002353976973279898
1326.2432657266643,1326.2432657266643,0.9997661536581577,0.00023541348835254727
1326.2502100996855,1326.2502100996855,1.0002785090768094,0.0002354106520524623
1326.2571544727584,1326.2571544727584,0.9999850915496907,0.00023539991879625144
1326.2640988458782,1326.2640988458782,0.9997323652653275,0.0002353794816098643
1326.2710432190502,1326.2710432190502,1.0001778250602273,0.00023541959356254276
1326.2779875922802,1326.2779875922802,1.000470133498611,0.00023543996477142352
1326.284931965551,1326.284931965551,1.0003518622824543,0.0002354430207957849
1326.2918763388745,1326.2918763388745,0.9997182119835548,0.00023538536118018018
1326.2988207122448,1326.2988207122448,0.999959792456868,0.0002354265652035717
1326.3057650856665,1326.3057650856665,0.9997605796250273,0.00023536673187686893
1326.3127094591416,1326.3127094591416,0.9999294068500946,0.00023540745328453806
1326.3196538326624,1326.3196538326624,1.0000346749738926,0.00023542404854050256
1326.3265982062187,1326.3265982062187,1.0001351297207743,0.0002354370448758531
1326.3335425798273,1326.3335425798273,0.9997546272296912,0.00023542193893396674
1326.340486953494,1326.340486953494,0.9999846173473431,0.000235470238818217
1326.3485424269845,1326.3485424269845,0.9999852012974506,0.00023552466376635097
1326.3571534504442,1326.3571534504442,1.0002071854098014,0.00023554758063954283
1326.3640978242627,1326.3640978242627,1.0001894978326338,0.00023553718893440986
1326.3710421981098,1326.3710421981098,0.9998248746733145,0.00023552279128662826
1326.3779865720094,1326.3779865720094,1.0002306559379412,0.00023558294965014015
1326.384930945938,1326.384930945938,1.0000265863161237,0.00023557942173073115
1326.3918753199248,1326.3918753199248,0.999842592386738,0.0002355624747077308
1326.3988196939586,1326.3988196939586,0.9997248873778213,0.0002355730203401233
1326.4057640680207,1326.4057640680207,1.0000445656914998,0.00023560869657223506
1326.4127084421364,1326.4127084421364,0.9999340661225984,0.00023563979587339247
1326.41965281628,1326.41965281628,1.0002124781380812,0.00023567195298504717
1326.4265971904651,1326.4265971904651,1.0000799054553073,0.00023567201470231053
1326.4335415646904,1326.4335415646904,0.9998435257724954,0.00023566190312183217
1326.4404859389683,1326.4404859389683,1.0000851020090427,0.00023570190076688935
1326.4474303132756,1326.4474303132756,0.9996812336593205,0.00023564347809498063
1326.4543746876232,1326.4543746876232,1.00015362383211,0.00023571635252708144
1326.4613190620178,1326.4613190620178,1.0002753354725389,0.00023574308556184101
1326.4682634364353,1326.4682634364353,1.0000285546687793,0.0002357392119050044
1326.4752078108993,1326.4752078108993,0.9999893921035168,0.00023573520759009392
1326.4821521853987,1326.4821521853987,0.9998595873143283,0.00023573399422402262
1326.4890965599325,1326.4890965599325,0.9998669454318989,0.00023573286677441843
1326.4960409345133,1326.4960409345133,1.0000717367140828,0.00023574725530743057
1326.5029853091228,1326.5029853091228,1.0000174048211512,0.0002357548732900225
1326.5099296837677,1326.5099296837677,0.9997898079144573,0.000235771528940193
1326.5168740584588,1326.5168740584588,1.0001728289805252,0.00023585729825136714
1326.5238184331674,1326.5238184331674,1.000306560865143,0.00023586715128936202
1326.530762807917,1326.530762807917,0.9998181246505956,0.00023582382292074085
1326.537707182707,1326.537707182707,1.0003084711598214,0.0002359261801883326
1326.5446515575384,1326.5446515575384,0.9997424082210721,0.000235892012439681
1326.5515959323864,1326.5515959323864,0.9999471334835128,0.00023593903548846883
1326.5585403072757,1326.5585403072757,0.9997446795246162,0.00023593093220453102
1326.5654846821938,1326.5654846821938,0.9998168794165405,0.00023595960241597187
1326.5724290571468,1326.5724290571468,1.0000192948513176,0.00023596722679493522
1326.5793734321292,1326.5793734321292,1.0000053530091986,0.0002359891809014426
1326.586317807158,1326.586317807158,0.999811436830678,0.00023596044904465393
1326.5932621822044,1326.5932621822044,1.0000362589416483,0.0002359901738487085
1326.6002065572857,1326.6002065572857,1.0002461841744643,0.00023602851649990168
1326.6071509324015,1326.6071509324015,0.9999383559857968,0.0002360033656471246
1326.6140953075414,1326.6140953075414,0.9998042885624192,0.0002359817005623879
1326.621039682721,1326.621039682721,1.0000745297048874,0.00023604123175460643
1326.627984057925,1326.627984057925,1.0001900657127436,0.00023603805470548354
1326.6349284331573,1326.6349284331573,1.000120230099189,0.00023602510978074543
1326.641872808419,1326.641872808419,0.9997475948621777,0.00023598314925478273
1326.6488171837154,1326.6488171837154,1.0000237375493621,0.0002360019517440499
1326.6557615590352,1326.6557615590352,1.0000321419557463,0.00023596771035685107
1326.6627059343905,1326.6627059343905,0.9998653505851214,0.0002359477650843784
1326.669650309768,1326.669650309768,0.9999770278680467,0.00023592992516805296
1326.6765946851697,1326.6765946851697,0.9998707047535198,0.00023590135150238856
1326.6835390606175,1326.6835390606175,1.0002516395505132,0.00023593582348095522
1326.6918723111735,1326.6918723111735,1.0006709711666377,0.0002359542234053
1326.6988166866681,1326.6988166866681,1.0000190894403018,0.00023585772390843088
1326.7057610621914,1326.7057610621914,1.0000265763972758,0.0002358049964248219
1326.7135387628186,1326.7135387628186,0.9998959388837807,0.00023579169269956598
1326.7210386884346,1326.7210386884346,0.999927398888682,0.00023576912080796914
1326.7279830640455,1326.7279830640455,0.9996979934603551,0.00023571771449006564
1326.734927439668,1326.734927439668,1.0000691642760113,0.0002357565431941736
1326.7418718153313,1326.7418718153313,0.9999938857206553,0.0002357036147897474
1326.7488161910119,1326.7488161910119,1.000028135091976,0.000235705677452382
1326.7557605667216,1326.7557605667216,0.9998228893092993,0.00023567473418930558
1326.7627049424548,1326.7627049424548,1.0000163051337858,0.000235657998880087
1326.7696493182111,1326.7696493182111,1.0000476955017819,0.0002356172312827926
1326.7765936939966,1326.7765936939966,1.0000216480995145,0.00023560763710886952
1326.7835380697998,1326.7835380697998,0.9999271742271281,0.00023562128668874562
1326.7904824456323,1326.7904824456323,1.0002908395260146,0.0002356628768269163
1326.7974268214814,1326.7974268214814,1.0000018636215309,0.00023562215370318516
1326.8043711973605,1326.8043711973605,1.0003339626471177,0.00023567252406815641
1326.8113155732617,1326.8113155732617,1.0002018996119166,0.0002356489794801258
1326.8182599491754,1326.8182599491754,0.9996321776457562,0.00023557212482211188
1326.825204325124,1326.825204325124,0.9996108811061479,0.00023559971760308434
1326.8321487010903,1326.8321487010903,1.00002389779907,0.00023564166388044807
1326.8390930770852,1326.8390930770852,0.9997232197968486,0.00023558333075920527
1326.8460374530919,1326.8460374530919,0.9998057107343129,0.0002355774132585493
1326.852981829122,1326.852981829122,1.000074011766112,0.00023558934997918707
1326.8599262051753,1326.8599262051753,1.0003243043230932,0.00023561651935647543
1326.866870581252,1326.866870581252,1.0004810346814677,0.00023560136153899318
1326.87381495734,1326.87381495734,1.0002692940889317,0.00023555145526146315
1326.8807593334573,1326.8807593334573,0.9998322892252647,0.0002354747416515994
1326.887703709598,1326.887703709598,0.9998743745291174,0.00023544309391090312
1326.8946480857498,1326.8946480857498,0.9999326402724205,0.00023539066426842725
1326.9015924619257,1326.9015924619257,1.0000336900688327,0.00023537476118476209
1326.9085368381243,1326.9085368381243,0.9997693986776242,0.00023529161290760137
1326.915481214329,1326.915481214329,0.9998730889453906,0.00023523623509688393
1326.9224255905688,1326.9224255905688,0.9998892609970097,0.0002352077716612201
1326.9293699668199,1326.9293699668199,0.9998963506322337,0.00023516232684717012
1326.9363143431,1326.9363143431,1.0005437572867604,0.00023519751050313714
1326.9432587193974,1326.9432587193974,0.9999671365593386,0.00023509645599870897
1326.9502030956958,1326.9502030956958,0.9998774317622721,0.00023504309133203752
1326.9571474720221,1326.9571474720221,0.9998962067688136,0.0002349986356726071
1326.964091848367,1326.964091848367,1.0001118712804886,0.00023497478463535944
1326.9710362247286,1326.9710362247286,1.000259616266897,0.00023493647292851172
1326.9779806011077,1326.9779806011077,0.9997510388102434,0.00023486806408869938
1326.9849249775104,1326.9849249775104,0.9998308671903231,0.00023483543230832827
1326.9918693539246,1326.9918693539246,1.0000007012881416,0.0002348486240880352
1326.998813730362,1326.998813730362,1.000025335091014,0.00023483622336901763
1327.0057581068054,1327.0057581068054,1.0000180754260302,0.00023481226847816192
1327.0127024832718,1327.0127024832718,1.0001994822921698,0.00023481359206468954
1327.0196468597617,1327.0196468597617,0.999973091424871,0.00023475466623858768
1327.0265912362572,1327.0265912362572,0.9998683443319519,0.00023475737277518387
1327.0335356127764,1327.0335356127764,0.9998051532096278,0.00023477653261347878
1327.0404799893008,1327.0404799893008,1.0004269913438115,0.00023480243021976616
1327.047424365849,1327.047424365849,0.999591851200238,0.00023477070938380962
1327.0543687424088,1327.0543687424088,1.0002443572901807,0.00023480312981030777
