time,time,flux,flux_err
1517.3639712277818,1517.3639712277818,1.0001272455594217,0.0005315617043714336
1517.3741566149608,1517.3741566149608,0.9997568547402125,0.0005227678627411976
1517.3824901141418,1517.3824901141418,1.000001225532548,0.0005160817238941584
1517.3901291554214,1517.3901291554214,0.9995124618198863,0.0004658656857959674
1517.3979070888415,1517.3979070888415,0.9990321335073384,0.00046103870610134275
1517.405407239246,1517.405407239246,0.9998956418403097,0.0004570674160240107
1517.4123518233375,1517.4123518233375,0.9993550807742275,0.0004535444773536284
1517.419296407709,1517.419296407709,0.999451376847891,0.00045013008986282836
1517.4262409923601,1517.4262409923601,1.000143190339361,0.00044748488660405954
1517.4331855773364,1517.4331855773364,0.9994312343169838,0.00044449484672354835
1517.440130162593,1517.440130162593,1.0001727272223708,0.0004419179712744822
1517.4470747481516,1517.4470747481516,1.0001912246772637,0.0004397798592463667
1517.4540193339897,1517.4540193339897,0.9999337152126089,0.0004374713838748791
1517.4609639201074,1517.4609639201074,1.0002685870559458,0.0004355651537423265
1517.467908506458,1517.467908506458,0.9998258069690034,0.0004335162070696185
1517.4748530931342,1517.4748530931342,1.000301678783798,0.0004317910254202162
1517.4817976800202,1517.4817976800202,1.0000554916795148,0.00043008020708150017
1517.4887422671854,1517.4887422671854,0.9999943064077593,0.0004286310286298659
1517.4956868546071,1517.4956868546071,0.9993630845485295,0.00042688728340290914
1517.5026314422614,1517.5026314422614,1.0000017506645453,0.00042565831166372335
1517.509576030172,1517.509576030172,0.9999528206817174,0.0004241862478444929
1517.5165206182921,1517.5165206182921,1.0000253032070752,0.0004229012089230949
1517.5234652066679,1517.5234652066679,0.999752438941439,0.0004214590512783391
1517.5304097952767,1517.5304097952767,1.0006184549083028,0.0004204259898396063
1517.5373543840951,1517.5373543840951,0.9998079592759304,0.0004190726929074266
1517.5442989731232,1517.5442989731232,0.9994916094863981,0.0004180120283149904
1517.551243562361,1517.551243562361,0.9997425348858465,0.00041695147838834
1517.5581881518544,1517.5581881518544,1.000176811803059,0.00041621767364203406
1517.565132741511,1517.565132741511,1.0004579452516489,0.0004150661517446458
1517.5720773314006,1517.5720773314006,0.9997893995755629,0.00041404893045902946
1517.5790219214527,1517.5790219214527,1.000542156428668,0.00041317602595909145
1517.585966511715,1517.585966511715,1.0000032732812816,0.0004122874048395257
1517.5929111022099,1517.5929111022099,1.0006168633268746,0.00041182443521577415
1517.599855692821,1517.599855692821,0.9995322064634943,0.00041085897549317734
1517.6068002836882,1517.6068002836882,0.9998279678128155,0.00041027814066905933
1517.613744874649,1517.613744874649,0.9996685684167559,0.000409457324053019
1517.6206894658424,1517.6206894658424,0.9999475787202995,0.00040902960384206195
1517.6276340572217,1517.6276340572217,0.999886030392303,0.0004082460979360857
1517.6345786487411,1517.6345786487411,1.0006742558606896,0.0004077926381513274
1517.6415232404233,1517.6415232404233,1.0005430962305666,0.0004073390211147207
1517.648467832292,1517.648467832292,1.0004651400279911,0.0004066643263576008
1517.6554124243235,1517.6554124243235,0.9999537222518405,0.0004062491493466511
1517.6623570164713,1517.6623570164713,0.999884345648374,0.00040544243591503
1517.6693016088288,1517.6693016088288,0.9998523738955398,0.0004050110803906693
1517.6762462013025,1517.6762462013025,1.0006673102457124,0.00040464543580276977
1517.6831907939395,1517.6831907939395,0.9992953925294084,0.00040382080433245296
1517.6901353866697,1517.6901353866697,0.9995781414124402,0.00040324256609439483
1517.6970799796325,1517.6970799796325,1.0001945707029463,0.0004027827744956136
1517.7040245726882,1517.7040245726882,1.000353674848089,0.0004021492886137698
1517.710969165861,1517.710969165861,0.9999178507978058,0.00040144792930936794
1517.717913759196,1517.717913759196,1.0003469840265342,0.0004010047534292002
1517.724858352648,1517.724858352648,1.0005575609973985,0.0004005679747668523
1517.7318029462394,1517.7318029462394,0.9997778329319551,0.00039990991586548073
1517.7387475399473,1517.7387475399473,1.0001566673745574,0.00039932985734317424
1517.7456921337716,1517.7456921337716,0.9994096975778479,0.0003986762139948097
1517.7526367277355,1517.7526367277355,0.9997614578105483,0.00039828587965541065
1517.7595813218159,1517.7595813218159,0.9996461923578069,0.0003976760831130963
1517.7665259159899,1517.7665259159899,0.9998649831981483,0.00039735409613632773
1517.7734705103028,1517.7734705103028,1.0001261785209568,0.0003969564498623317
1517.7804151047326,1517.7804151047326,1.0000116129584435,0.0003964795317876788
1517.7873596992322,1517.7873596992322,1.000815882531302,0.00039607307845002045
1517.7943042938944,1517.7943042938944,0.9995547649740262,0.0003955764917032872
1517.8012488886036,1517.8012488886036,0.9996791865789809,0.00039516259875005475
1517.8081934834759,1517.8081934834759,0.9999361497863049,0.0003946740428954919
1517.8151380783945,1517.8151380783945,1.0005063322002454,0.00039448315719584043
1517.8220826734525,1517.8220826734525,1.0001111429212384,0.00039392682283750897
1517.8290272686272,1517.8290272686272,0.9992306493540049,0.00039350869094970705
1517.8359718638253,1517.8359718638253,0.9998272297132255,0.0003933226465931503
1517.8429164591396,1517.8429164591396,1.000320141097203,0.0003930612614099537
1517.849861054547,1517.849861054547,1.0005681487299438,0.0003927631515992373
1517.856805650048,1517.856805650048,0.9997891636391035,0.00039221990293370027
1517.8637502456418,1517.8637502456418,1.0001432768802778,0.00039205703745120687
1517.8706948413285,1517.8706948413285,0.99977390967901,0.0003917698363875268
1517.8776394371089,1517.8776394371089,1.000109881309686,0.00039153887137867584
1517.8845840329354,1517.8845840329354,0.9998469031885021,0.00039122783262499766
1517.891528628855,1517.891528628855,1.00010604905644,0.0003909701986800935
1517.8984732248914,1517.8984732248914,0.9994865272233329,0.0003906904479044749
1517.905417820951,1517.905417820951,1.000761891867784,0.00039051321390974185
1517.9123624171039,1517.9123624171039,1.0004853713006239,0.00039045024942408076
1517.9193070133492,1517.9193070133492,0.9999617280842232,0.00039000620587727647
1517.9262516096649,1517.9262516096649,0.9997110478864297,0.0003898448559590146
1517.9331962060269,1517.9331962060269,0.999853795840824,0.0003898534177349216
1517.940696370168,1517.940696370168,1.0001930246874793,0.00038959281238916995
1517.948474318303,1517.948474318303,0.999746885228272,0.0003894896593752652
1517.9554189148748,1517.9554189148748,0.999723137568342,0.00038907144926060425
1517.9623635115397,1517.9623635115397,1.0004440038107205,0.00038911314170429664
1517.9693081082746,1517.9693081082746,1.000236446305459,0.00038898078121608296
1517.9762527050552,1517.9762527050552,1.0002819191794126,0.00038901604848053274
1517.9831973019068,1517.9831973019068,0.999468805433591,0.00038862362808532013
1517.9901418987579,1517.9901418987579,1.0000974701657626,0.00038847276191989003
1517.9970864957488,1517.9970864957488,0.9995052425040365,0.00038822763543568453
1518.0040310927861,1518.0040310927861,1.0001337824278609,0.00038839574372008366
1518.0109756898698,1518.0109756898698,0.9997440523747164,0.00038812002176790133
1518.0179202869772,1518.0179202869772,1.00030346862884,0.00038801291761346316
1518.024864884154,1518.024864884154,1.0002098075751014,0.00038806890468523844
1518.0318094813779,1518.0318094813779,0.9994033494422345,0.00038771672584980786
1518.0387540786946,1518.0387540786946,1.0000196105115382,0.0003875692927976807
1518.0456986760114,1518.0456986760114,0.9996064929974995,0.00038763424101694743
1518.052643273398,1518.052643273398,1.000177846499243,0.00038748824032179416
1518.0595878708311,1518.0595878708311,0.9998754595611633,0.0003871929638064499
1518.0665324682875,1518.0665324682875,1.00045136162749,0.00038717167498092603
1518.073477065814,1518.073477065814,0.9999910435235693,0.0003869588381020905
1518.0804216634103,1518.0804216634103,1.0002948529767097,0.0003870885112982867
1518.087366261006,1518.087366261006,1.0000631995631042,0.0003867424980033494
1518.0943108586723,1518.0943108586723,1.000001596185197,0.0003869036028291768
1518.101255456338,1518.101255456338,0.9996527088211875,0.00038642446986179955
1518.108200054097,1518.108200054097,0.9992687967427913,0.00038631471080950854
1518.1151446518797,1518.1151446518797,1.000244150777306,0.0003864912069235913
1518.1220892496856,1518.1220892496856,1.0002869111049946,0.0003861361239034951
1518.1290338475376,1518.1290338475376,1.0004385588532698,0.00038613758285189136
1518.1359784454135,1518.1359784454135,0.999936571697987,0.0003858239887570687
1518.1429230433355,1518.1429230433355,1.0000083228653367,0.0003858649396809943
1518.1498676413037,1518.1498676413037,0.9996273200787626,0.00038568588023418825
1518.1568122392728,1518.1568122392728,0.9996995269891743,0.0003853944594156128
1518.1637568372876,1518.1637568372876,1.0003271703009464,0.00038535993850554373
1518.170701435373,1518.170701435373,0.9998958858744131,0.00038514252503395023
1518.1776460334818,1518.1776460334818,0.9997812144675688,0.00038518184086764923
1518.1845906315898,1518.1845906315898,1.0003196308433078,0.00038509263196320536
1518.1915352296983,1518.1915352296983,1.0004468077694062,0.00038514735585960596
1518.1984798278997,1518.1984798278997,1.000493550645753,0.00038483600267073803
1518.2054244261012,1518.2054244261012,0.9996001333735485,0.0003848211109193045
1518.212369024326,1518.212369024326,0.9997714323005183,0.0003849089081339542
1518.2193136225742,1518.2193136225742,0.9999195448578831,0.00038451993237965894
1518.2262582208687,1518.2262582208687,0.9990863224695256,0.00038449579902229277
1518.2332028191638,1518.2332028191638,1.0002759446752338,0.00038455130425719405
1518.2401474175047,1518.2401474175047,0.9998708274007806,0.00038464036225246024
1518.247092015869,1518.247092015869,1.0005527963410759,0.00038451072480414803
1518.2540366142105,1518.2540366142105,1.0003797156630303,0.0003846395956771776
1518.2609812126213,1518.2609812126213,1.000228507359012,0.00038454743804112925
1518.2690369468232,1518.2690369468232,1.000046851439646,0.0003844094577669153
1518.276259329205,1518.276259329205,1.0000492636277252,0.00038453641269955454
1518.2832039276623,1518.2832039276623,0.9992537556262997,0.0003841193635663363
1518.2901485261439,1518.2901485261439,1.0001148901890242,0.00038401182630453203
1518.2970931246477,1518.2970931246477,0.9999984637579618,0.00038403482314416394
1518.304037723175,1518.304037723175,0.9993204432729303,0.0003838190720138292
1518.3118156735454,1518.3118156735454,1.00053012711865,0.00038396059503151617
1518.3193158399913,1518.3193158399913,1.0001337769350878,0.0003837395126426859
1518.3262604385886,1518.3262604385886,1.0001694154463647,0.00038398817352259536
1518.3332050371628,1518.3332050371628,1.0003276408987072,0.00038374319265167063
1518.3401496357599,1518.3401496357599,1.0000549774522975,0.00038379674855093266
1518.3470942344275,1518.3470942344275,0.9995624548007449,0.00038353215521468313
1518.3540388330016,1518.3540388330016,0.9994345903432492,0.0003835908168328689
1518.3609834316917,1518.3609834316917,1.0004992756757767,0.0003834780185384572
1518.3679280303827,1518.3679280303827,0.9997608894175801,0.0003833903107552524
1518.3748726290728,1518.3748726290728,0.9999965706597036,0.0003833235817418898
1518.381817227763,1518.381817227763,1.0002262009529457,0.00038340470788732965
1518.3887618264537,1518.3887618264537,1.0004211231150062,0.00038342042929622084
1518.395706425144,1518.395706425144,1.0003285927490986,0.0003831761208976628
1518.4026510238343,1518.4026510238343,0.9994555365486779,0.00038309844695168227
1518.409873406496,1518.409873406496,0.9997541541467913,0.0003830798256630662
1518.41792914107,1518.41792914107,0.9999661721982586,0.00038325488908057194
1518.4248737397606,1518.4248737397606,0.9997985910569989,0.00038292088688514115
1518.4318183385672,1518.4318183385672,1.0002485385135909,0.0003832134206381824
1518.4387629373043,1518.4387629373043,0.9998798897373812,0.00038268592989904303
1518.4457075360647,1518.4457075360647,1.0001851800316248,0.0003829580161611143
1518.4526521348714,1518.4526521348714,1.0001879603278112,0.00038296961648126056
1518.4604300854749,1518.4604300854749,0.9996119550922418,0.00038267758043768896
1518.4679302521768,1518.4679302521768,1.0002013537587031,0.0003826801436132577
1518.4748748509837,1518.4748748509837,1.0001123461744086,0.00038293476261526654
1518.4818194497673,1518.4818194497673,0.999779387816125,0.00038270763011704815
1518.4887640485742,1518.4887640485742,1.000116578547044,0.0003829257422818059
1518.495708647381,1518.495708647381,0.9998912510599093,0.000382563625640565
1518.5026532462114,1518.5026532462114,1.0002708146965067,0.0003825247949913038
1518.5095978450179,1518.5095978450179,0.9999750539139234,0.0003825854632015731
1518.5165424438246,1518.5165424438246,0.9997918599146658,0.00038259664341849017
1518.5234870426552,1518.5234870426552,0.999467199837768,0.0003824743482054554
1518.5304316414617,1518.5304316414617,1.0003079057518587,0.00038281232122001614
1518.537376240292,1518.537376240292,1.0002827341125349,0.00038265846775001366
1518.544320839122,1518.544320839122,0.9999305877413726,0.0003825333106333519
1518.5512654379525,1518.5512654379525,1.0003496854984917,0.00038259224383813936
1518.5582100367592,1518.5582100367592,1.000305535023777,0.00038264823407450183
1518.5651546355894,1518.5651546355894,0.9999126971650816,0.00038265645874611915
1518.5720992344197,1518.5720992344197,0.9998386319811219,0.00038259220926572157
1518.5790438332265,1518.5790438332265,0.9997557106130965,0.0003825396960908152
1518.5859884320564,1518.5859884320564,0.9997509761981522,0.00038238402914256227
1518.5929330308868,1518.5929330308868,0.9996989572320409,0.0003825640643589982
1518.5998776296938,1518.5998776296938,1.0000733259484906,0.0003825396617633091
1518.6068222285235,1518.6068222285235,0.9996722446345256,0.0003823818629969551
1518.6137668273307,1518.6137668273307,1.0000275487229928,0.0003827139753657774
1518.6207114261374,1518.6207114261374,1.0007433696670855,0.00038259082302032006
1518.6276560249441,1518.6276560249441,1.0005796067365609,0.00038274165928115015
1518.6346006237513,1518.6346006237513,0.9999878009682215,0.00038273463372225157
1518.641545222558,1518.641545222558,0.999790249711787,0.0003825860000758415
1518.6484898213416,1518.6484898213416,0.9999211424640059,0.0003825274728995018
1518.6554344201252,1518.6554344201252,0.9999372504904909,0.0003825215791244752
1518.662379018932,1518.662379018932,0.9995929557125128,0.0003826528949261319
1518.6693236177157,1518.6693236177157,0.9995929233606278,0.00038241730629817494
1518.6762682164992,1518.6762682164992,1.000190662635521,0.0003826052070371554
1518.683212815236,1518.683212815236,1.000045486796638,0.0003827711002264348
1518.6901574140431,1518.6901574140431,1.000107933348232,0.00038264014443170353
1518.69710201278,1518.69710201278,1.000113170720743,0.0003826311347110403
1518.7040466115404,1518.7040466115404,1.000009723660004,0.00038260317871877017
1518.7109912102774,1518.7109912102774,1.0002017814647963,0.0003825231365854584
1518.7179358090375,1518.7179358090375,1.0001389450167053,0.00038232973808528787
1518.7248804077283,1518.7248804077283,0.999939919337718,0.0003824734004254032
1518.7318250064884,1518.7318250064884,0.9999511424382936,0.00038242050966671434
1518.7387696052256,1518.7387696052256,1.0001840081288444,0.00038254172645334303
1518.7457142039161,1518.7457142039161,0.9993117744602712,0.00038247439643341967
1518.7526588026062,1518.7526588026062,1.0004635532625428,0.0003826325054450494
1518.7596034012968,1518.7596034012968,0.999791227973102,0.00038255445330398366
1518.7665479999873,1518.7665479999873,0.9997340102349235,0.00038271431942171204
1518.7734925986776,1518.7734925986776,1.0004712093200598,0.00038262833514647317
1518.7804371972984,1518.7804371972984,1.0002072866275475,0.0003826930245720978
1518.787381795942,1518.787381795942,0.9996275603256313,0.00038246112980938954
1518.7943263946327,1518.7943263946327,0.9996968621277945,0.00038271939571820436
1518.8012709932066,1518.8012709932066,0.9998588635021644,0.0003825989464076687
1518.8082155918735,1518.8082155918735,1.0003892250936623,0.0003828554566074061
1518.815160190471,1518.815160190471,1.0003196994434957,0.00038254107777025716
1518.8221047890686,1518.8221047890686,1.0002118654274068,0.00038253673789903874
1518.8290493876657,1518.8290493876657,0.9999976128065757,0.0003826230920688881
1518.83599398624,1518.83599398624,0.9996124779676044,0.000382473081521846
1518.8429385848137,1518.8429385848137,1.0000642558624906,0.00038273376142458805
1518.8498831833645,1518.8498831833645,0.9994580591675859,0.0003826101629351817
1518.856827781892,1518.856827781892,0.9994740009559463,0.00038253218801815344
1518.863772380443,1518.863772380443,1.000971374530016,0.0003827287681404009
1518.8707169789468,1518.8707169789468,1.0001777822719011,0.0003828500356768453
1518.8776615774511,1518.8776615774511,0.9998167219583358,0.0003825929334039484
1518.884606175932,1518.884606175932,1.0000497350591278,0.00038256454345717255
1518.891550774436,1518.891550774436,0.999862288287175,0.0003825159186600075
1518.898495372894,1518.898495372894,1.0001631758276723,0.0003826978325742295
1518.9054399713511,1518.9054399713511,1.0003115226186137,0.0003826556296245462
1518.9123845697854,1518.9123845697854,1.000043550675081,0.00038262164111838514
1518.91932916822,1518.91932916822,0.9996310581990053,0.00038251731574784814
1518.9262737666309,1518.9262737666309,0.9999797287038028,0.0003826735594402005
1518.933218365042,1518.933218365042,0.9996889124197278,0.000382665438865948
1518.9401629634065,1518.9401629634065,0.999755135344459,0.0003823914549337732
1518.9471075617707,1518.9471075617707,0.9999300152222996,0.0003826182258445308
1518.9540521601355,1518.9540521601355,0.9999896665050102,0.0003825192211673752
1518.960996758477,1518.960996758477,1.000957530509897,0.00038251352668438796
1518.9679413567715,1518.9679413567715,1.0001961657299645,0.00038262075860736916
1518.974885955113,1518.974885955113,1.0003800452529035,0.00038270707309262845
1518.9818305533838,1518.9818305533838,1.0002941496560334,0.00038258369705076697
1518.988775151655,1518.988775151655,0.9997275871082888,0.0003825193739901942
1518.995719749927,1518.995719749927,0.9996337007753979,0.0003826167616051252
1519.0026643481747,1519.0026643481747,0.9999581397123928,0.0003824150201141742
1519.0096089463993,1519.0096089463993,0.999745679099675,0.00038245410087788803
1519.016553544601,1519.016553544601,0.9996395107980292,0.00038244020041199386
1519.0234981428025,1519.0234981428025,1.0002709579459919,0.0003825213209821143
1519.0304427409806,1519.0304427409806,1.0001630148884388,0.00038252618068966256
1519.0373873391356,1519.0373873391356,0.9999117010167782,0.000382439166979934
1519.044331937244,1519.044331937244,1.000185194610485,0.00038256332300860087
1519.051276535422,1519.051276535422,1.000700031643855,0.00038278317053924466
1519.0582211335538,1519.0582211335538,0.9997630458999135,0.00038259498466661283
1519.065165731569,1519.065165731569,0.9994292951382093,0.0003825670962767289
1519.0721103296776,1519.0721103296776,0.9997810021228315,0.0003825591340752999
1519.0790549277622,1519.0790549277622,1.0002811861628833,0.00038257923676758126
1519.0859995257777,1519.0859995257777,1.0004590958570472,0.0003827520156184586
1519.0929441237931,1519.0929441237931,0.999696450794171,0.00038265894378801396
1519.099888721808,1519.099888721808,0.9999409904209703,0.00038258577375944243
1519.1068333198002,1519.1068333198002,0.9999234142286971,0.00038262543692971576
1519.1137779177689,1519.1137779177689,1.0000907554376832,0.0003827092732503042
1519.1207225156909,1519.1207225156909,1.000356712168619,0.0003826939649870417
1519.1276671136127,1519.1276671136127,1.000129826901838,0.0003824580538261971
