time,time,flux,flux_err
1354.1173173991021,1354.1173173991021,0.9999613143543962,0.00026551452738772676
1354.125419493944,1354.125419493944,1.0000551495590337,0.00024241926136538543
1354.1323641466054,1354.1323641466054,1.0001266549311505,0.00024239947801147783
1354.1393087991742,1354.1393087991742,1.0000264197250843,0.00024240623953859422
1354.1462534516959,1354.1462534516959,1.0000003581537331,0.00024233731263329758
1354.1531981040316,1354.1531981040316,0.9997405704574222,0.00024233465576592783
1354.1601427563207,1354.1601427563207,1.0001948618673624,0.00024232452051651518
1354.1670874086099,1354.1670874086099,0.9996923675434509,0.00024227490154951286
1354.1740320607591,1354.1740320607591,0.9998592814195586,0.00024227854336587913
1354.180976712816,1354.180976712816,1.0001045846983576,0.0002422699823973791
1354.1879213647321,1354.1879213647321,1.0004306392277669,0.00024231661275950317
1354.1948660166024,1354.1948660166024,0.9998818382511716,0.0002422732415923321
1354.2018106683793,1354.2018106683793,0.999911022009532,0.00024227165152335936
1354.2087553200631,1354.2087553200631,0.9997660785423357,0.00024225879119288643
1354.2156999717001,1354.2156999717001,1.0001385023029643,0.00024231188101754667
1354.2226446231978,1354.2226446231978,0.9998967965152111,0.0002422636514108828
1354.2295892746017,1354.2295892746017,1.000200404807614,0.00024233068801782944
1354.2365339259134,1354.2365339259134,1.0003303437487152,0.0002423191341454797
1354.2434785772246,1354.2434785772246,0.9995646805219678,0.00024223961560399925
1354.2504232283961,1354.2504232283961,0.9997551228091291,0.00024229027689113064
1354.2573678793347,1354.2573678793347,1.0004520489853581,0.00024235191334034118
1354.2643125303664,1354.2643125303664,0.9998992764155229,0.00024228579908467545
1354.2712571812121,1354.2712571812121,0.9998886774638228,0.00024225874002936032
1354.278201832011,1354.278201832011,0.9997242875826835,0.00024228130938509234
1354.2851464826704,1354.2851464826704,1.000192011965129,0.00024234029044056812
1354.29209113333,1354.29209113333,0.9999261805325773,0.00024230018126693512
1354.2990357838025,1354.2990357838025,1.0003876125535371,0.00024235364426157093
1354.305980434229,1354.305980434229,0.9996407139897112,0.00024229069862633876
1354.3129250845627,1354.3129250845627,1.0002920640733213,0.0002423439939354428
1354.3198697348028,1354.3198697348028,1.0002282507666407,0.00024234799376880056
1354.3268143849498,1354.3268143849498,1.0001125997020865,0.00024231207186535398
1354.3337590350504,1354.3337590350504,0.9999013653472597,0.00024231428600986074
1354.3407036850574,1354.3407036850574,0.9994240227383845,0.00024223884722311215
1354.3476483348325,1354.3476483348325,0.9999367648673105,0.0002423178744302062
1354.3545929846532,1354.3545929846532,1.000003932848379,0.00024231115042181155
1354.3615376343814,1354.3615376343814,0.9997623461770679,0.00024231599402770105
1354.3684822839234,1354.3684822839234,1.000257158107797,0.0002423452476102438
1354.3754269334647,1354.3754269334647,0.9999539584955557,0.00024230103167829854
1354.3823715829603,1354.3823715829603,0.999914515397303,0.00024234414146788184
1354.3893162322224,1354.3893162322224,1.0007098089727324,0.00024240902568230938
1354.396260881438,1354.396260881438,1.0003599772197833,0.00024239088309419525
1354.4032055306538,1354.4032055306538,1.0003046035617538,0.00024238803363780796
1354.41015017973,1354.41015017973,0.9998829295543412,0.00024236683105669112
1354.4170948286196,1354.4170948286196,0.9965120822981705,0.00024197325578947736
1354.4240394776493,1354.4240394776493,0.9916498981589836,0.00024148767779809058
1354.430984126399,1354.430984126399,0.9904104850812075,0.00024134995333801833
1354.4379287750096,1354.4379287750096,0.9907860960898744,0.00024137820263058315
1354.4448734236664,1354.4448734236664,0.9898834377217811,0.0002412624131723651
1354.4518180721839,1354.4518180721839,0.9898073768417053,0.00024126990923963037
1354.458762720608,1354.458762720608,0.9896992933796795,0.00024122921071313016
1354.4657073689857,1354.4657073689857,0.9896668909318775,0.00024123097266685222
1354.4726520171769,1354.4726520171769,0.9901197816384524,0.00024129072278338985
1354.4795966653685,1354.4795966653685,0.9901943572882539,0.00024128933357707704
1354.486541313466,1354.486541313466,0.9904818441689244,0.000241331671358968
1354.4934859614252,1354.4934859614252,0.9922293391531355,0.00024152792619367954
1354.500430609337,1354.500430609337,0.9983668608872474,0.00024219039711507055
1354.5073752571554,1354.5073752571554,1.0003630393611482,0.000242375392134255
1354.5143199047882,1354.5143199047882,0.9999170832993933,0.00024234844567061806
1354.5212645524207,1354.5212645524207,0.9999074487456079,0.0002422937624331482
1354.5282092000532,1354.5282092000532,1.0002292908446102,0.00024235039877623242
1354.5351538474529,1354.5351538474529,1.0002082808257644,0.00024232549804439045
1354.542098494806,1354.542098494806,0.9999885422437698,0.00024228382474254036
1354.5490431421126,1354.5490431421126,0.9995841880029964,0.00024225129658284535
1354.555987789233,1354.555987789233,1.0001010255279605,0.0002422833625143415
1354.5629324363995,1354.5629324363995,0.9999229723226781,0.00024227877712483764
1354.5698770833337,1354.5698770833337,0.9999894860215921,0.00024229241784318097
1354.5768217303141,1354.5768217303141,0.999832364769085,0.00024225934865343144
1354.5837663771085,1354.5837663771085,0.9999858259005745,0.00024227528812416897
1354.5907110238563,1354.5907110238563,1.000113374767657,0.00024229088552845673
1354.5976556705111,1354.5976556705111,1.0001804659664946,0.00024230718682858435
1354.604600317026,1354.604600317026,0.999930377068145,0.00024223510963141429
1354.611544963494,1354.611544963494,1.0004298098873545,0.0002422730954892497
1354.6184896099624,1354.6184896099624,0.9996627638763351,0.00024222805903246505
1354.6254342562447,1354.6254342562447,0.9997120624089357,0.0002422447245878512
1354.6323789024802,1354.6323789024802,0.999884992169104,0.00024224925735785472
1354.639323548576,1354.639323548576,1.0001198933168118,0.00024226609270635476
1354.6462681946255,1354.6462681946255,1.0000627705199943,0.00024226567153104363
1354.6532128406277,1354.6532128406277,1.0004210243924363,0.0002422991571557902
1354.6601574864446,1354.6601574864446,1.000417896213183,0.00024233013915132563
1354.6671021322145,1354.6671021322145,0.9994114939652159,0.00024222313039437858
1354.674046777891,1354.674046777891,0.9995884850867661,0.0002422472986742097
1354.6809914235214,1354.6809914235214,1.0001830971162744,0.00024230668733173704
1354.6879360690582,1354.6879360690582,0.99998088097552,0.00024227300759874739
1354.6948807145022,1354.6948807145022,0.9997871619120895,0.0002422700395387522
1354.7018253598994,1354.7018253598994,1.0005021133329859,0.00024232023090850239
1354.7087700051572,1354.7087700051572,0.9996503879808134,0.000242216439915757
1354.7157146502752,1354.7157146502752,1.0001181006998858,0.000242277037455861
1354.7226592953932,1354.7226592953932,1.0002922004942474,0.00024229443484615412
1354.7296039403714,1354.7296039403714,0.9997950963719531,0.0002422142669570151
1354.7365485853031,1354.7365485853031,0.999716453360507,0.00024224751394093737
1354.7434932301417,1354.7434932301417,1.0001244125261741,0.00024227763736188072
1354.7504378748868,1354.7504378748868,1.0000153357172035,0.00024223283455903307
1354.757382519586,1354.757382519586,1.000225244613485,0.0002422825925954383
1354.764327164145,1354.764327164145,1.0000640170780453,0.0002422446736578719
1354.7712718086577,1354.7712718086577,1.0000175895957715,0.00024226231549233368
1354.778216453077,1354.778216453077,0.9999056281857619,0.00024227167008995793
1354.7851610974499,1354.7851610974499,0.9997878493261851,0.00024224063362168242
1354.7921057416365,1354.7921057416365,1.0001961079768997,0.00024229058552846842
1354.7990503857766,1354.7990503857766,1.0000255526771356,0.0002422769182824905
1354.8059950299169,1354.8059950299169,1.0001256341897287,0.00024231446681123822
1354.8129396738702,1354.8129396738702,0.999823304990373,0.00024227112002113757
1354.819884317824,1354.819884317824,0.9999788695454589,0.0002422568319905023
1354.8268289616385,1354.8268289616385,0.9997525427634845,0.00024223968615644616
1354.833773605406,1354.833773605406,0.9999922903972169,0.00024226198264804796
1354.8407182490337,1354.8407182490337,0.9998724333696124,0.00024225240689348246
1354.8476628926153,1354.8476628926153,0.9999325205301982,0.00024225300218302871
1354.8546075361496,1354.8546075361496,1.000164662302465,0.00024226677853937009
1354.8615521795448,1354.8615521795448,1.0003918923757678,0.00024230420985339843
1354.8684968228933,1354.8684968228933,0.9998917183188964,0.00024231077397315212
1354.8754414661485,1354.8754414661485,1.000374347674504,0.0002423242573558232
1354.8823861093574,1354.8823861093574,1.0001836115750433,0.00024235386372169717
1354.88933075238,1354.88933075238,0.9997105437505048,0.00024229012970083944
1354.8962753953556,1354.8962753953556,0.9998220928197036,0.00024229223218270044
1354.903220038332,1354.903220038332,0.9996623092305855,0.00024227994689341733
1354.9101646811675,1354.9101646811675,1.0001065690685291,0.00024236769472436455
1354.9171093239572,1354.9171093239572,1.0001312612856221,0.00024235923080874342
1354.924053966654,1354.924053966654,1.0002471697710014,0.0002424116239424986
1354.9309986092107,1354.9309986092107,0.9997342074501303,0.0002423663355179441
1354.9390543945506,1354.9390543945506,1.0000216682913892,0.00024234291034737316
1354.9462768226404,1354.9462768226404,1.000182251790179,0.00024236268102694608
1354.9532214650105,1354.9532214650105,1.0000469141943369,0.0002423569779478149
1354.9601661072415,1354.9601661072415,0.9994620859181518,0.00024230950940235226
1354.967110749426,1354.967110749426,1.0001020106452747,0.00024233526881555683
1354.9740553915633,1354.9740553915633,0.9995961248938773,0.00024230939538343925
1354.981000033608,1354.981000033608,1.0003257310512612,0.0002423528611745056
1354.9879446755135,1354.9879446755135,1.000035383820293,0.0002422922138494218
1354.9948893174646,1354.9948893174646,1.0001917934072118,0.00024233357911379903
1355.0018339591832,1355.0018339591832,1.000161147929983,0.00024230143700297861
1355.008778600855,1355.008778600855,0.9999655934631446,0.0002422598873003517
1355.015723242481,1355.015723242481,1.0001741504673292,0.0002422795316767927
1355.0226678840595,1355.0226678840595,0.999864701437202,0.0002422573985819215
1355.0296125254988,1355.0296125254988,0.9998315025316019,0.00024224195749986385
1355.0365571668917,1355.0365571668917,1.0002173687720624,0.00024226066572949332
1355.0435018082376,1355.0435018082376,1.0001438360746755,0.0002422643598049131
1355.0504464494443,1355.0504464494443,0.9998851684926618,0.00024226825423080117
1355.0573910905573,1355.0573910905573,1.0000543289310229,0.00024225004861125953
1355.064335731624,1355.064335731624,0.9995227768395687,0.00024224030767651828
1355.0712803726444,1355.0712803726444,1.000097063481091,0.0002422685995867076
1355.0782250135712,1355.0782250135712,1.0000246688508692,0.00024227276964515682
1355.0851696544048,1355.0851696544048,0.9997538154544039,0.00024226352877689209
1355.0921142951458,1355.0921142951458,1.0002251326936764,0.00024228994600427648
1355.0990589357934,1355.0990589357934,1.0001855991524113,0.00024227657903210133
1355.1060035764408,1355.1060035764408,1.0002299844270464,0.0002423072549205776
1355.1129482169956,1355.1129482169956,0.9999251214534579,0.00024228218129291535
1355.1198928574568,1355.1198928574568,0.999541870862898,0.0002422526333586765
1355.126837497825,1355.126837497825,1.000079970861718,0.0002422914718305749
1355.1337821381003,1355.1337821381003,0.9997484006993798,0.00024229477694118928
1355.1407267783284,1355.1407267783284,0.9998502460105874,0.00024230029993454116
1355.1476714184641,1355.1476714184641,1.0000254266684052,0.00024231759482000798
1355.154616058553,1355.154616058553,1.0001597820861121,0.00024235032829433598
1355.1615606985483,1355.1615606985483,0.9998468828713015,0.00024233302236549903
1355.1685053384513,1355.1685053384513,0.9998618138547389,0.00024231967636381257
1355.175449978307,1355.175449978307,1.0004573251324644,0.00024239640530829173
1355.1823946180234,1355.1823946180234,1.0000457858296268,0.00024234308341358198
1355.1893392576933,1355.1893392576933,0.999633562953381,0.00024231512919708104
1355.1962838974093,1355.1962838974093,1.0001593665607982,0.0002423309326567502
1355.2032285368928,1355.2032285368928,1.0000658489974905,0.0002423320428703322
1355.2101731763764,1355.2101731763764,0.9998128642829114,0.00024230225211408055
1355.21711781572,1355.21711781572,0.9999786522258078,0.00024230331348745835
1355.2240624550175,1355.2240624550175,1.0000872512201482,0.0002423217928593486
1355.231007094268,1355.231007094268,0.999827502821871,0.00024230325388849074
1355.2379517334257,1355.2379517334257,1.0001450315753053,0.00024235279888758652
1355.2448963724898,1355.2448963724898,1.0001988149221122,0.0002423083450471237
1355.2518410114608,1355.2518410114608,0.9999510451891753,0.00024230682860126762
1355.258785650479,1355.258785650479,1.000072142494959,0.00024231238249583566
1355.265730289264,1355.265730289264,1.0000221946395278,0.0002423311992626966
1355.272674928095,1355.272674928095,0.999764594598247,0.00024227305294509827
1355.279619566787,1355.279619566787,0.9998745742797215,0.00024229765260937292
1355.2865642054323,1355.2865642054323,1.00037510414371,0.00024233125678029232
1355.293508843985,1355.293508843985,0.9996470729053385,0.0002422769778730792
1355.3004534824436,1355.3004534824436,1.0001012082716385,0.00024232506182668114
1355.307398120949,1355.307398120949,0.999724822763436,0.00024230031103589074
1355.3143427593152,1355.3143427593152,1.0002329355718378,0.00024234868100010129
1355.321287397448,1355.321287397448,1.0002221712954795,0.00024235282589556904
1355.3282320357207,1355.3282320357207,1.0000100146305446,0.00024234439209778737
1355.3357322448264,1355.3357322448264,1.0001438703123315,0.000242374348235867
1355.3435102394646,1355.3435102394646,1.0001709494639712,0.0002423743856810105
1355.3504548774115,1355.3504548774115,0.999732578085373,0.0002423744469695945
1355.3573995153115,1355.3573995153115,0.9975290136470892,0.00024211461809839618
1355.3643441531187,1355.3643441531187,0.991570259506573,0.00024146665929859285
1355.3712887908325,1355.3712887908325,0.9899589238497638,0.0002413058652138016
1355.3782334285002,1355.3782334285002,0.9897843452136568,0.00024127855037847198
1355.3851780661212,1355.3851780661212,0.9897451359455862,0.0002412748082181867
1355.3921227036485,1355.3921227036485,0.9894042291324322,0.0002412261587959079
1355.3999006975882,1355.3999006975882,0.9894596502196288,0.00024124269606328738
1355.4074009059018,1355.4074009059018,0.9895293267347665,0.0002412591558040867
1355.4143455431972,1355.4143455431972,0.9899064449941118,0.00024128497775598138
1355.421290180352,1355.421290180352,0.9898201291577265,0.0002412728784658146
1355.428234817507,1355.428234817507,0.9900837498497781,0.0002412699236964902
1355.4351794546624,1355.4351794546624,0.9920684781032421,0.00024152969775212695
1355.4421240916313,1355.4421240916313,0.998147341408281,0.00024219282357236904
1355.4490687286002,1355.4490687286002,1.0001242959194023,0.00024237577989156333
1355.4560133654293,1355.4560133654293,1.0002147241031691,0.0002424009381078233
1355.462958002212,1355.462958002212,1.0000587119686608,0.00024236610348986947
1355.469902638948,1355.469902638948,0.9998157616190347,0.00024231883923515922
1355.4768472755445,1355.4768472755445,0.9998946787941213,0.00024234887462694794
1355.483791912141,1355.483791912141,1.000433597405738,0.000242422122612237
1355.490736548644,1355.490736548644,0.9999355664249118,0.00024234051165744408
1355.4976811851006,1355.4976811851006,1.000188679746709,0.00024239797207409455
1355.5046258214643,1355.5046258214643,1.0000293414283994,0.0002423343274797928
1355.5115704577343,1355.5115704577343,0.9998225171680059,0.00024233013116555687
1355.5185150939585,1355.5185150939585,0.9999080887840458,0.00024233464607409627
1355.5254597301355,1355.5254597301355,1.0000922467066187,0.00024236182550720482
1355.5324043662197,1355.5324043662197,0.9999127132103919,0.0002423294930054055
1355.539349002211,1355.539349002211,1.0002686513134207,0.00024237607793818383
1355.5462936382016,1355.5462936382016,0.999944894587645,0.00024233372421341584
1355.55323827396,1355.55323827396,0.9997769351492346,0.00024234522756862563
1355.5601829098116,1355.5601829098116,1.0000161062711381,0.00024235330717789044
1355.567127545523,1355.567127545523,0.9999322516874696,0.00024234630226177803
1355.5740721811417,1355.5740721811417,0.999853828111878,0.0002423223253394385
1355.5810168167598,1355.5810168167598,1.0000698887658674,0.00024233047138754642
1355.5879614522853,1355.5879614522853,0.9999487055497086,0.00024234011189942371
1355.594906087764,1355.594906087764,1.0003647969171474,0.0002423373604498507
1355.6018507231497,1355.6018507231497,0.9999816086127791,0.00024232526003820158
1355.6087953584422,1355.6087953584422,0.9999212818903238,0.0002423172135571161
1355.615739993688,1355.615739993688,1.0001326184315533,0.00024230920008276097
1355.6226846288407,1355.6226846288407,0.9998993735260899,0.00024230310789881662
1355.6296292639472,1355.6296292639472,1.0002541261628843,0.00024233065751171098
1355.6365738989603,1355.6365738989603,0.9996833293810781,0.00024225705317172807
1355.643518533927,1355.643518533927,1.0002400831373583,0.0002423046366304144
1355.6504631687537,1355.6504631687537,0.9996126349205555,0.0002422790884278753
1355.6574078035808,1355.6574078035808,1.00023387383979,0.00024233430671044516
1355.6643524384076,1355.6643524384076,0.9999279868719307,0.00024230453967040688
1355.6712970730946,1355.6712970730946,1.0000133056225748,0.00024232104711123076
1355.6782417077352,1355.6782417077352,0.999990286380188,0.0002422992395407119
1355.6851863422828,1355.6851863422828,1.0001582443623442,0.00024233551538626
1355.6921309767836,1355.6921309767836,1.0000149298404624,0.00024233577413204275
1355.6990756111913,1355.6990756111913,0.9999305823699413,0.0002423106584217158
1355.7060202455527,1355.7060202455527,0.9998650798326854,0.0002423275035496715
1355.7129648798207,1355.7129648798207,0.9996471253335599,0.00024226554184356256
1355.7199095140422,1355.7199095140422,1.0001909197804912,0.00024234550916420799
1355.7268541481706,1355.7268541481706,1.000110389871598,0.00024235344902081055
1355.7337987822523,1355.7337987822523,0.9999434253844903,0.00024229460296749635
1355.740743416241,1355.740743416241,1.0001236785322634,0.00024235906539986905
1355.7487991916157,1355.7487991916157,1.0002478915587845,0.00024236563491570224
1355.756021610811,1355.756021610811,1.0001552118754289,0.00024234920828925338
1355.762966244567,1355.762966244567,1.0001236827640962,0.0002423728039748259
1355.7699108782297,1355.7699108782297,0.9995335030692208,0.0002423105753516461
1355.7768555118923,1355.7768555118923,0.9994982763732867,0.0002422929507199249
1355.7838001455552,1355.7838001455552,0.999830279156793,0.0002423257500827915
1355.790744779078,1355.790744779078,0.9999907632485805,0.00024232909557136295
1355.797689412555,1355.797689412555,1.0000015975089078,0.00024234073631085253
1355.804634045938,1355.804634045938,1.0003444589645873,0.00024239913713567873
1355.8115786792746,1355.8115786792746,1.000109047696823,0.0002423651587975735
1355.8185233125184,1355.8185233125184,1.0002443262783196,0.00024241282706372502
1355.8254679457154,1355.8254679457154,0.9999844403995681,0.0002423731173934871
1355.8324125788192,1355.8324125788192,0.9996059713515806,0.00024230104765525753
1355.839357211877,1355.839357211877,1.0000373080961757,0.00024237409502318895
1355.8463018448406,1355.8463018448406,0.9996605496573128,0.00024232855544058365
1355.8532464777586,1355.8532464777586,0.9999817673303756,0.00024236725929130542
1355.8601911106298,1355.8601911106298,1.0003372050414365,0.0002423917834172663
1355.8671357434075,1355.8671357434075,1.0000227043598575,0.00024239507429162343
