time,time,flux,flux_err
1354.1122037599007,1354.1122037599007,0.9995869,0.00033862755
1354.1135926873321,1354.1135926873321,1.0010287,0.00033884495
1354.1163705421932,1354.1163705421932,0.9999611,0.00033854973
1354.1177594696246,1354.1177594696246,0.9995605,0.00033865296
1354.1191483970556,1354.1191483970556,0.9997052,0.00033864751
1354.1205373247192,1354.1205373247192,1.0000974,0.0003387336
1354.12192625215,1354.12192625215,0.99999535,0.0003387171
1354.1233151795814,1354.1233151795814,1.000145,0.0003387744
1354.124704107013,1354.124704107013,0.99975854,0.00033863648
1354.1260930344438,1354.1260930344438,0.9996059,0.000338654
1354.1274819618748,1354.1274819618748,0.9997609,0.00033868704
1354.1288708893053,1354.1288708893053,1.0002164,0.00033874254
1354.130259816969,1354.130259816969,1.000506,0.00033876492
1354.1316487444005,1354.1316487444005,1.0007037,0.00033881236
1354.1330376718315,1354.1330376718315,1.0004864,0.00033875642
1354.134426599262,1354.134426599262,0.999799,0.00033864542
1354.1358155266937,1354.1358155266937,1.0005064,0.0003387754
1354.1372044541245,1354.1372044541245,1.000804,0.00033883084
1354.138593381556,1354.138593381556,1.0000252,0.00033869184
1354.1399823089869,1354.1399823089869,1.0001189,0.00033875185
1354.141371236417,1354.141371236417,1.0005885,0.0003386967
1354.1427601638484,1354.1427601638484,0.9997466,0.00033866116
1354.1441490912798,1354.1441490912798,1.0002018,0.00033871408
1354.1455380189436,1354.1455380189436,1.0001277,0.0003387087
1354.1469269463744,1354.1469269463744,0.999962,0.00033872545
1354.1483158738051,1354.1483158738051,1.0000116,0.00033872397
1354.1497048012366,1354.1497048012366,0.9999077,0.00033867388
1354.1510937286682,1354.1510937286682,1.0003262,0.00033873308
1354.1524826560985,1354.1524826560985,1.0006449,0.00033881984
1354.153871583529,1354.153871583529,1.0000367,0.00033871044
1354.1552605109605,1354.1552605109605,1.0002341,0.00033876227
1354.1566494383922,1354.1566494383922,1.0001069,0.00033872048
1354.158038365823,1354.158038365823,1.0004019,0.00033877834
1354.159427293253,1354.159427293253,1.0005243,0.00033876725
1354.1608162206844,1354.1608162206844,1.0006843,0.00033880776
1354.162205148116,1354.162205148116,1.0003711,0.00033878
1354.1635940755468,1354.1635940755468,0.9999573,0.00033869804
1354.1649830029778,1354.1649830029778,1.0003052,0.00033874364
1354.1663719304083,1354.1663719304083,1.0000869,0.0003387096
1354.16776085784,1354.16776085784,1.0003022,0.00033873963
1354.1691497852717,1354.1691497852717,1.0000793,0.00033869935
1354.170538712469,1354.170538712469,1.0007164,0.00033881824
1354.1719276398996,1354.1719276398996,0.99967504,0.0003386857
1354.1733165673313,1354.1733165673313,0.99986225,0.00033864743
1354.1747054947618,1354.1747054947618,0.9997795,0.00033862263
1354.1760944221933,1354.1760944221933,1.0000207,0.00033869164
1354.1774833496243,1354.1774833496243,1.0006077,0.00033875855
1354.1788722770552,1354.1788722770552,1.0005231,0.0003387828
1354.1802612044867,1354.1802612044867,1.0005525,0.0003387523
1354.1816501319172,1354.1816501319172,0.9996928,0.00033864807
1354.1830390593489,1354.1830390593489,1.000495,0.0003387992
1354.1844279867796,1354.1844279867796,1.0002217,0.00033872764
1354.1858169139769,1354.1858169139769,0.99954474,0.0003386281
1354.1872058414085,1354.1872058414085,1.0002046,0.00033872927
1354.1885947688402,1354.1885947688402,1.0005773,0.00033876393
1354.1899836962707,1354.1899836962707,1.0005733,0.00033880453
1354.1913726237017,1354.1913726237017,1.0000664,0.00033869286
1354.1927615511324,1354.1927615511324,1.0003303,0.0003387769
1354.194150478564,1354.194150478564,1.00011,0.00033870467
1354.1955394057627,1354.1955394057627,0.99976647,0.00033866425
1354.1969283331928,1354.1969283331928,1.0008864,0.00033881003
1354.1983172606235,1354.1983172606235,0.99924594,0.0003385726
1354.1997061880552,1354.1997061880552,1.0000615,0.0003387014
1354.2010951154866,1354.2010951154866,0.9999747,0.00033867327
1354.2024840426843,1354.2024840426843,0.99997544,0.0003386979
1354.2038729701146,1354.2038729701146,1.0001076,0.0003387085
1354.2052618975463,1354.2052618975463,0.99965,0.00033864492
1354.2066508249777,1354.2066508249777,1.0003164,0.00033874618
1354.2080397524082,1354.2080397524082,0.99959356,0.00033864463
1354.2094286796064,1354.2094286796064,1.000426,0.00033877845
1354.2108176070374,1354.2108176070374,1.0001836,0.00033872708
1354.2122065344688,1354.2122065344688,0.9998479,0.00033869498
1354.2135954619002,1354.2135954619002,1.0006695,0.0003387581
1354.2149843890975,1354.2149843890975,1.000224,0.0003387322
1354.2163733165285,1354.2163733165285,1.0001714,0.00033871442
1354.21776224396,1354.21776224396,0.9999298,0.00033867275
1354.2191511711578,1354.2191511711578,1.0002394,0.00033871218
1354.2205400985895,1354.2205400985895,1.0001757,0.00033874047
1354.22192902602,1354.22192902602,1.0003005,0.0003387145
1354.223317953451,1354.223317953451,1.0002701,0.00033871483
1354.2247068806496,1354.2247068806496,1.0001314,0.0003387121
1354.2260958080806,1354.2260958080806,0.99954414,0.00033860846
1354.227484735511,1354.227484735511,1.0001931,0.00033871492
1354.2288736627092,1354.2288736627092,1.0005885,0.00033877592
1354.23026259014,1354.23026259014,1.0009305,0.0003388285
1354.2316515175717,1354.2316515175717,0.9998809,0.00033865072
1354.2330404447703,1354.2330404447703,1.000478,0.00033875322
1354.234429372201,1354.234429372201,1.0005468,0.0003387706
1354.235818299399,1354.235818299399,1.0001701,0.00033876338
1354.23720722683,1354.23720722683,0.9998268,0.00033868136
1354.2385961542614,1354.2385961542614,1.0003741,0.00033875115
1354.23998508146,1354.23998508146,1.0001945,0.00033872185
1354.24137400889,1354.24137400889,1.0007113,0.0003388115
1354.242762936321,1354.242762936321,1.0005021,0.00033875686
1354.2441518635196,1354.2441518635196,0.9998986,0.00033867278
1354.245540790951,1354.245540790951,1.0001972,0.00033875255
1354.2469297181492,1354.2469297181492,1.0002959,0.00033874146
1354.2483186455793,1354.2483186455793,0.9998839,0.00033867813
1354.2497075727779,1354.2497075727779,1.0001508,0.00033868777
1354.2510965002093,1354.2510965002093,1.0003272,0.0003387052
1354.2524854276403,1354.2524854276403,1.0006465,0.00033878992
1354.253874354838,1354.253874354838,0.9999118,0.0003386933
1354.255263282269,1354.255263282269,1.0003657,0.00033871594
1354.2566522094676,1354.2566522094676,1.0001022,0.00033871483
1354.258041136899,1354.258041136899,1.0003034,0.0003387441
1354.2594300640963,1354.2594300640963,0.9999367,0.00033866
1354.2608189915272,1354.2608189915272,1.0009061,0.00033885226
1354.2622079187258,1354.2622079187258,1.0007601,0.00033879973
1354.2635968461568,1354.2635968461568,1.0006856,0.00033874932
1354.2649857733554,1354.2649857733554,0.9998072,0.00033866175
1354.2663747007862,1354.2663747007862,1.0004342,0.00033877106
1354.267763627984,1354.267763627984,1.0005327,0.00033875444
1354.2691525551827,1354.2691525551827,1.000661,0.00033878113
1354.2705414826137,1354.2705414826137,0.9998386,0.0003387015
1354.2719304098118,1354.2719304098118,1.0003672,0.00033875203
1354.2733193372424,1354.2733193372424,1.0001357,0.00033867522
1354.2747082644405,1354.2747082644405,1.0009812,0.0003388273
1354.276097191872,1354.276097191872,1.0004398,0.00033876565
1354.2774861190705,1354.2774861190705,0.99978244,0.00033865942
1354.2788750462687,1354.2788750462687,1.0008416,0.00033882604
1354.2802639736992,1354.2802639736992,0.9998016,0.00033864722
1354.2816529008974,1354.2816529008974,0.9999722,0.00033869897
1354.2830418283288,1354.2830418283288,1.0012002,0.0003388754
1354.284430755527,1354.284430755527,1.0002258,0.00033869894
1354.2858196827242,1354.2858196827242,0.99951136,0.00033862045
1354.2872086101556,1354.2872086101556,1.0000881,0.00033869952
1354.2885975373542,1354.2885975373542,0.9997461,0.00033862295
1354.2899864645528,1354.2899864645528,1.0000477,0.000338714
1354.2913753919838,1354.2913753919838,0.9997582,0.00033865237
1354.292764319181,1354.292764319181,0.9997773,0.00033865697
1354.2941532463797,1354.2941532463797,1.0003934,0.00033874685
1354.295542173811,1354.295542173811,1.000209,0.00033875933
1354.2969311010086,1354.2969311010086,1.0003171,0.00033876128
1354.2983200282065,1354.2983200282065,1.0004101,0.00033873628
1354.299708955638,1354.299708955638,1.0005453,0.0003387769
1354.3010978828365,1354.3010978828365,1.0000321,0.0003387076
1354.3024868100354,1354.3024868100354,1.0004195,0.0003387216
1354.3038757372328,1354.3038757372328,0.9998137,0.00033864268
1354.3052646646634,1354.3052646646634,1.0011553,0.00033888803
1354.306653591862,1354.306653591862,1.0004581,0.0003387684
1354.30804251906,1354.30804251906,1.0000716,0.0003386935
1354.3094314462587,1354.3094314462587,1.000096,0.00033871064
1354.3108203736897,1354.3108203736897,0.9995918,0.00033861713
1354.3122093008876,1354.3122093008876,1.000453,0.0003387304
1354.3135982280864,1354.3135982280864,1.0003774,0.00033870243
1354.3149871552841,1354.3149871552841,1.0006514,0.00033877118
1354.3163760824823,1354.3163760824823,1.0001647,0.00033868905
1354.317765009913,1354.317765009913,0.99960166,0.00033860072
1354.319153937111,1354.319153937111,1.000316,0.00033874295
1354.3205428643096,1354.3205428643096,1.0001034,0.00033868945
1354.3219317915082,1354.3219317915082,1.0002912,0.0003387461
1354.3233207187063,1354.3233207187063,1.0011408,0.00033887377
1354.3247096459045,1354.3247096459045,0.99983,0.0003386656
1354.326098573335,1354.326098573335,1.0001756,0.0003387193
1354.3274875005336,1354.3274875005336,0.99998945,0.0003386575
1354.3288764277318,1354.3288764277318,1.0002475,0.0003387002
1354.330265354929,1354.330265354929,1.0007263,0.000338836
1354.3316542821276,1354.3316542821276,1.0001754,0.00033868462
1354.3330432093264,1354.3330432093264,1.000398,0.0003387326
1354.3344321365253,1354.3344321365253,1.0003283,0.0003387398
1354.335821063723,1354.335821063723,1.0003316,0.00033871894
1354.3372099909202,1354.3372099909202,1.0010873,0.0003388311
1354.338598918119,1354.338598918119,1.0000911,0.00033865502
1354.3399878453179,1354.3399878453179,0.99983114,0.00033862784
1354.341376772748,1354.341376772748,0.9999881,0.00033869175
1354.3427656999456,1354.3427656999456,1.0001396,0.0003386896
1354.3441546271445,1354.3441546271445,1.0009438,0.00033882677
1354.3455435543433,1354.3455435543433,0.9999814,0.0003386723
1354.346932481542,1354.346932481542,0.9999724,0.0003386517
1354.3483214087391,1354.3483214087391,0.9999407,0.00033865584
1354.349710335937,1354.349710335937,1.0008471,0.00033880395
1354.351099263136,1354.351099263136,0.9998074,0.0003386426
1354.3524881903336,1354.3524881903336,1.0009304,0.00033879082
1354.3538771175317,1354.3538771175317,1.0003155,0.0003387305
1354.3552660447297,1354.3552660447297,0.9994822,0.00033859038
1354.3566549719285,1354.3566549719285,1.0001376,0.00033867973
1354.3580438988943,1354.3580438988943,0.999815,0.0003386341
1354.3594328260922,1354.3594328260922,1.0001715,0.00033868357
1354.36082175329,1354.36082175329,1.000897,0.00033883212
1354.3622106804883,1354.3622106804883,1.0007348,0.00033883168
1354.363599607686,1354.363599607686,1.0001832,0.00033869085
1354.3649885348848,1354.3649885348848,1.000273,0.0003386959
1354.3663774620836,1354.3663774620836,1.0004196,0.0003387386
1354.3677663892813,1354.3677663892813,1.0003097,0.00033870502
1354.3691553164795,1354.3691553164795,0.99968827,0.00033861824
1354.3705442436774,1354.3705442436774,0.9999588,0.00033864734
1354.3719331708762,1354.3719331708762,1.000814,0.00033879236
1354.373322097841,1354.373322097841,1.0001348,0.00033869088
1354.3747110250383,1354.3747110250383,1.0001442,0.0003386932
1354.3760999522372,1354.3760999522372,1.0003257,0.0003387338
1354.377488879436,1354.377488879436,1.0004432,0.00033868814
1354.3788778066346,1354.3788778066346,1.0003852,0.00033873707
1354.3802667338325,1354.3802667338325,1.0004635,0.00033872644
1354.3816556607972,1354.3816556607972,1.0001999,0.00033871303
1354.3830445879958,1354.3830445879958,1.0006454,0.00033873913
1354.3844335151944,1354.3844335151944,0.9997776,0.00033865616
1354.3858224423916,1354.3858224423916,1.0005357,0.0003387497
1354.3872113695897,1354.3872113695897,1.0007831,0.00033881768
1354.3886002965555,1354.3886002965555,1.0001346,0.00033868238
1354.3899892237541,1354.3899892237541,1.000382,0.00033870374
1354.3913781509527,1354.3913781509527,1.0009253,0.00033880366
1354.39276707815,1354.39276707815,1.0002142,0.00033871963
1354.3941560051153,1354.3941560051153,1.0003555,0.0003387093
1354.395544932314,1354.395544932314,1.0008298,0.0003388178
1354.396933859512,1354.396933859512,1.001393,0.00033891405
1354.398322786477,1354.398322786477,0.9995907,0.00033859676
1354.399711713675,1354.399711713675,1.0001717,0.00033870104
1354.4011006408737,1354.4011006408737,1.0002409,0.0003386862
1354.4024895678394,1354.4024895678394,1.0005513,0.0003387614
1354.4038784950376,1354.4038784950376,1.0004412,0.000338721
1354.4052674222353,1354.4052674222353,0.99985164,0.00033866387
1354.4066563492006,1354.4066563492006,1.0006667,0.00033875828
1354.4080452763988,1354.4080452763988,0.9999168,0.00033866806
1354.4094342035974,1354.4094342035974,1.0003031,0.00033870962
1354.4108231305631,1354.4108231305631,1.0007665,0.00033876282
1354.412212057761,1354.412212057761,1.0007075,0.00033882124
1354.413600984959,1354.413600984959,1.0000676,0.00033866437
1354.4149899119243,1354.4149899119243,1.0006722,0.00033884688
1354.416378839123,1354.416378839123,1.0000247,0.000338685
1354.4177677660882,1354.4177677660882,0.9999354,0.00033869594
1354.4191566932855,1354.4191566932855,1.0000435,0.00033868404
1354.420545620484,1354.420545620484,1.0003949,0.00033872336
1354.4219345474498,1354.4219345474498,1.0003977,0.00033869478
1354.4233234746484,1354.4233234746484,1.000471,0.00033873465
1354.4247124016138,1354.4247124016138,1.0003829,0.00033872022
1354.426101328811,1354.426101328811,1.0005744,0.00033875636
1354.4274902557768,1354.4274902557768,1.0004153,0.00033873998
1354.4288791829754,1354.4288791829754,1.0000458,0.00033865997
1354.4302681099398,1354.4302681099398,1.0006489,0.00033873017
1354.431657037138,1354.431657037138,1.000576,0.0003387692
1354.4330459641037,1354.4330459641037,1.0003692,0.0003387092
1354.4344348913023,1354.4344348913023,1.0003381,0.0003387423
1354.435823818268,1354.435823818268,1.0002531,0.00033871844
1354.4372127454653,1354.4372127454653,0.99996763,0.0003386364
1354.4386016724307,1354.4386016724307,0.9996845,0.00033859327
1354.4399905996293,1354.4399905996293,0.9998418,0.00033866902
1354.4413795265946,1354.4413795265946,0.99969715,0.00033860374
1354.4427684535597,1354.4427684535597,1.0004934,0.00033867944
1354.4441573807576,1354.4441573807576,0.9999172,0.00033863581
1354.4455463077234,1354.4455463077234,1.0000184,0.00033865368
1354.446935234922,1354.446935234922,0.9999968,0.0003386674
1354.4483241618873,1354.4483241618873,1.0006492,0.00033873718
1354.4497130888526,1354.4497130888526,1.0000287,0.00033866827
1354.4511020160503,1354.4511020160503,1.0011729,0.00033884257
1354.4524909430156,1354.4524909430156,1.0000463,0.00033864638
1354.4538798702142,1354.4538798702142,1.0006257,0.0003387748
1354.45526879718,1354.45526879718,1.000521,0.00033873247
1354.4566577241453,1354.4566577241453,1.000019,0.00033866428
1354.4580466513432,1354.4580466513432,1.0001097,0.00033866402
1354.4594355783083,1354.4594355783083,1.0000881,0.00033872467
1354.460824505274,1354.460824505274,1.0003304,0.0003386727
1354.4622134324723,1354.4622134324723,1.0003343,0.0003387385
1354.4636023594367,1354.4636023594367,1.0007286,0.00033871972
1354.4649912864024,1354.4649912864024,1.0010023,0.00033883058
1354.4663802133682,1354.4663802133682,1.0001847,0.00033869443
1354.4677691405668,1354.4677691405668,1.0002683,0.00033872458
1354.4691580675321,1354.4691580675321,1.0003489,0.00033869533
1354.4705469944965,1354.4705469944965,1.0001464,0.00033865182
1354.4719359214623,1354.4719359214623,1.0002631,0.00033870825
1354.473324848661,1354.473324848661,1.0000755,0.00033869423
1354.4747137756256,1354.4747137756256,0.99965113,0.00033862042
1354.4761027025907,1354.4761027025907,1.0008008,0.00033878043
1354.4774916295564,1354.4774916295564,1.0004587,0.00033875048
1354.4788805565224,1354.4788805565224,1.0003543,0.00033870435
1354.4802694837213,1354.4802694837213,1.0007968,0.0003387842
1354.4816584106857,1354.4816584106857,1.0004382,0.00033868317
1354.4830473376505,1354.4830473376505,1.0006484,0.00033876978
1354.4844362646165,1354.4844362646165,1.0002745,0.00033868334
1354.4858251915816,1354.4858251915816,0.999615,0.00033860598
1354.487214118547,1354.487214118547,1.000043,0.00033866655
1354.4886030457446,1354.4886030457446,1.0004427,0.00033877333
1354.4899919727106,1354.4899919727106,1.0003048,0.00033871082
1354.4913808996766,1354.4913808996766,1.0002289,0.00033870805
1354.4927698266415,1354.4927698266415,1.000629,0.0003387589
1354.4941587536068,1354.4941587536068,1.000621,0.0003387765
1354.495547680572,1354.495547680572,0.9999914,0.00033866998
1354.496936607537,1354.496936607537,0.9999782,0.00033867147
1354.4983255345028,1354.4983255345028,1.0009644,0.00033881754
1354.4997144614688,1354.4997144614688,1.0006546,0.0003387812
1354.5011033884339,1354.5011033884339,1.0010319,0.00033880962
1354.5024923153992,1354.5024923153992,0.9992543,0.00033856713
1354.503881242364,1354.503881242364,1.0000762,0.0003386649
1354.50527016933,1354.50527016933,1.000745,0.00033877528
1354.5066590962952,1354.5066590962952,1.0001504,0.0003387019
1354.5080480232596,1354.5080480232596,1.0003879,0.00033874557
1354.5094369502253,1354.5094369502253,1.0004035,0.0003387399
1354.5108258771913,1354.5108258771913,1.0004817,0.0003387404
1354.5122148041573,1354.5122148041573,1.0001816,0.00033873736
1354.5136037311222,1354.5136037311222,0.9999919,0.00033862866
1354.5149926580866,1354.5149926580866,1.0004768,0.00033874653
1354.5163815850526,1354.5163815850526,1.0005163,0.00033874056
1354.5177705120186,1354.5177705120186,0.9998405,0.00033865645
1354.519159438983,1354.519159438983,0.99933803,0.00033858168
1354.5205483659481,1354.5205483659481,1.000395,0.0003387418
1354.5219372929141,1354.5219372929141,1.0000684,0.00033868352
1354.52332621988,1354.52332621988,1.0004625,0.00033869504
1354.5247151468457,1354.5247151468457,0.9998949,0.00033867062
1354.52610407381,1354.52610407381,1.0001348,0.00033866856
1354.5274930007754,1354.5274930007754,1.00058,0.00033872927
1354.5288819275083,1354.5288819275083,0.9994122,0.00033857411
1354.5302708544732,1354.5302708544732,1.0005664,0.00033873582
1354.5316597814385,1354.5316597814385,1.0004599,0.0003387205
1354.5330487084038,1354.5330487084038,1.0005792,0.00033874647
1354.5344376353696,1354.5344376353696,1.0000741,0.00033866896
1354.5358265623354,1354.5358265623354,0.9995586,0.00033857147
1354.5372154890679,1354.5372154890679,0.99980295,0.00033862493
1354.5386044160327,1354.5386044160327,0.9997726,0.00033864475
1354.539993342998,1354.539993342998,1.0004944,0.00033869245
1354.5413822699632,1354.5413822699632,0.99939847,0.00033851597
1354.5427711969292,1354.5427711969292,1.0006125,0.00033876247
1354.544160123662,1354.544160123662,1.0006636,0.00033877706
1354.545549050627,1354.545549050627,1.0006799,0.00033877906
1354.5469379775923,1354.5469379775923,1.0007174,0.0003387621
1354.5483269045576,1354.5483269045576,1.0008551,0.00033880767
1354.5497158312905,1354.5497158312905,1.0003607,0.00033866457
1354.5511047582554,1354.5511047582554,1.000219,0.0003386995
1354.55249368522,1354.55249368522,1.0002846,0.0003386882
1354.5538826119532,1354.5538826119532,1.0002594,0.00033869583
1354.555271538919,1354.555271538919,0.999833,0.0003386497
1354.5566604658848,1354.5566604658848,0.99947584,0.00033856617
1354.55804939285,1354.55804939285,0.99998534,0.00033867088
1354.5594383195817,1354.5594383195817,1.0008955,0.00033877481
1354.5608272465474,1354.5608272465474,1.0006944,0.00033877787
1354.5622161732804,1354.5622161732804,0.9997286,0.000338638
1354.5636051002448,1354.5636051002448,1.0007414,0.0003387553
1354.56499402721,1354.56499402721,0.9996721,0.0003386174
1354.566382953943,1354.566382953943,1.0007429,0.00033878852
