time,time,flux,flux_err
1325.29985721549,1325.29985721549,1.0001218193709915,0.000519121755256076
1325.3081904619148,1325.3081904619148,1.0002273281683627,0.0005183691659829045
1325.316523708612,1325.316523708612,0.9994718260240271,0.0005182398806623568
1325.3248569555512,1325.3248569555512,1.0001238380782815,0.0005181878358149005
1325.33249576545,1325.33249576545,1.0000340370271315,0.00047316600865609924
1325.3394401382725,1325.3394401382725,0.999814716902233,0.0004730483650411344
1325.3463845112587,1325.3463845112587,0.999987741283579,0.0004731351283832336
1325.3533288844071,1325.3533288844071,0.999721564166004,0.00047314387769867804
1325.3602732577303,1325.3602732577303,0.9999435238416193,0.0004731635597093875
1325.3672176311939,1325.3672176311939,1.0009201626631756,0.00047334925853660583
1325.3741620048545,1325.3741620048545,0.9996349319489963,0.00047313775794394984
1325.381106378667,1325.381106378667,0.9997532458239498,0.00047326395829521935
1325.3880507526187,1325.3880507526187,1.000318627487165,0.000473340598226025
1325.3949951267334,1325.3949951267334,0.9995842266530005,0.0004733809678025093
1325.4019395010232,1325.4019395010232,1.0002932166995613,0.00047351271115771116
1325.408883875464,1325.408883875464,1.0005311529162815,0.00047366595688475954
1325.4158282500448,1325.4158282500448,0.9990882544272404,0.00047330478486008976
1325.4227726247884,1325.4227726247884,0.9999033146378948,0.0004736348211477474
1325.4297169996835,1325.4297169996835,1.0005823178328843,0.0004736901109980493
1325.436661374741,1325.436661374741,1.000231519462373,0.0004737128738917358
1325.4436057499388,1325.4436057499388,0.9990063170803648,0.000473623385563009
1325.4505501252877,1325.4505501252877,1.000333040873156,0.0004737343927490447
1325.457494500788,1325.457494500788,1.000125898641907,0.00047380594667641103
1325.4644388764164,1325.4644388764164,0.9999835482342372,0.00047396140498924186
1325.4713832522193,1325.4713832522193,1.000727372779543,0.0004739958835338925
1325.478327628127,1325.478327628127,0.9995610386796125,0.0004739463608215276
1325.4852720041858,1325.4852720041858,0.9999276513456824,0.0004741231678497676
1325.4922163804083,1325.4922163804083,1.0001185643860453,0.000474187011982855
1325.4991607567702,1325.4991607567702,0.9995602611193384,0.00047420156647360993
1325.5061051332366,1325.5061051332366,1.0005540320107886,0.0004743033837354721
1325.5130495098892,1325.5130495098892,1.0004021746697125,0.00047434926380059286
1325.5199938866353,1325.5199938866353,0.9999356447926001,0.00047443999777816825
1325.5269382635327,1325.5269382635327,0.9989210935233297,0.0004744093087443855
1325.5338826405696,1325.5338826405696,1.0000886513211398,0.0004745787940740703
1325.5408270177227,1325.5408270177227,0.9998932452890855,0.0004746552435788222
1325.5477713950163,1325.5477713950163,1.0002478973198374,0.0004748254496081567
1325.554715772437,1325.554715772437,1.0003094288769485,0.00047490424656533277
1325.5616601499983,1325.5616601499983,1.0005004892042861,0.00047480918789610804
1325.568604527652,1325.568604527652,1.0001572844132671,0.0004748871751398934
1325.5755489054573,1325.5755489054573,0.9996616467641424,0.0004750278860019101
1325.5824932833796,1325.5824932833796,1.0001081139103065,0.00047502506084674573
1325.5894376614401,1325.5894376614401,0.9995518135483248,0.000474969024125496
1325.5963820396069,1325.5963820396069,0.9996218335813692,0.0004749499484479141
1325.603326417901,1325.603326417901,0.9998656680372655,0.00047505188676571965
1325.610270796335,1325.610270796335,0.9992084408413542,0.00047520463554352553
1325.617215174862,1325.617215174862,1.0005742255695709,0.00047518064035041865
1325.6241595535055,1325.6241595535055,1.0000318831663795,0.00047508094635368694
1325.631103932277,1325.631103932277,1.0009052722068899,0.0004751469049300844
1325.6380483111536,1325.6380483111536,1.0004071244829125,0.000475225339113076
1325.644992690146,1325.644992690146,1.0003537810450844,0.0004752230369254503
1325.6519370692786,1325.6519370692786,0.9995430458416603,0.00047517562079547155
1325.6588814485042,1325.6588814485042,0.9995313691850111,0.0004751988406795131
1325.6658258278462,1325.6658258278462,0.9993494726214461,0.00047508380281647433
1325.6727702072694,1325.6727702072694,1.0006481485406424,0.00047537629992730105
1325.6797145868445,1325.6797145868445,1.000317726371263,0.00047524629756790263
1325.686658966501,1325.686658966501,0.999276233232543,0.0004751343051485177
1325.6936033462732,1325.6936033462732,0.9996759713466925,0.00047523396890050506
1325.7005477261282,1325.7005477261282,0.9999383602409797,0.000475298528248982
1325.7074921061217,1325.7074921061217,1.0001788770433355,0.000475284385863892
1325.7144364861972,1325.7144364861972,1.0004576913825907,0.00047539045299109484
1325.7213808664005,1325.7213808664005,1.001111172570495,0.00047542448653684023
1325.7283252466739,1325.7283252466739,1.0001506909290225,0.00047546339119607973
1325.735269627052,1325.735269627052,0.9991430921843231,0.00047548310857186
1325.7422140075464,1325.7422140075464,0.9999952376363741,0.000475520586239875
1325.749158388134,1325.749158388134,0.9995233331075,0.0004754608467943024
1325.7561027688266,1325.7561027688266,0.9997142756120156,0.0004756290890645649
1325.7630471495888,1325.7630471495888,0.9998366786463206,0.00047563658412859194
1325.7699915304675,1325.7699915304675,1.0006560033685585,0.00047582768938917146
1325.7769359114395,1325.7769359114395,0.9998702745865481,0.0004758502248390745
1325.783880292516,1325.783880292516,0.9998243065716924,0.0004760117923238283
1325.7908246736508,1325.7908246736508,1.0010022879224876,0.00047616768892406157
1325.7977690549135,1325.7977690549135,0.9995169978181984,0.0004759101556311468
1325.804713436223,1325.804713436223,0.9994200606184,0.00047588938422885084
1325.8116578176837,1325.8116578176837,1.0004929510581593,0.00047599534719062006
1325.8186021991912,1325.8186021991912,0.999491486043166,0.0004758983053979307
1325.8255465808031,1325.8255465808031,0.9999054184162016,0.00047604835842022825
1325.8324909624966,1325.8324909624966,0.9991801516516565,0.0004759640301476324
1325.839435344272,1325.839435344272,1.0008390101001083,0.00047603678979903796
1325.84637972614,1325.84637972614,1.0005708424007314,0.00047616329507067735
1325.853324108078,1325.853324108078,1.0007619018794451,0.00047619645303699444
1325.8602684901093,1325.8602684901093,1.0002626613618473,0.0004760218261778
1325.8672128722337,1325.8672128722337,0.9997335186893841,0.000475942181739698
1325.8741572544398,1325.8741572544398,0.9987762316560982,0.0004758207669043963
1325.8811016367151,1325.8811016367151,0.9997690860684028,0.0004758627976063676
1325.8880460190724,1325.8880460190724,0.9996623557163957,0.0004757558347563429
1325.8949904014994,1325.8949904014994,1.0001242183302799,0.0004757711340805039
1325.9019347840194,1325.9019347840194,1.0000599667244585,0.0004757791718297544
1325.908879166621,1325.908879166621,1.0000589097841064,0.0004758001630481689
1325.9158235492926,1325.9158235492926,1.00049916889852,0.00047580110660707845
1325.9227679320452,1325.9227679320452,1.0006549191588678,0.0004757346665130516
1325.9297123148801,1325.9297123148801,1.0001849174292663,0.0004757364200287056
1325.936656697761,1325.936656697761,0.9997321668143757,0.0004756500075519542
1325.943601080735,1325.943601080735,1.000332405069188,0.00047566569862930285
1325.9505454637795,1325.9505454637795,1.0003957604218452,0.0004758928782041184
1325.957489846905,1325.957489846905,0.9992616588855604,0.0004756626529466984
1325.965545331414,1325.965545331414,0.9998108932689125,0.000475579178469413
1325.9727674900162,1325.9727674900162,0.9990171325976742,0.00047573829106952977
1325.9797118733627,1325.9797118733627,1.000013672000843,0.00047576527050218365
1325.986656256779,1325.986656256779,0.9999867752201161,0.0004757690652966712
1325.9936006402654,1325.9936006402654,1.0000656120127043,0.0004757923915307707
1326.0005450238102,1326.0005450238102,1.0002207004403498,0.00047585085471300935
1326.0074894074362,1326.0074894074362,1.0000310943859039,0.0004758630633986489
1326.0144337911322,1326.0144337911322,1.000399749520352,0.00047585389096390556
1326.0213781748632,1326.0213781748632,1.0008072411362952,0.00047596678930957845
1326.0283225586759,1326.0283225586759,1.0002545018962818,0.00047600987391778943
1326.0352669425579,1326.0352669425579,0.999961015003111,0.00047599336418262554
1326.0422113265095,1326.0422113265095,0.9986274262050069,0.0004758449763704855
1326.0491557105083,1326.0491557105083,1.0001935232925405,0.00047607487301116
1326.0561000945881,1326.0561000945881,1.0003707727212792,0.0004762009596447829
1326.0630444787269,1326.0630444787269,1.0001293769198236,0.00047613914050206787
1326.0699888629,1326.0699888629,0.9998159618898892,0.00047610687624903157
1326.076933247166,1326.076933247166,0.9993242105094697,0.0004761966653437419
1326.0838776314677,1326.0838776314677,1.000718942616159,0.0004762772810522584
1326.0908220158506,1326.0908220158506,0.9980049548298737,0.0004759995329295905
1326.0977664002914,1326.0977664002914,1.0003483719799757,0.00047620666786254995
1326.1047107847676,1326.1047107847676,1.0002898889211616,0.0004761544594068517
1326.1116551693128,1326.1116551693128,1.000246462988559,0.00047614622226455235
1326.1185995539172,1326.1185995539172,1.000142367716735,0.00047608818098136146
1326.125543938579,1326.125543938579,1.0002804957457967,0.00047624831307339373
1326.1324883232999,1326.1324883232999,1.0005735508198863,0.0004762814986530312
1326.1394327080666,1326.1394327080666,0.9999288411353167,0.0004761723641562886
1326.146377092892,1326.146377092892,0.9991379000168463,0.0004759869007497614
1326.1533214777635,1326.1533214777635,0.9995367287415882,0.0004761753658117546
1326.160265862705,1326.160265862705,1.0006585137298194,0.00047609908606265175
1326.1672102476816,1326.1672102476816,0.9997423250692435,0.0004760040975215053
1326.1741546327162,1326.1741546327162,1.0003359144460258,0.0004761678402271143
1326.1810990178094,1326.1810990178094,0.9993421719013424,0.0004760252552657608
1326.1880434029722,1326.1880434029722,1.0004191260888005,0.0004760778788756687
1326.1949877881466,1326.1949877881466,1.0000684385724878,0.00047609657983007915
1326.2019321733792,1326.2019321733792,0.9998601486420082,0.00047607628743347055
1326.20887655867,1326.20887655867,1.0001504985202636,0.0004759874456496288
1326.2158209440072,1326.2158209440072,0.9998648047947128,0.0004759965790327267
1326.2227653293912,1326.2227653293912,1.0000116370058598,0.0004760494262417642
1326.2297097148335,1326.2297097148335,1.0002758486893026,0.0004760724426549182
1326.2366541003105,1326.2366541003105,1.0002475235980275,0.00047612205749815657
1326.2435984858453,1326.2435984858453,0.9996977928825924,0.00047618099960383497
1326.2505428714162,1326.2505428714162,1.000236876645959,0.00047614436122774657
1326.2574872570444,1326.2574872570444,0.9998380140299448,0.00047614367982035214
1326.264431642708,1326.264431642708,1.0002595519714195,0.0004762387666362359
1326.2713760284412,1326.2713760284412,0.9998985615544598,0.00047605284925391597
1326.2783204141974,1326.2783204141974,0.9997547014710644,0.00047608153198384917
1326.285264799989,1326.285264799989,0.9999281622670271,0.00047608277311442487
1326.2922091858268,1326.2922091858268,0.999664137048574,0.0004761215799015107
1326.2991535717117,1326.2991535717117,0.9996593359331648,0.00047621021443792496
1326.306097957654,1326.306097957654,1.000139882957465,0.000476052683393632
1326.313042343632,1326.313042343632,1.0006040985355842,0.00047614477358117727
1326.3199867296676,1326.3199867296676,1.000043877471645,0.0004760071875410432
1326.326931115715,1326.326931115715,0.9998950535449949,0.0004759627300024324
1326.3338755017978,1326.3338755017978,1.0001051090947153,0.00047594923524963784
1326.3408198879267,1326.3408198879267,1.0004516317126508,0.0004760727857792041
1326.3488753759052,1326.3488753759052,0.9991575977266856,0.00047601534496228507
1326.3574864148247,1326.3574864148247,0.9995650417428514,0.00047616918218075857
1326.364430801094,1326.364430801094,1.0012019635922933,0.00047617875343580567
1326.3713751874088,1326.3713751874088,0.9997640859278258,0.00047605941018030035
1326.3783195737476,1326.3783195737476,1.0001314903969039,0.00047610213242235287
1326.385263960156,1326.385263960156,1.0004320721407813,0.0004762810824857652
1326.3922083465643,1326.3922083465643,0.998350590209459,0.0004760359234023321
1326.399152733043,1326.399152733043,1.0001135746341894,0.0004761639790349208
1326.4060971195324,1326.4060971195324,1.000347591510435,0.00047639794472101055
1326.4130415060577,1326.4130415060577,1.0007340254849877,0.00047636095792287427
1326.4199858926404,1326.4199858926404,0.9996132546362941,0.000476144376892978
1326.4269302792238,1326.4269302792238,1.0003276854587453,0.00047624560980612663
1326.4338746658764,1326.4338746658764,0.9995148809042531,0.0004761377219022891
1326.4408190525526,1326.4408190525526,0.9992322340587002,0.0004761163233684807
1326.4477634392638,1326.4477634392638,1.0002581016926828,0.00047623083749135454
1326.454707825998,1326.454707825998,1.0000795413362658,0.0004761817477299561
1326.4616522127792,1326.4616522127792,0.9999895391052422,0.00047627084618288097
1326.468596599595,1326.468596599595,1.0010701625805738,0.000476436905778825
1326.475540986434,1326.475540986434,1.0004500619473649,0.00047642779453334545
1326.4824853733085,1326.4824853733085,0.9994033275501071,0.0004764134071118969
1326.4894297602286,1326.4894297602286,1.000050531732183,0.00047644070457077874
1326.4963741471495,1326.4963741471495,1.000007208002022,0.0004765091043886353
1326.5033185341165,1326.5033185341165,1.000586005322286,0.00047646336550461404
1326.5102629211306,1326.5102629211306,0.9991811147773116,0.00047654165802710864
1326.5172073081558,1326.5172073081558,0.9999083974556836,0.0004767255244104711
1326.5241516952278,1326.5241516952278,0.9991460039227855,0.0004767158043150072
1326.5310960823115,1326.5310960823115,0.9995022972850537,0.00047671436179516836
1326.53804046943,1326.53804046943,1.0006012820259333,0.00047681101683616793
1326.5449848565838,1326.5449848565838,1.0008255637786623,0.0004768425646133869
1326.5519292437486,1326.5519292437486,1.0001573269770827,0.0004768177423734611
1326.5588736309487,1326.5588736309487,1.0003171987341253,0.0004768617794125935
1326.5658180182068,1326.5658180182068,0.9991329567869747,0.0004767352859307432
1326.572762405465,1326.572762405465,0.9998829225631954,0.0004768075070240499
1326.5797067927583,1326.5797067927583,1.0003321220972528,0.0004768906062838633
1326.5866511800746,1326.5866511800746,0.9999825900138063,0.00047671768655084285
1326.5935955674263,1326.5935955674263,0.9998059502024577,0.0004768274904967294
1326.600539954801,1326.600539954801,1.0005828364123173,0.00047692727091710774
1326.6074843422105,1326.6074843422105,0.9997980656135569,0.00047682385908635004
1326.614428729632,1326.614428729632,1.000440703678032,0.00047689534398934587
1326.621373117076,1326.621373117076,0.9993306481116854,0.0004768471698056569
1326.6283175045792,1326.6283175045792,1.000501759419233,0.00047702522861215694
1326.6352618920816,1326.6352618920816,0.9993301711332023,0.0004768466105363132
1326.6422062795846,1326.6422062795846,0.999870494910547,0.00047691808950567783
1326.6491506671452,1326.6491506671452,0.9998960044554648,0.0004768452348992059
1326.6560950547296,1326.6560950547296,1.0005140871269904,0.0004768720061858977
1326.6630394423257,1326.6630394423257,1.000074343308406,0.00047682777339878754
1326.6699838299444,1326.6699838299444,1.0003490991676531,0.0004768092207525672
1326.6769282175987,1326.6769282175987,0.999169051118981,0.0004766811006017827
1326.6838726052642,1326.6838726052642,1.0000573110211817,0.0004769001074635096
1326.6922058705004,1326.6922058705004,0.9999927705678278,0.000476784919346899
1326.6991502582243,1326.6991502582243,1.0006796690181985,0.00047676975598309604
1326.7060946459712,1326.7060946459712,1.0005289431873972,0.00047668443245611644
1326.7138723602773,1326.7138723602773,0.9994310224481102,0.00047664128629526254
1326.7213722990948,1326.7213722990948,0.9993835154549859,0.0004766273694212079
1326.7283166869001,1326.7283166869001,1.0000939265887312,0.0004765562374032751
1326.7352610747403,1326.7352610747403,1.0002194895373706,0.00047672174245336283
1326.742205462604,1326.742205462604,1.000007834662884,0.0004766207976125622
1326.7491498504792,1326.7491498504792,1.0003301647496003,0.00047655271881926267
1326.7560942383775,1326.7560942383775,0.9999832402557729,0.00047661475180515035
1326.763038626311,1326.763038626311,1.000062995749333,0.00047658026694536576
1326.7699830142444,1326.7699830142444,0.9996117410289582,0.0004764279766892875
1326.7769274022012,1326.7769274022012,0.9997757202953601,0.00047648790016650817
1326.7838717901814,1326.7838717901814,0.9999810150881672,0.00047650570463302137
1326.7908161781734,1326.7908161781734,0.9994740652494644,0.0004763565778445944
1326.7977605661995,1326.7977605661995,1.0002186196049034,0.0004764138286107401
1326.8047049542383,1326.8047049542383,0.9997978605534502,0.0004763919603800493
1326.8116493422758,1326.8116493422758,1.0008364331148705,0.0004766066870136187
1326.8185937303608,1326.8185937303608,1.000103798926642,0.0004764093468810086
1326.8255381184458,1326.8255381184458,0.9998976360624947,0.00047648197367057137
1326.8324825065772,1326.8324825065772,1.0010165001227622,0.0004766921003957046
1326.839426894697,1326.839426894697,0.9999471803367864,0.00047654153502256735
1326.8463712828398,1326.8463712828398,0.9991934378421907,0.00047648962930497247
1326.8533156709946,1326.8533156709946,0.99991812020073,0.00047653131929699096
1326.8602600591842,1326.8602600591842,0.9991577046130201,0.00047653765433258445
1326.8672044473856,1326.8672044473856,0.9999267563129944,0.0004764237131169159
1326.87414883561,1326.87414883561,1.001164124750939,0.00047668300190772527
1326.8810932238343,1326.8810932238343,0.9998763729785637,0.0004765127302138808
1326.8880376120708,1326.8880376120708,0.9997630789952631,0.00047654020677988907
1326.8949820003413,1326.8949820003413,0.9996649566808804,0.00047628509525498463
1326.9019263886244,1326.9019263886244,0.999628687413464,0.0004763285572771645
1326.908870776907,1326.908870776907,0.9992405391339979,0.00047606867013886374
1326.9158151652246,1326.9158151652246,1.001316426790056,0.00047606769414273997
1326.922759553554,1326.922759553554,1.0001011161095361,0.0004760851382534739
1326.9297039418716,1326.9297039418716,1.0003716460092842,0.00047595468628702006
1326.9366483302474,1326.9366483302474,1.0000374010823219,0.0004760701809494175
1326.9435927186228,1326.9435927186228,1.0004718056366282,0.0004759989162871148
1326.9505371069993,1326.9505371069993,1.0002308645413798,0.0004760003988000429
1326.9574814953862,1326.9574814953862,0.9994062882191397,0.0004758700222325726
1326.9644258838093,1326.9644258838093,0.9993731701920125,0.00047593308027742473
1326.9713702722315,1326.9713702722315,0.9996699401602595,0.0004758358108826875
1326.9783146606653,1326.9783146606653,1.0003918319785767,0.0004759780962838089
1326.9852590491346,1326.9852590491346,0.9998400910067051,0.00047566455928856906
1326.9922034375918,1326.9922034375918,0.9992043101111703,0.00047575005669486125
1326.9991478260722,1326.9991478260722,1.0003081756734364,0.00047589900562557694
1327.0060922145647,1327.0060922145647,1.000441067857767,0.00047571452918232954
1327.0130366030685,1327.0130366030685,1.0005116701356065,0.0004755875731887042
1327.0199809915841,1327.0199809915841,0.9994839515645821,0.0004755016008187481
1327.026925380123,1327.026925380123,1.0001570100932387,0.00047558965064471904
1327.0338697686618,1327.0338697686618,1.000885443265425,0.0004756943748180806
1327.0408141572238,1327.0408141572238,0.9995472912182286,0.0004755511245015713
1327.0477585457977,1327.0477585457977,0.9998678533249479,0.00047583211628826876
1327.0547029343597,1327.0547029343597,0.9996712962533317,0.000475577204689128
1327.062758425132,1327.062758425132,1.0004528675416349,0.0004756825595312153
1327.0699805892755,1327.0699805892755,0.9995138061908883,0.0004756545373135983
