time,time,flux,flux_err
1354.1145719499623,1354.1145719499623,11486.779,13.964993
1354.1159608622597,1354.1159608622597,11514.738,13.978552
1354.1187386873185,1354.1187386873185,11493.928,13.961119
1354.120127599616,1354.120127599616,11513.342,13.978502
1354.1215165123785,1354.1215165123785,11472.424,13.960424
1354.1229054246753,1354.1229054246753,11504.2705,13.974248
1354.124294336972,1354.124294336972,11516.566,13.976581
1354.1256832497352,1354.1256832497352,11511.835,13.9782915
1354.1270721620328,1354.1270721620328,11509.39,13.975461
1354.1284610743296,1354.1284610743296,11508.09,13.977859
1354.1298499866266,1354.1298499866266,11476.598,13.969063
1354.1312388993888,1354.1312388993888,11531.656,13.987547
1354.1326278116858,1354.1326278116858,11510.061,13.980432
1354.1340167239832,1354.1340167239832,11510.193,13.980744
1354.1354056362802,1354.1354056362802,11519.617,13.982056
1354.1367945485767,1354.1367945485767,11496.656,13.967157
1354.13818346134,1354.13818346134,11500.388,13.970852
1354.1395723736368,1354.1395723736368,11483.041,13.968235
1354.1409612859343,1354.1409612859343,11512.776,13.976047
1354.1423501982313,1354.1423501982313,11493.742,13.977732
1354.1437391105273,1354.1437391105273,11489.448,13.960114
1354.1451280228248,1354.1451280228248,11519.788,13.983004
1354.1465169351222,1354.1465169351222,11514.98,13.979406
1354.1479058474192,1354.1479058474192,11510.186,13.975118
1354.149294759716,1354.149294759716,11522.128,13.984878
1354.1506836720127,1354.1506836720127,11485.418,13.972143
1354.1520725843102,1354.1520725843102,11497.292,13.97947
1354.1534614966079,1354.1534614966079,11499.627,13.972433
1354.1548504089042,1354.1548504089042,11504.051,13.977237
1354.1562393212007,1354.1562393212007,11509.208,13.985155
1354.1576282334981,1354.1576282334981,11488.502,13.9712515
1354.1590171457958,1354.1590171457958,11491.273,13.974146
1354.1604060580926,1354.1604060580926,11504.795,13.980081
1354.1617949703887,1354.1617949703887,11500.291,13.973029
1354.1631838822204,1354.1631838822204,11487.753,13.971625
1354.164572794518,1354.164572794518,11525.354,13.982883
1354.1659617068149,1354.1659617068149,11486.949,13.968488
1354.1673506191119,1354.1673506191119,11493.586,13.973013
1354.1687395309427,1354.1687395309427,11485.312,13.969688
1354.1701284432404,1354.1701284432404,11511.101,13.983411
1354.171517355538,1354.171517355538,11504.387,13.978632
1354.1729062678342,1354.1729062678342,11517.13,13.984188
1354.1742951796653,1354.1742951796653,11498.594,13.976871
1354.175684091963,1354.175684091963,11511.375,13.980385
1354.1770730042595,1354.1770730042595,11510.516,13.978839
1354.1784619160912,1354.1784619160912,11507.465,13.971155
1354.1798508283882,1354.1798508283882,11519.14,13.984318
1354.1812397406852,1354.1812397406852,11499.669,13.974506
1354.182628652517,1354.182628652517,11521.746,13.984858
1354.1840175648135,1354.1840175648135,11523.373,13.985039
1354.1854064766455,1354.1854064766455,11499.07,13.977057
1354.1867953889423,1354.1867953889423,11496.1875,13.975542
1354.1881843007727,1354.1881843007727,11481.466,13.970439
1354.1895732130704,1354.1895732130704,11511.953,13.984446
1354.1909621249024,1354.1909621249024,11493.646,13.97628
1354.192351037199,1354.192351037199,11503.693,13.974929
1354.1937399490303,1354.1937399490303,11483.31,13.97395
1354.195128861327,1354.195128861327,11490.26,13.972991
1354.196517773159,1354.196517773159,11499.743,13.981142
1354.1979066849908,1354.1979066849908,11493.344,13.976895
1354.199295597287,1354.199295597287,11510.619,13.98178
1354.200684509118,1354.200684509118,11493.538,13.972544
1354.2020734214157,1354.2020734214157,11493.161,13.971747
1354.2034623332474,1354.2034623332474,11490.1875,13.972258
1354.2048512450783,1354.2048512450783,11497.489,13.975787
1354.206240156909,1354.206240156909,11506.053,13.980154
1354.2076290692066,1354.2076290692066,11476.527,13.970951
1354.2090179810384,1354.2090179810384,11528.262,13.980957
1354.2104068928693,1354.2104068928693,11496.428,13.978057
1354.2117958051663,1354.2117958051663,11515.179,13.989809
1354.2131847169976,1354.2131847169976,11496.725,13.978589
1354.2145736288294,1354.2145736288294,11501.163,13.977633
1354.2159625406612,1354.2159625406612,11509.234,13.982791
1354.2173514524916,1354.2173514524916,11517.642,13.982892
1354.218740364323,1354.218740364323,11509.588,13.986587
1354.2201292766204,1354.2201292766204,11499.584,13.97082
1354.2215181884515,1354.2215181884515,11479.569,13.96958
1354.2229071002835,1354.2229071002835,11518.071,13.983855
1354.2242960121143,1354.2242960121143,11499.561,13.970565
1354.2256849239457,1354.2256849239457,11502.608,13.981051
1354.2270738357774,1354.2270738357774,11477.741,13.967784
1354.2284627476088,1354.2284627476088,11504.681,13.979215
1354.2298516594396,1354.2298516594396,11503.894,13.977892
1354.231240571271,1354.231240571271,11503.903,13.977922
1354.232629483102,1354.232629483102,11508.82,13.984262
1354.234018394934,1354.234018394934,11509.899,13.983747
1354.2354073067659,1354.2354073067659,11504.24,13.982481
1354.236796218597,1354.236796218597,11480.13,13.971903
1354.238185130428,1354.238185130428,11497.881,13.981189
1354.2395740417937,1354.2395740417937,11499.337,13.972814
1354.2409629536255,1354.2409629536255,11491.508,13.970909
1354.2423518654573,1354.2423518654573,11494.957,13.974806
1354.2437407772877,1354.2437407772877,11507.789,13.972922
1354.245129689119,1354.245129689119,11506.105,13.98489
1354.2465186009508,1354.2465186009508,11510.5,13.98057
1354.247907512317,1354.247907512317,11491.893,13.971518
1354.2492964241483,1354.2492964241483,11497.823,13.971611
1354.2506853359787,1354.2506853359787,11521.14,13.984973
1354.2520742478105,1354.2520742478105,11491.147,13.972321
1354.2534631591766,1354.2534631591766,11487.127,13.962403
1354.254852071008,1354.254852071008,11494.331,13.97402
1354.2562409828388,1354.2562409828388,11514.96,13.980265
1354.2576298946701,1354.2576298946701,11512.758,13.98431
1354.2590188060362,1354.2590188060362,11498.35,13.978447
1354.260407717868,1354.260407717868,11511.632,13.978326
1354.2617966292328,1354.2617966292328,11492.5625,13.970689
1354.263185541064,1354.263185541064,11514.118,13.980462
1354.2645744528959,1354.2645744528959,11508.953,13.98092
1354.2659633642616,1354.2659633642616,11481.216,13.96375
1354.2673522760933,1354.2673522760933,11507.343,13.976895
1354.2687411874588,1354.2687411874588,11489.661,13.973743
1354.2701300992899,1354.2701300992899,11476.453,13.966225
1354.271519010656,1354.271519010656,11508.184,13.978548
1354.2729079224873,1354.2729079224873,11504.618,13.978082
1354.274296833853,1354.274296833853,11535.323,13.987354
1354.2756857456839,1354.2756857456839,11491.3125,13.976963
1354.2770746570495,1354.2770746570495,11491.779,13.977813
1354.2784635688813,1354.2784635688813,11515.087,13.974222
1354.2798524802474,1354.2798524802474,11484.495,13.966237
1354.2812413920788,1354.2812413920788,11503.207,13.97577
1354.282630303444,1354.282630303444,11511.882,13.97618
1354.2840192148096,1354.2840192148096,11499.4795,13.977873
1354.2854081266414,1354.2854081266414,11522.728,13.980499
1354.286797038007,1354.286797038007,11486.68,13.971791
1354.2881859493718,1354.2881859493718,11509.018,13.976966
1354.2895748612036,1354.2895748612036,11498.225,13.975088
1354.2909637725697,1354.2909637725697,11493.737,13.969806
1354.2923526839359,1354.2923526839359,11501.43,13.9734335
1354.2937415953015,1354.2937415953015,11514.285,13.980976
1354.295130507132,1354.295130507132,11502.105,13.971958
1354.296519418498,1354.296519418498,11517.628,13.9852085
1354.2979083298642,1354.2979083298642,11502.602,13.976665
1354.2992972412292,1354.2992972412292,11532.926,13.989069
1354.3006861525946,1354.3006861525946,11509.628,13.9777775
1354.3020750644264,1354.3020750644264,11492.95,13.971609
1354.3034639757925,1354.3034639757925,11520.149,13.981364
1354.3048528871589,1354.3048528871589,11481.75,13.966904
1354.3062417985238,1354.3062417985238,11504.236,13.975994
1354.307630709889,1354.307630709889,11487.556,13.976204
1354.3090196212552,1354.3090196212552,11504.395,13.976876
1354.3104085326208,1354.3104085326208,11481.748,13.966319
1354.311797443987,1354.311797443987,11501.268,13.975889
1354.3131863553526,1354.3131863553526,11515.093,13.981847
1354.314575266718,1354.314575266718,11467.484,13.961188
1354.3159641780844,1354.3159641780844,11514.533,13.980343
1354.3173530894496,1354.3173530894496,11524.236,13.982977
1354.3187420008153,1354.3187420008153,11491.61,13.968402
1354.3201309121807,1354.3201309121807,11514.894,13.980074
1354.3215198235462,1354.3215198235462,11499.584,13.972018
1354.3229087349123,1354.3229087349123,11492.313,13.9684105
1354.3242976462784,1354.3242976462784,11499.389,13.970496
1354.325686557644,1354.325686557644,11520.198,13.9815235
1354.3270754690097,1354.3270754690097,11506.501,13.973381
1354.328464380375,1354.328464380375,11506.906,13.975087
1354.3298532912754,1354.3298532912754,11507.546,13.976633
1354.331242202641,1354.331242202641,11497.073,13.971092
1354.3326311140058,1354.3326311140058,11492.122,13.97282
1354.334020025372,1354.334020025372,11505.303,13.982543
1354.3354089367383,1354.3354089367383,11544.755,13.989259
1354.336797847639,1354.336797847639,11509.939,13.97768
1354.3381867590042,1354.3381867590042,11522.951,13.983163
1354.339575670369,1354.339575670369,11489.794,13.968814
1354.3409645817353,1354.3409645817353,11493.682,13.974239
1354.342353492636,1354.342353492636,11487.513,13.967129
1354.3437424040007,1354.3437424040007,11495.161,13.971869
1354.345131315366,1354.345131315366,11502.794,13.975978
1354.3465202262666,1354.3465202262666,11494.037,13.967795
1354.347909137633,1354.347909137633,11525.079,13.9818
1354.3492980489991,1354.3492980489991,11485.131,13.966129
1354.3506869598982,1354.3506869598982,11522.426,13.980369
1354.3520758712637,1354.3520758712637,11505.052,13.973766
1354.35346478263,1354.35346478263,11499.268,13.972521
1354.3548536935295,1354.3548536935295,11510.872,13.979484
1354.3562426048952,1354.3562426048952,11504.992,13.978177
1354.357631515795,1354.357631515795,11502.078,13.974481
1354.3590204271613,1354.3590204271613,11496.544,13.97053
1354.3604093380618,1354.3604093380618,11503.684,13.976184
1354.3617982494272,1354.3617982494272,11493.989,13.972988
1354.363187160327,1354.363187160327,11499.324,13.9715805
1354.3645760716927,1354.3645760716927,11511.12,13.980328
1354.3659649825922,1354.3659649825922,11496.359,13.971224
1354.3673538939586,1354.3673538939586,11519.553,13.981126
1354.3687428048593,1354.3687428048593,11519.888,13.9844885
1354.3701317157588,1354.3701317157588,11481.357,13.964074
1354.3715206271245,1354.3715206271245,11481.821,13.969337
1354.3729095380243,1354.3729095380243,11501.503,13.97297
1354.374298448925,1354.374298448925,11482.083,13.969578
1354.3756873602902,1354.3756873602902,11505.898,13.982417
1354.3770762711893,1354.3770762711893,11478.181,13.964939
1354.37846518209,1354.37846518209,11487.908,13.971719
1354.3798540934563,1354.3798540934563,11493.321,13.968403
1354.3812430043567,1354.3812430043567,11499.776,13.978225
1354.3826319152565,1354.3826319152565,11507.804,13.979189
1354.3840208266215,1354.3840208266215,11520.458,13.984542
1354.385409737522,1354.385409737522,11501.384,13.974302
1354.3867986484224,1354.3867986484224,11510.1875,13.980455
1354.3881875593215,1354.3881875593215,11510.665,13.977736
1354.3895764702215,1354.3895764702215,11527.76,13.988406
1354.3909653815876,1354.3909653815876,11481.53,13.961223
1354.392354292488,1354.392354292488,11507.493,13.981548
1354.3937432033886,1354.3937432033886,11499.129,13.9669285
1354.3951321142877,1354.3951321142877,11505.389,13.975613
1354.3965210251877,1354.3965210251877,11521.159,13.979807
1354.3979099360881,1354.3979099360881,11482.57,13.968766
1354.3992988469881,1354.3992988469881,11498.63,13.9697275
1354.4006877583533,1354.4006877583533,11503.905,13.977074
1354.4020766692533,1354.4020766692533,11516.808,13.979859
1354.4034655801538,1354.4034655801538,11501.857,13.975166
1354.4048544910543,1354.4048544910543,11491.775,13.964902
1354.4062434019543,1354.4062434019543,11522.625,13.982398
1354.4076323128538,1354.4076323128538,11510.081,13.97763
1354.4090212237538,1354.4090212237538,11492.935,13.970088
1354.4104101346538,1354.4104101346538,11482.669,13.963494
1354.4117990455543,1354.4117990455543,11514.949,13.98154
1354.4131879564547,1354.4131879564547,11510.677,13.973656
1354.4145768673545,1354.4145768673545,11492.327,13.967596
1354.4159657777886,1354.4159657777886,11510.882,13.978913
1354.4173546886886,1354.4173546886886,11525.425,13.981596
1354.418743599589,1354.418743599589,11506.801,13.979266
1354.420132510489,1354.420132510489,11494.103,13.969107
1354.4215214213882,1354.4215214213882,11511.105,13.975709
1354.4229103322887,1354.4229103322887,11504.126,13.976637
1354.4242992431891,1354.4242992431891,11509.493,13.974722
1354.425688153624,1354.425688153624,11506.975,13.978448
1354.427077064524,1354.427077064524,11506.33,13.973333
1354.428465975423,1354.428465975423,11518.83,13.980662
1354.4298548863235,1354.4298548863235,11507.635,13.973958
1354.431243797224,1354.431243797224,11504.228,13.977774
1354.4326327076574,1354.4326327076574,11507.248,13.972496
1354.4340216185574,1354.4340216185574,11496.775,13.975839
1354.4354105294578,1354.4354105294578,11511.431,13.976888
1354.4367994403583,1354.4367994403583,11494.327,13.971948
1354.438188350793,1354.438188350793,11484.475,13.969588
1354.4395772616922,1354.4395772616922,11507.946,13.975826
1354.4409661725922,1354.4409661725922,11523.996,13.98702
1354.442355083027,1354.442355083027,11520.577,13.97895
1354.443743993927,1354.443743993927,11531.306,13.982029
1354.4451329043611,1354.4451329043611,11492.549,13.970133
1354.446521815261,1354.446521815261,11517.365,13.985277
1354.4479107261614,1354.4479107261614,11493.797,13.975683
1354.4492996365962,1354.4492996365962,11520.142,13.981088
1354.4506885474962,1354.4506885474962,11498.112,13.972607
1354.4520774579305,1354.4520774579305,11500.071,13.975122
1354.45346636883,1354.45346636883,11505.685,13.976244
1354.4548552792644,1354.4548552792644,11517.114,13.984802
1354.4562441901649,1354.4562441901649,11494.815,13.9699135
1354.4576331005997,1354.4576331005997,11508.658,13.98078
1354.4590220114997,1354.4590220114997,11520.644,13.980028
1354.4604109219338,1354.4604109219338,11504.602,13.972993
1354.4617998328335,1354.4617998328335,11525.49,13.978715
1354.4631887432683,1354.4631887432683,11510.301,13.983559
1354.4645776541684,1354.4645776541684,11488.376,13.969293
1354.4659665646018,1354.4659665646018,11472.756,13.966196
1354.4673554755022,1354.4673554755022,11502.851,13.972884
1354.468744385937,1354.468744385937,11505.695,13.975798
1354.4701332963718,1354.4701332963718,11502.681,13.977793
1354.4715222072718,1354.4715222072718,11500.823,13.96687
1354.4729111177053,1354.4729111177053,11492.567,13.974336
1354.47430002814,1354.47430002814,11517.587,13.978348
1354.4756889390405,1354.4756889390405,11507.013,13.974499
1354.4770778494742,1354.4770778494742,11512.856,13.978204
1354.4784667599083,1354.4784667599083,11491.482,13.965134
1354.4798556708088,1354.4798556708088,11502.817,13.972766
1354.4812445812438,1354.4812445812438,11493.275,13.971207
1354.4826334916788,1354.4826334916788,11516.722,13.979829
1354.4840224021123,1354.4840224021123,11499.133,13.973935
1354.4854113125461,1354.4854113125461,11502.53,13.9709215
1354.4868002234468,1354.4868002234468,11463.635,13.955988
1354.488189133881,1354.488189133881,11504.358,13.972755
1354.4895780443153,1354.4895780443153,11496.924,13.970802
1354.4909669547492,1354.4909669547492,11514.945,13.974158
1354.4923558651842,1354.4923558651842,11524.636,13.985027
1354.493744776085,1354.493744776085,11506.742,13.97847
1354.4951336865188,1354.4951336865188,11511.813,13.979655
1354.4965225969531,1354.4965225969531,11517.636,13.980573
1354.4979115073872,1354.4979115073872,11514.302,13.9828
1354.4993004178214,1354.4993004178214,11504.027,13.97827
1354.5006893282562,1354.5006893282562,11499.101,13.97301
1354.5020782386912,1354.5020782386912,11484.196,13.966717
1354.5034671491253,1354.5034671491253,11538.983,13.982202
1354.5048560595596,1354.5048560595596,11492.344,13.973148
1354.5062449699935,1354.5062449699935,11538.357,13.990173
1354.5076338804286,1354.5076338804286,11503.497,13.969371
1354.5090227908627,1354.5090227908627,11492.598,13.95924
1354.510411701296,1354.510411701296,11525.742,13.982598
1354.511800611731,1354.511800611731,11484.087,13.964985
1354.513189522166,1354.513189522166,11482.944,13.961236
1354.514578432601,1354.514578432601,11524.158,13.985213
1354.5159673430348,1354.5159673430348,11471.54,13.962178
1354.5173562534683,1354.5173562534683,11501.812,13.971217
1354.5187451639033,1354.5187451639033,11520.732,13.982414
1354.5201340743383,1354.5201340743383,11529.639,13.98654
1354.521522984306,1354.521522984306,11475.234,13.956885
1354.5229118947402,1354.5229118947402,11491.476,13.968188
1354.5243008051752,1354.5243008051752,11534.755,13.981828
1354.52568971561,1354.52568971561,11505.987,13.973303
1354.5270786260448,1354.5270786260448,11515.222,13.977328
1354.5284675364783,1354.5284675364783,11487.137,13.964817
1354.529856446447,1354.529856446447,11474.974,13.9566555
1354.5312453568818,1354.5312453568818,11501.181,13.967007
1354.5326342673156,1354.5326342673156,11502.84,13.968558
1354.53402317775,1354.53402317775,11485.843,13.96924
1354.5354120877187,1354.5354120877187,11468.227,13.959851
1354.5368009981535,1354.5368009981535,11483.855,13.965334
1354.5381899085883,1354.5381899085883,11537.754,13.982406
1354.5395788190226,1354.5395788190226,11496.905,13.970388
1354.5409677289908,1354.5409677289908,11495.248,13.970022
1354.5423566394252,1354.5423566394252,11507.273,13.9700575
1354.5437455498593,1354.5437455498593,11488.877,13.967977
1354.5451344598287,1354.5451344598287,11504.425,13.973592
1354.5465233702635,1354.5465233702635,11495.1,13.968965
1354.5479122806973,1354.5479122806973,11512.878,13.9665985
1354.549301190666,1354.549301190666,11511.14,13.975502
1354.5506901011004,1354.5506901011004,11517.453,13.980284
1354.5520790110695,1354.5520790110695,11517.09,13.969922
1354.5534679215034,1354.5534679215034,11520.93,13.984246
1354.5548568314714,1354.5548568314714,11495.541,13.972239
1354.5562457419064,1354.5562457419064,11512.997,13.973984
1354.5576346523412,1354.5576346523412,11484.734,13.965317
1354.5590235623104,1354.5590235623104,11486.871,13.961415
1354.5604124727447,1354.5604124727447,11515.075,13.977193
1354.5618013827125,1354.5618013827125,11526.262,13.981865
1354.5631902931473,1354.5631902931473,11502.86,13.969432
1354.5645792031164,1354.5645792031164,11510.453,13.97808
1354.5659681130842,1354.5659681130842,11512.002,13.969822
1354.5673570235185,1354.5673570235185,11500.983,13.973471
1354.5687459334877,1354.5687459334877,11487.682,13.967279
1354.5701348439225,1354.5701348439225,11487.22,13.960956
1354.5715237538916,1354.5715237538916,11526.017,13.982191
1354.572912664325,1354.572912664325,11512.012,13.978688
1354.5743015742937,1354.5743015742937,11487.857,13.967694
1354.5756904842629,1354.5756904842629,11499.021,13.965289
1354.5770793946972,1354.5770793946972,11513.144,13.980052
1354.5784683046654,1354.5784683046654,11526.023,13.980006
1354.579857214634,1354.579857214634,11519.193,13.978751
1354.581246125069,1354.581246125069,11498.795,13.963978
1354.582635035038,1354.582635035038,11504.156,13.971411
1354.5840239450067,1354.5840239450067,11485.743,13.969147
1354.5854128549752,1354.5854128549752,11504.713,13.97175
1354.5868017654093,1354.5868017654093,11516.588,13.979372
1354.588190675378,1354.588190675378,11521.7,13.980284
1354.589579585347,1354.589579585347,11487.89,13.961647
1354.5909684953162,1354.5909684953162,11488.225,13.967129
1354.5923574057506,1354.5923574057506,11471.304,13.960573
1354.5937463157188,1354.5937463157188,11499.515,13.966025
1354.5951352256875,1354.5951352256875,11497.583,13.966184
1354.5965241356566,1354.5965241356566,11510.272,13.978294
1354.5979130456253,1354.5979130456253,11505.762,13.974132
