time,time,flux,flux_err
1325.2988002737147,1325.2988002737147,0.9998812336502879,0.0002687111926413234
1325.3071335319853,1325.3071335319853,1.0001418177980208,0.0002688313001326859
1325.3147723523448,1325.3147723523448,1.0000239384566556,0.00024544149557228763
1325.3217167347195,1325.3217167347195,0.999966046605544,0.0002454411779466647
1325.3286611173094,1325.3286611173094,1.0001877219762147,0.0002455636195923723
1325.3356055001148,1325.3356055001148,0.9998683106697046,0.0002455560667209109
1325.3425498831236,1325.3425498831236,0.9997735319365237,0.00024560899966787585
1325.3494942663424,1325.3494942663424,1.0002670841626735,0.0002457298684921218
1325.356438649759,1325.356438649759,0.9999167143582544,0.0002457551848923236
1325.3633830333906,1325.3633830333906,0.9999973054032723,0.0002458475200513306
1325.3703274172265,1325.3703274172265,0.9998596467944323,0.0002459024045964436
1325.377271801254,1325.377271801254,0.9998326217442084,0.00024598306941464403
1325.38421618548,1325.38421618548,1.0002570764678407,0.0002460910104646393
1325.3911605699036,1325.3911605699036,0.9999780644969383,0.000246172854867233
1325.3981049545362,1325.3981049545362,1.0000788217957677,0.0002462567832752827
1325.405049339356,1325.405049339356,1.0000892149891156,0.00024629797781273267
1325.4119937243554,1325.4119937243554,0.9998373396867862,0.00024636160552408775
1325.418938109565,1325.418938109565,1.0001126090335322,0.00024643013156460297
1325.425882494943,1325.425882494943,0.9998273675081861,0.0002464668743732823
1325.4328268805132,1325.4328268805132,1.0000967730085124,0.0002465595632027447
1325.4397712662699,1325.4397712662699,1.00010451495957,0.0002466199735306235
1325.4467156522126,1325.4467156522126,1.000047957959644,0.00024670488369111176
1325.4536600383296,1325.4536600383296,0.9997359820396106,0.000246698819893655
1325.4606044246275,1325.4606044246275,1.0002336908658742,0.0002468418267886265
1325.4675488110997,1325.4675488110997,1.0001603066265201,0.00024689671440868404
1325.474493197747,1325.474493197747,0.9998840386911635,0.00024694356972092995
1325.4814375845804,1325.4814375845804,0.9999472768532828,0.0002470131372882348
1325.4883819715828,1325.4883819715828,0.9999702337732197,0.00024710905865423893
1325.4953263587417,1325.4953263587417,0.9999428311560848,0.0002471824432964103
1325.5022707460814,1325.5022707460814,0.9997453387202146,0.0002472508392717833
1325.5092151335846,1325.5092151335846,1.0001119535174483,0.0002473846173826582
1325.5161595212498,1325.5161595212498,0.9999824193334526,0.00024746761150461563
1325.523103909096,1325.523103909096,1.0005727416048034,0.00024759409056834104
1325.5300482970874,1325.5300482970874,0.9998744919065505,0.0002475945585835102
1325.5369926852422,1325.5369926852422,0.9996059617876139,0.00024764113772666075
1325.5439370735544,1325.5439370735544,0.9999042864029738,0.0002477541585951937
1325.550881462023,1325.550881462023,0.9999979520694456,0.00024784649972364145
1325.5578258506553,1325.5578258506553,0.9999238357422955,0.0002479113348460171
1325.5647702394385,1325.5647702394385,1.000316700399468,0.00024800331872133036
1325.5717146283728,1325.5717146283728,1.0000652860132697,0.00024807217957890557
1325.5786590174534,1325.5786590174534,1.0000305913324217,0.00024812638958536445
1325.5856034066906,1325.5856034066906,1.000079154139937,0.0002482295382497801
1325.5925477960732,1325.5925477960732,1.0000457827093308,0.0002482515932755936
1325.5994921856015,1325.5994921856015,0.9999449051309319,0.0002482757844576294
1325.6064365752695,1325.6064365752695,0.9996068513740571,0.0002482826669578826
1325.613380965089,1325.613380965089,1.0001691936713466,0.0002483680102109435
1325.620325355048,1325.620325355048,1.0001813378066087,0.0002483946282609359
1325.6272697451527,1325.6272697451527,0.9999661476652213,0.0002484027620064631
1325.6342141353912,1325.6342141353912,0.9996746264105342,0.0002483771419709897
1325.6411585257522,1325.6411585257522,1.0003166748403398,0.00024844351746838763
1325.6481029162696,1325.6481029162696,0.9997275071960144,0.00024840394185907577
1325.6550473069158,1325.6550473069158,0.9998651882020392,0.0002483957805255403
1325.6619916976952,1325.6619916976952,1.0000438119881925,0.0002484452624691537
1325.6689360886035,1325.6689360886035,1.0000674021981657,0.00024841825838189393
1325.675880479645,1325.675880479645,0.9999939341025007,0.0002484380130666368
1325.682824870815,1325.682824870815,1.0004494614250816,0.0002484560147510091
1325.6897692621128,1325.6897692621128,1.000145443733123,0.0002484478799052729
1325.6967136535386,1325.6967136535386,0.9999050167569132,0.00024845692565338953
1325.7036580450867,1325.7036580450867,0.9998069781427492,0.00024842847752679466
1325.7106024367572,1325.7106024367572,0.999729921112096,0.0002484795166712455
1325.71754682855,1325.71754682855,1.000003480819803,0.0002485329940223913
1325.7244912204646,1325.7244912204646,1.0000887231927322,0.00024859018452795127
1325.7314356125075,1325.7314356125075,1.0001850776560341,0.0002486213313655643
1325.7383800046612,1325.7383800046612,0.9999674215847669,0.00024864629974026596
1325.7453243969308,1325.7453243969308,0.9999560930969673,0.00024867734051622827
1325.7522687893172,1325.7522687893172,0.9997824883732207,0.0002486996039945308
1325.7592131818317,1325.7592131818317,1.000140247452507,0.0002487743187801274
1325.766157574439,1325.766157574439,0.9999722110094679,0.0002488316394314584
1325.773101967169,1325.773101967169,1.000217499387809,0.00024886624161164805
1325.780046360009,1325.780046360009,0.9998754038849615,0.000248902186228329
1325.7869907529662,1325.7869907529662,0.9996641182594825,0.00024892567039063384
1325.7939351460218,1325.7939351460218,1.0003056223118052,0.000249002592031479
1325.8008795391881,1325.8008795391881,1.0000752307342478,0.00024902923216227606
1325.8078239324711,1325.8078239324711,1.000028185204278,0.0002490393331781294
1325.8147683258408,1325.8147683258408,0.9999792030529614,0.000249055323494113
1325.8217127193275,1325.8217127193275,1.000050060216156,0.0002490899962191314
1325.8286571129129,1325.8286571129129,0.9998356354043183,0.0002491014334172697
1325.8356015066088,1325.8356015066088,1.0000385544860033,0.0002491688519747238
1325.8425459003981,1325.8425459003981,1.0000879179310638,0.0002491667075566465
1325.849490294286,1325.849490294286,0.9999445490037825,0.0002491310407461301
1325.8564346882847,1325.8564346882847,0.99999351154783,0.0002491368325983162
1325.8633790823708,1325.8633790823708,1.0001526335977495,0.0002491384635419677
1325.8703234765558,1325.8703234765558,0.9996278596618675,0.00024904472476840493
1325.877267870834,1325.877267870834,1.0002354630771817,0.00024905599254317485
1325.8842122652227,1325.8842122652227,1.0000629267585472,0.0002489867780106678
1325.891156659693,1325.891156659693,0.9995637811061127,0.0002488873753676481
1325.8981010542616,1325.8981010542616,1.0003543417400171,0.0002489374718809354
1325.9050454489125,1325.9050454489125,0.9998296125462829,0.0002488643459456725
1325.911989843656,1325.911989843656,0.9996379351921283,0.00024880703564665417
1325.918934238493,1325.918934238493,1.0004565384122226,0.0002488568325496382
1325.925878633429,1325.925878633429,1.000168652552985,0.0002488282699010634
1325.932823028446,1325.932823028446,1.000169227695156,0.0002488417505543669
1325.939767423545,1325.939767423545,0.9998880919033531,0.00024876210460976646
1325.946711818737,1325.946711818737,0.9998708359354529,0.00024876498158530425
1325.953656214016,1325.953656214016,1.0002303274205602,0.0002487883606385757
1325.9611561610122,1325.9611561610122,1.000086937312923,0.00024877065504217344
1325.9689338839148,1325.9689338839148,0.9995276342771952,0.0002487273713312996
1325.9758782794618,1325.9758782794618,0.9999397574536969,0.00024875625930058517
1325.9828226750842,1325.9828226750842,0.999920653618803,0.0002487682588866918
1325.9897670707944,1325.9897670707944,1.000040359543266,0.00024876887197469624
1325.9967114665858,1325.9967114665858,1.0000620420537758,0.0002488055826104413
1326.0036558624472,1326.0036558624472,1.0000767035644618,0.0002488256523945663
1326.01060025839,1326.01060025839,1.0000768117334884,0.0002488782755448758
1326.0175446544145,1326.0175446544145,1.0000902910093656,0.0002489026304375509
1326.0244890505144,1326.0244890505144,1.0003029856989172,0.0002490032538947852
1326.0314334467016,1326.0314334467016,0.9995430121710036,0.0002489248798169813
1326.038377842947,1326.038377842947,1.0002178541326725,0.000248967371806913
1326.0453222392684,1326.0453222392684,0.9998985764732684,0.0002489229148978434
1326.0522666356765,1326.0522666356765,1.0001076928963353,0.0002489634701101976
1326.0592110321436,1326.0592110321436,0.9996744257104396,0.0002489641406826736
1326.0661554286976,1326.0661554286976,0.9999325875725699,0.0002489794090141781
1326.0730998253034,1326.0730998253034,1.0001801241411379,0.00024902773226494906
1326.080044221998,1326.080044221998,1.0000074514884576,0.0002489942432883356
1326.0869886187552,1326.0869886187552,0.9998486773664087,0.0002489943240368358
1326.0939330155832,1326.0939330155832,0.9999975081269493,0.0002490296830564119
1326.1008774124805,1326.1008774124805,1.0002408422070748,0.00024906750381036523
1326.1078218094476,1326.1078218094476,1.0001168581699313,0.00024903844195006084
1326.1147662064848,1326.1147662064848,1.0002400058573033,0.00024907069532745094
1326.12171060358,1326.12171060358,0.9998015605309153,0.00024900355061759294
1326.1286550007512,1326.1286550007512,0.9995888008427153,0.0002489795249288859
1326.1355993979803,1326.1355993979803,1.0000158296627446,0.00024906726072040626
1326.1425437952737,1326.1425437952737,1.0000546881525652,0.00024903328102447687
1326.1494881926312,1326.1494881926312,1.0000591349875934,0.00024902432849147115
1326.1564325900579,1326.1564325900579,1.000177854999269,0.00024905392333284795
1326.1633769875439,1326.1633769875439,0.9998233236372679,0.00024904705695885535
1326.1703213850926,1326.1703213850926,0.9999217081900726,0.0002490290767666179
1326.1772657827003,1326.1772657827003,1.000227935397295,0.0002490572582348766
1326.1842101803777,1326.1842101803777,1.000005316607551,0.0002490218957987552
1326.1911545781013,1326.1911545781013,0.9999422144624788,0.00024898904105818845
1326.1980989759015,1326.1980989759015,0.9999641578082066,0.0002490194234544602
1326.2050433737415,1326.2050433737415,0.9998333536565198,0.0002490350199308699
1326.2119877716464,1326.2119877716464,1.0001264373445884,0.000249054962868623
1326.218932169609,1326.218932169609,1.000094202975387,0.0002490112717440599
1326.225876567641,1326.225876567641,1.0001980244516604,0.00024903153109395504
1326.2328209657146,1326.2328209657146,1.0000230059055515,0.0002490361608782293
1326.2397653638516,1326.2397653638516,0.9998056800470568,0.00024899989003125526
1326.2467097620472,1326.2467097620472,0.9997190988588501,0.00024896827149461847
1326.2536541602951,1326.2536541602951,1.0000002808034452,0.0002490059659721728
1326.2605985585897,1326.2605985585897,0.9997636919980659,0.00024898712289517894
1326.2675429569479,1326.2675429569479,1.0001650972836935,0.00024900619390263404
1326.2744873553527,1326.2744873553527,1.0002707351281905,0.0002490271862958469
1326.2814317538223,1326.2814317538223,1.0002773465165151,0.000249017203584031
1326.2883761523317,1326.2883761523317,0.9998721891545088,0.00024894207112075066
1326.2953205508938,1326.2953205508938,0.9999882692635584,0.0002489627027189715
1326.302264949514,1326.302264949514,0.9999891879488902,0.0002489844424785702
1326.3092093481814,1326.3092093481814,1.0004504412894453,0.0002490608132573294
1326.316153746901,1326.316153746901,0.9997850756655756,0.00024900439126992167
1326.3230981456663,1326.3230981456663,0.9995458709825378,0.00024897622488247645
1326.3300425444795,1326.3300425444795,0.9998661448040576,0.00024903595087376134
1326.3369869433495,1326.3369869433495,0.9999203950274695,0.00024904815175418103
1326.3439313422668,1326.3439313422668,1.0000411519652412,0.0002490211408096152
1326.3536535008247,1326.3536535008247,0.9995288284605721,0.00024905317832845823
1326.360597899852,1326.360597899852,1.0000604931239783,0.00024910123320198
1326.3675422989327,1326.3675422989327,1.0001767229369931,0.0002491594142869895
1326.3744866980414,1326.3744866980414,1.0004306443071944,0.00024919348540320004
1326.3814310972211,1326.3814310972211,0.999974226396343,0.00024915301923051985
1326.3883754964293,1326.3883754964293,0.9998592626984093,0.0002491604114673475
1326.3953198956838,1326.3953198956838,0.9998309466446378,0.00024918753517237365
1326.4022642949917,1326.4022642949917,1.0004327329419103,0.0002492999215992986
1326.4092086943397,1326.4092086943397,0.9998410753652079,0.000249229794061615
1326.4161530937283,1326.4161530937283,0.9993248147542962,0.0002492059101954004
1326.4230974931634,1326.4230974931634,0.9998525316696254,0.00024925271579505885
1326.4300418926452,1326.4300418926452,1.0003271482283569,0.0002493475952421046
1326.4369862921562,1326.4369862921562,1.0005230140422596,0.0002493895197811822
1326.4439306917257,1326.4439306917257,0.9996039044688517,0.0002493167728189255
1326.4508750913237,1326.4508750913237,1.000240629116949,0.0002493770289169087
1326.4578194909684,1326.4578194909684,0.9995794438986826,0.0002493305944969067
1326.464763890648,1326.464763890648,1.0001156559334876,0.0002493910127740383
1326.4717082903746,1326.4717082903746,1.0002989108596607,0.00024944602990647325
1326.4786526901357,1326.4786526901357,1.0000797443341125,0.000249441846293534
1326.4855970899496,1326.4855970899496,1.0000410315652162,0.00024947140338713915
1326.4925414897805,1326.4925414897805,1.0000136362011256,0.0002494844904851754
1326.4994858896703,1326.4994858896703,0.9998352205205382,0.0002495047405500924
1326.506430289588,1326.506430289588,0.9998602175149524,0.00024954090637192486
1326.5133746895533,1326.5133746895533,0.9999976150443249,0.000249554190901573
1326.5203190895475,1326.5203190895475,0.9998397058661744,0.00024960053956799407
1326.5272634895825,1326.5272634895825,0.999879089068699,0.0002496082259858751
1326.534207889646,1326.534207889646,0.9998865881402412,0.00024962494044017506
1326.5411522897625,1326.5411522897625,1.0006446526973767,0.000249754242567214
1326.5480966898904,1326.5480966898904,1.000203734942098,0.0002497647387497971
1326.5550410900826,1326.5550410900826,0.9998025172459339,0.00024972552812612124
1326.5619854902977,1326.5619854902977,0.9996615756837016,0.00024970747919028137
1326.5689298905422,1326.5689298905422,1.0001507337018039,0.00024979088927587305
1326.5758742908333,1326.5758742908333,1.0001641198805742,0.00024979845420799947
1326.5828186911529,1326.5828186911529,0.9999436765323105,0.0002497868687653159
1326.589763091508,1326.589763091508,0.9998729278387772,0.00024979847678437643
1326.5967074918922,1326.5967074918922,0.999581330017324,0.0002497819451064501
1326.6036518923231,1326.6036518923231,1.0001026828106707,0.00024985488399150324
1326.610596292777,1326.610596292777,1.0001503669367324,0.00024985988827519185
1326.6175406932598,1326.6175406932598,1.0001257563778831,0.00024988780129728044
1326.6244850937835,1326.6244850937835,1.0002061220201315,0.00024988608870956243
1326.6314294943363,1326.6314294943363,1.0000518393724893,0.0002498890026389239
1326.6383738949185,1326.6383738949185,1.0001250832741184,0.00024990400718508387
1326.6453182955354,1326.6453182955354,0.9995541704836995,0.00024986095602151637
1326.6522626961817,1326.6522626961817,0.9999093064636343,0.00024985494693835605
1326.6592070968627,1326.6592070968627,1.0001908018318548,0.0002498829234321979
1326.666151497578,1326.666151497578,1.000030028550439,0.0002498580363614405
1326.6730958983233,1326.6730958983233,1.000288666193263,0.00024984104553388276
1326.6800402990857,1326.6800402990857,1.0000488066677737,0.00024982948869336217
1326.68781802799,1326.68781802799,0.9998163621854494,0.00024979083062486626
1326.6953179808875,1326.6953179808875,0.9998546812809186,0.0002497685143030398
1326.7022623817488,1326.7022623817488,0.9999775397774873,0.00024976348245033843
1326.709484558681,1326.709484558681,0.999967452727477,0.00024971996214747207
1326.7175400637602,1326.7175400637602,0.9998635883069555,0.0002496794719496863
1326.724484464715,1326.724484464715,0.9999204491930408,0.0002496471520418218
1326.7314288657044,1326.7314288657044,1.0000122327210987,0.00024969704560245915
1326.7383732667229,1326.7383732667229,1.0002073391306054,0.00024967667010972503
1326.7453176677593,1326.7453176677593,0.9998834563013717,0.0002495896353745078
1326.7522620688235,1326.7522620688235,1.0001910666258098,0.00024964386756741095
1326.7592064699243,1326.7592064699243,1.0000251406596814,0.0002495779539791947
1326.766150871047,1326.766150871047,1.0000909492952383,0.0002495981452101165
1326.773095272194,1326.773095272194,0.9999446097056834,0.00024958340042479103
1326.7800396733755,1326.7800396733755,1.0001806460219937,0.00024959664037878303
1326.7869840745686,1326.7869840745686,1.0000239826541197,0.0002495699739474542
1326.7939284757967,1326.7939284757967,0.9995267037023329,0.00024955214390240475
1326.800872877054,1326.800872877054,1.0000510683664046,0.00024962296784716197
1326.8078172783287,1326.8078172783287,0.9998264561336384,0.0002496071695365474
1326.814761679632,1326.814761679632,1.0000009418123312,0.00024963358025192634
1326.8217060809595,1326.8217060809595,1.0003138073602655,0.0002496578307845152
1326.8286504823213,1326.8286504823213,0.9997494776462416,0.0002495742639116533
1326.835594883695,1326.835594883695,1.0001704911109681,0.0002496489070053526
1326.842539285098,1326.842539285098,1.0005530392686122,0.0002496503451847278
1326.849483686518,1326.849483686518,1.0001792135869998,0.0002496098144096654
1326.856428087973,1326.856428087973,0.9998957246383119,0.0002495792235048648
1326.8633724894457,1326.8633724894457,0.9997015999733149,0.00024949584483773246
1326.8703168909358,1326.8703168909358,1.0002213115507543,0.00024956454955624895
1326.8772612924606,1326.8772612924606,0.9999440874735825,0.0002495262325562996
1326.884205694003,1326.884205694003,1.0000977652589944,0.00024944428960809524
1326.8911500955687,1326.8911500955687,0.9998655833118455,0.0002494007790356422
1326.8980944971577,1326.8980944971577,1.000013707932958,0.00024936050994990057
1326.9050388987757,1326.9050388987757,1.000057352138551,0.0002493386050729378
1326.9119833003938,1326.9119833003938,0.9998182952224883,0.00024925645147177896
1326.9189277020528,1326.9189277020528,1.0000312401852647,0.000249200410117688
1326.9258721037231,1326.9258721037231,0.9999095479472462,0.00024910358812317937
1326.9328165054171,1326.9328165054171,1.0002686560853864,0.00024910080634167755
1326.939760907134,1326.939760907134,0.9997415363324818,0.0002489936766027159
1326.9467053088686,1326.9467053088686,1.0000199036974802,0.00024899262579563
1326.9536497106262,1326.9536497106262,1.0002911058687285,0.0002489952947422516
1326.9605941124132,1326.9605941124132,1.0002093272576493,0.00024893632926655207
1326.9675385142116,1326.9675385142116,1.0000384201054318,0.00024889231124718353
1326.9744829160275,1326.9744829160275,0.9998574550512751,0.0002488349748152244
1326.981427317873,1326.981427317873,0.9998348349332202,0.00024879342431031624
1326.9883717197295,1326.9883717197295,1.000043203160858,0.000248767727105391
1326.9953161216156,1326.9953161216156,0.9997658815487112,0.00024871944183605966
1327.0022605234954,1327.0022605234954,0.9998304138444537,0.0002487452456636929
1327.0092049254336,1327.0092049254336,0.9998200899453995,0.00024872418189753325
1327.0161493273602,1327.0161493273602,1.0003551190237014,0.00024873224490992333
1327.0230937293218,1327.0230937293218,1.0000054291964315,0.0002487133269146526
1327.030038131301,1327.030038131301,1.0001160802065443,0.0002487358221448147
1327.0369825332855,1327.0369825332855,0.9999326702919081,0.00024869927999011504
1327.0439269352996,1327.0439269352996,0.9998688139328017,0.0002486951767994387
1327.050871337325,1327.050871337325,1.0003619718399177,0.0002487312209645238
1327.058371291544,1327.058371291544,1.0002502014601142,0.0002487392197681389
