time,time,flux,flux_err
1468.2805246369,1468.2805246369,1.0009415931081567,0.0003525238519287804
1468.2888579612872,1468.2888579612872,1.000349081284288,0.00035238501716339195
1468.2964968418808,1468.2964968418808,1.000245346939414,0.00032168575138965736
1468.3034412785726,1468.3034412785726,0.9999838329883216,0.0003217201697984773
1468.3103857151714,1468.3103857151714,1.0000595576471576,0.000321627349118287
1468.3173301516767,1468.3173301516767,0.9998587714814391,0.00032161253588350276
1468.3242745881817,1468.3242745881817,0.9992852724135497,0.0003216120981011257
1468.331219024408,1468.331219024408,0.9996170424183461,0.00032166302657855134
1468.3381634605407,1468.3381634605407,0.9995407088100304,0.0003218672727796232
1468.3451078966737,1468.3451078966737,1.0001353181265515,0.0003216302787632254
1468.3520523325271,1468.3520523325271,0.9996671792588465,0.00032157306781358284
1468.3589967682874,1468.3589967682874,0.9996708926566542,0.0003216702030853202
1468.3659412040479,1468.3659412040479,0.9997505456366442,0.00032164608694385075
1468.3728856396217,1468.3728856396217,0.9998344373826203,0.00032160722999977136
1468.3817745169295,1468.3817745169295,1.0004095618250226,0.0003217242190549298
1468.3964967197167,1468.3964967197167,0.9998643598762504,0.0003216267361997586
1468.4034411546393,1468.4034411546393,0.9997455363654936,0.00032181901343972876
1468.4103855896544,1468.4103855896544,1.0002625625339945,0.00032169317719063127
1468.41733002439,1468.41733002439,1.0003776728795877,0.0003217979527664856
1468.4242744592189,1468.4242744592189,0.9998616779544294,0.0003216383839793319
1468.4312188937688,1468.4312188937688,0.9998148061613998,0.0003215368611359003
1468.4381633281323,1468.4381633281323,0.9998418892774421,0.00032174028680567095
1468.4451077624954,1468.4451077624954,1.0002191302357013,0.0003216948272610291
1468.4520521967656,1468.4520521967656,0.9997148053729947,0.0003216842178246743
1468.4589966308497,1468.4589966308497,0.9999680195833213,0.00032171879458947215
1468.46594106484,1468.46594106484,1.0001703658060344,0.00032168294053160995
1468.4728854987384,1468.4728854987384,0.9999898618703904,0.00032162016892126825
1468.479829932356,1468.479829932356,1.0000184835539532,0.0003215546828496098
1468.486774366254,1468.486774366254,0.9999453317059652,0.0003215524526805521
1468.4937187996861,1468.4937187996861,0.9998975340290732,0.00032159582131915053
1468.5006632331183,1468.5006632331183,0.9999411235552056,0.0003216126225183698
1468.507607666364,1468.507607666364,0.9996446754099569,0.00032165455581278316
1468.5145520995163,1468.5145520995163,1.0007182118764082,0.00032157923378651863
1468.5214965325763,1468.5214965325763,1.000027248710257,0.0003215467720860415
1468.5284409655426,1468.5284409655426,0.9998657895460308,0.0003215899063890007
1468.5353853982294,1468.5353853982294,1.0004916112616857,0.00032152353504245207
1468.542329831103,1468.542329831103,0.9999514795717754,0.0003215780483426924
1468.549274263603,1468.549274263603,0.9997167403145172,0.0003214152965223969
1468.5562186960108,1468.5562186960108,0.9996420769928799,0.0003215438579974623
1468.5631631284189,1468.5631631284189,0.9999157564101507,0.0003216574955673835
1468.570107560547,1468.570107560547,0.9999044684449039,0.0003215421960486354
1468.5770519927678,1468.5770519927678,1.000134957283918,0.0003215483401282313
1468.583996424803,1468.583996424803,0.9998583101677967,0.00032152897142213047
1468.5909408567447,1468.5909408567447,0.9999973505113063,0.0003215627866265954
1468.5978852884073,1468.5978852884073,1.00080811114995,0.000321646869876838
1468.60482972007,1468.60482972007,0.9996953879310697,0.0003215560254517742
1468.6117741516393,1468.6117741516393,0.9997666627666298,0.0003214382780557636
1468.6187185830222,1468.6187185830222,0.9999609427066991,0.00032148913291498907
1468.6256630144057,1468.6256630144057,0.9998710381045847,0.0003214035894149601
1468.6326074455096,1468.6326074455096,1.0002276742211982,0.0003214369839556437
1468.6395518766128,1468.6395518766128,0.9996598175406588,0.00032156810022596836
1468.6464963076237,1468.6464963076237,1.0003929899125628,0.00032159108152585516
1468.6534407383547,1468.6534407383547,1.000017798960224,0.0003214708137625668
1468.6603851690859,1468.6603851690859,1.0002146651304655,0.00032140461931254527
1468.6673295997243,1468.6673295997243,1.000442337704367,0.00032143852901591913
1468.6742740301756,1468.6742740301756,0.9994196882315457,0.00032135333620585165
1468.6812184606274,1468.6812184606274,0.9998356102162076,0.0003213928309938472
1468.6881628908932,1468.6881628908932,0.999999306710915,0.000321482101193492
1468.6951073209725,1468.6951073209725,0.9998827519922315,0.00032137879354761
1468.7020517510523,1468.7020517510523,0.9998047551313036,0.0003213464418585262
1468.7089961810377,1468.7089961810377,1.0002853868772053,0.0003214292428083989
1468.7159406107446,1468.7159406107446,1.0000847743770305,0.0003214673708886911
1468.7228850403583,1468.7228850403583,0.9999517565751441,0.00032135199137875187
1468.7298294699717,1468.7298294699717,0.99989571570508,0.0003214134857601106
1468.7367738993994,1468.7367738993994,0.9999889275363019,0.00032137444169955023
1468.7437183287332,1468.7437183287332,0.9999256056917772,0.0003213401444980738
1468.7506627579744,1468.7506627579744,1.000051023520745,0.000321311668537491
1468.7576071871224,1468.7576071871224,1.0001388158983917,0.00032147903594458103
1468.7645516159912,1468.7645516159912,1.0000286782535066,0.0003213082061523745
1468.7714960447668,1468.7714960447668,0.9999519888169445,0.0003213638746409398
1468.7784404735417,1468.7784404735417,1.0004149628091905,0.0003213640518327144
1468.785384902317,1468.785384902317,0.9997971073691246,0.000321364638057972
1468.7923293309068,1468.7923293309068,0.999997126026372,0.0003213837784588864
1468.7992737593095,1468.7992737593095,1.000319472679732,0.00032154615312617073
1468.806218187619,1468.806218187619,1.0000161167855808,0.0003214234232059714
1468.8131626157424,1468.8131626157424,0.9997436880698704,0.0003214045704856203
1468.8201070438658,1468.8201070438658,0.999536526171158,0.00032135342270277884
1468.8270514718033,1468.8270514718033,1.000304912943029,0.000321329763720988
1468.8339958996476,1468.8339958996476,0.9994949126728446,0.0003212770228418678
1468.8409403273051,1468.8409403273051,0.999564054579402,0.0003212987605981505
1468.84788475487,1468.84788475487,1.000045119040832,0.00032124074504881575
1468.8548291824347,1468.8548291824347,1.000294017669577,0.00032134989058613686
1468.861773609813,1468.861773609813,1.0008031988671342,0.0003213546635584271
1468.8687180370987,1468.8687180370987,0.9999353734582916,0.00032118859809572277
1468.8756624641971,1468.8756624641971,1.0003625762393928,0.00032122301931384125
1468.8826068912963,1468.8826068912963,1.0000176955975166,0.00032142949900131995
1468.8895513181162,1468.8895513181162,0.9995762154206451,0.00032124550355279306
1468.896495745029,1468.896495745029,0.9996095168996803,0.0003213295073912192
1468.9034401716624,1468.9034401716624,0.9996739849554144,0.0003210296230329398
1468.9103845983889,1468.9103845983889,1.0001501512529143,0.00032120026836787816
1468.9173290248357,1468.9173290248357,1.0002856192786518,0.0003212979329964594
1468.9242734510972,1468.9242734510972,1.000520497289598,0.0003213074355534133
1468.9312178772645,1468.9312178772645,0.999888555946497,0.00032132939717399565
1468.9381623034321,1468.9381623034321,0.9997217283951864,0.00032114470060219327
1468.9451067294135,1468.9451067294135,1.000475397939867,0.00032122923352351023
1468.9520511553017,1468.9520511553017,1.0001847288897794,0.00032133716832290427
1468.9592733580619,1468.9592733580619,0.9993991288417472,0.0003212158466518129
1468.9673288918093,1468.9673288918093,0.999897422721185,0.00032128794495472646
1468.974273317418,1468.974273317418,0.9995135552194249,0.00032128736525575204
1468.9812177427477,1468.9812177427477,1.0000767528174337,0.00032136619628139556
1468.9881621680768,1468.9881621680768,1.000091538931815,0.0003212694545047983
1468.9951065932205,1468.9951065932205,1.0001230168999116,0.0003213018744804602
1469.0020510183638,1469.0020510183638,0.999963708414483,0.0003210969588532326
1469.0089954432274,1469.0089954432274,0.9999247402166744,0.00032107471559012315
1469.0159398680912,1469.0159398680912,1.0003188627060715,0.0003211131012534027
1469.022884292769,1469.022884292769,1.000594317062825,0.0003211387521107679
1469.029828717447,1469.029828717447,0.9997788320188299,0.00032113425967605165
1469.0367731420313,1469.0367731420313,0.9996439448616987,0.00032111025742004307
1469.0437175662432,1469.0437175662432,0.9997671501347127,0.0003211350238561562
1469.0506619907344,1469.0506619907344,1.000189811648127,0.0003212185113436553
1469.0576064148531,1469.0576064148531,1.000106554097275,0.0003211457318998048
1469.064550838972,1469.064550838972,0.9997542709296503,0.00032104445043734827
1469.0714952626254,1469.0714952626254,0.9998465375517668,0.0003210692070322576
1469.0784396865579,1469.0784396865579,1.000018764714996,0.00032118910543414556
1469.085384110211,1469.085384110211,1.000180002887788,0.0003210592299810864
1469.0923285338642,1469.0923285338642,1.0002544912568037,0.000321097808885358
1469.099272957331,1469.099272957331,1.0002679619164592,0.0003211279330558996
1469.1062173807045,1469.1062173807045,1.0004507732535002,0.000321128880058492
1469.1131618038926,1469.1131618038926,0.9998825925292577,0.0003211111232843952
1469.1201062270798,1469.1201062270798,1.0000327962807554,0.0003211575138120804
1469.127050650081,1469.127050650081,1.0001040940484696,0.00032105152339264394
1469.1339950729894,1469.1339950729894,0.9995595921699397,0.0003210357663399602
1469.140939495804,1469.140939495804,1.0000263881924591,0.0003211149566208599
1469.147883918433,1469.147883918433,0.9997679926330273,0.00032100703726455906
1469.1548283410616,1469.1548283410616,1.0002020766101798,0.00032117700190123293
1469.1617727634105,1469.1617727634105,0.9997447314615829,0.00032108802661343257
1469.16871718576,1469.16871718576,1.0004299403183616,0.0003212271759347726
1469.1756616081097,1469.1756616081097,1.0004586401427322,0.0003211067800868733
1469.1826060301796,1469.1826060301796,1.0000533941078775,0.00032127905542846607
1469.1895504521563,1469.1895504521563,0.9996275320649556,0.000321051949848094
1469.1964948739464,1469.1964948739464,1.0002146558630212,0.0003210930594150014
1469.203439295737,1469.203439295737,0.9996531634228214,0.0003210164942010333
1469.2103837175277,1469.2103837175277,0.999239995955129,0.0003210598231693376
1469.2173281390387,1469.2173281390387,0.9999219084094383,0.0003212306703883319
1469.2242725604567,1469.2242725604567,1.000830364511461,0.0003214013161344093
1469.2312169817815,1469.2312169817815,1.0001602121338589,0.0003211412529849929
1469.2381614030132,1469.2381614030132,0.9998188281972198,0.0003211545004215519
1469.245105824152,1469.245105824152,0.9999896341207638,0.00032110609229214196
1469.2520502451039,1469.2520502451039,1.0000197854296446,0.0003210099166893165
1469.2589946659632,1469.2589946659632,1.0002431756159693,0.0003210531061207202
1469.265939086729,1469.265939086729,0.9993560263657588,0.0003208896940543996
1469.2728835074952,1469.2728835074952,1.0002877215090584,0.0003210495021194155
1469.279827927889,1469.279827927889,0.9997859543989112,0.0003209517729300284
1469.2867723483755,1469.2867723483755,1.000110819797897,0.0003209558297108469
1469.293716768583,1469.293716768583,1.0003207441852826,0.0003211198346545739
1469.3006611888832,1469.3006611888832,0.9995909898020472,0.0003210337429005245
1469.3076056089042,1469.3076056089042,1.0005835833311765,0.00032102471993733083
1469.3145500289254,1469.3145500289254,0.9998368504076058,0.0003209911604454432
1469.32149444876,1469.32149444876,1.0001173638083516,0.0003209600476939485
1469.3284388684083,1469.3284388684083,0.9996235395270705,0.00032094682784951064
1469.3353832882428,1469.3353832882428,0.999848644861166,0.0003209570298047359
1469.3423277077984,1469.3423277077984,1.0000105053345751,0.0003210419910650701
1469.349272127261,1469.349272127261,1.000004885292561,0.00032112469316615696
1469.3562165462572,1469.3562165462572,1.0005323417944747,0.0003209971459609178
1469.3631609656263,1469.3631609656263,1.0001378712484634,0.00032105701838119514
1469.3701053846228,1469.3701053846228,1.000036095023431,0.00032097513816317506
1469.3770498036192,1469.3770498036192,0.9997016433503892,0.00032107494586974827
1469.3839942224295,1469.3839942224295,0.9999347729455005,0.0003210524672759964
1469.3909386412402,1469.3909386412402,0.999614112750629,0.00032103518791759024
1469.397883059771,1469.397883059771,1.000301034331842,0.0003210816704076077
1469.404827478395,1469.404827478395,1.0002205164903388,0.00032103352531303664
1469.4117718967393,1469.4117718967393,0.9999674146386852,0.00032104862389264425
1469.418716314991,1469.418716314991,0.9996803096062233,0.000321090669240306
1469.4256607332427,1469.4256607332427,0.9998069287839089,0.0003210987666223747
1469.4326051513078,1469.4326051513078,1.0003719833578661,0.00032105436323079584
1469.4395495692795,1469.4395495692795,0.9998959886065206,0.00032112356051397777
1469.4464939870657,1469.4464939870657,0.999964364440024,0.0003210336688481052
1469.4534384048516,1469.4534384048516,0.9995849876063703,0.0003208914286569204
1469.4603828223576,1469.4603828223576,1.0004641982132134,0.00032102580533898686
1469.4673272399573,1469.4673272399573,1.0003079685562677,0.0003211492375142154
1469.4742716572778,1469.4742716572778,1.0001956447872922,0.0003209987799643
1469.4812160746908,1469.4812160746908,0.9997802577540602,0.00032089614368509495
1469.4881604918246,1469.4881604918246,0.9995861126315504,0.0003209544432351534
1469.4951049089584,1469.4951049089584,0.9997739016457995,0.00032105167699257185
1469.5020493257202,1469.5020493257202,0.9999589897540433,0.0003210404078241008
1469.5089937426678,1469.5089937426678,1.0003951422160147,0.00032103388826142343
1469.515938159336,1469.515938159336,1.0003576849422167,0.0003209300777567471
1469.522882575911,1469.522882575911,1.0001229567753822,0.0003209750998195706
1469.5298269924858,1469.5298269924858,0.9998327093228763,0.0003210580430798447
1469.536771408782,1469.536771408782,0.9996701677032153,0.0003207849098786555
1469.543715825171,1469.543715825171,0.9997888301279081,0.0003209243252476593
1469.5506602412802,1469.5506602412802,1.0003328413563126,0.0003209926951505462
1469.5576046573897,1469.5576046573897,1.0001184503566216,0.0003208847417979924
1469.5645490732193,1469.5645490732193,0.9997438365450309,0.00032092210325596846
1469.5714934891428,1469.5714934891428,1.0000047623041106,0.0003209695933788902
1469.5784379047866,1469.5784379047866,1.000043011885608,0.000320880066274051
1469.5853823204302,1469.5853823204302,1.0000951618195322,0.00032095230796978514
1469.592326735981,1469.592326735981,1.0000533931933338,0.0003210728307382466
1469.5992711513452,1469.5992711513452,0.9996047552248951,0.00032089095750804697
1469.6062155666166,1469.6062155666166,1.0001190603740304,0.000321011764845506
1469.6131599817945,1469.6131599817945,1.000117050050421,0.0003209093667957164
1469.62010439688,1469.62010439688,1.0002337476062253,0.0003210409414169647
1469.6270488116854,1469.6270488116854,1.000056957253485,0.000320982368547807
1469.6339932264905,1469.6339932264905,1.0001053415026546,0.00032113697163914487
1469.6409376412962,1469.6409376412962,0.999805876338334,0.0003209028793752633
1469.6478820560092,1469.6478820560092,0.9999419680234023,0.0003208992728062572
1469.654826470442,1469.654826470442,1.0001514661551625,0.0003209046991406302
1469.661770884782,1469.661770884782,0.9996032314668893,0.0003209516492769216
1469.668715299029,1469.668715299029,0.9999246061003959,0.0003209618050667066
1469.6756597132753,1469.6756597132753,0.9998100206208644,0.0003209778114544011
1469.6826041273362,1469.6826041273362,1.0001384069671606,0.00032095127123747333
1469.6895485412103,1469.6895485412103,1.000048646651884,0.00032090777944782377
1469.696492955085,1469.696492955085,1.0000392539864609,0.0003208867606063811
1469.703437368866,1469.703437368866,1.000438446303195,0.0003209068337409313
1469.7103817824604,1469.7103817824604,1.0004151056295596,0.00032090528816868327
1469.7173261958692,1469.7173261958692,0.9998824926511487,0.0003208214405698705
1469.7242706093712,1469.7242706093712,0.9997725594988989,0.00032080067230910476
1469.731215022593,1469.731215022593,0.9994719988820702,0.0003207200295123223
1469.7381594357225,1469.7381594357225,0.9998152169242532,0.00032093438166189413
1469.7451038487586,1469.7451038487586,1.0000775192290052,0.0003208163478906864
1469.7520482617947,1469.7520482617947,0.9996026949530681,0.00032081628072929086
1469.7589926745513,1469.7589926745513,1.0006018454515648,0.00032098310146645676
1469.7659370873082,1469.7659370873082,1.0001250889340874,0.00032095880007165925
1469.7728814997854,1469.7728814997854,1.0001416637222436,0.0003208265268606253
1469.7798259122626,1469.7798259122626,0.999998862090443,0.0003207941793243115
1469.7867703247398,1469.7867703247398,0.999974670570189,0.0003208124213815997
1469.7937147372172,1469.7937147372172,1.0008785238364244,0.00032100196602465454
1469.8006591492287,1469.8006591492287,1.000008461483281,0.0003209020522267955
1469.8076035613335,1469.8076035613335,0.9992503179938022,0.000320732647121707
1469.8145479733457,1469.8145479733457,1.0000372272087639,0.0003208304600307519
1469.8214923850774,1469.8214923850774,0.9998304915581719,0.00032096729645071664
1469.8284367968095,1469.8284367968095,1.0003138740227921,0.00032085693376653654
1469.8353812084488,1469.8353812084488,1.0004394418563267,0.00032090854109323777
1469.8423256199949,1469.8423256199949,0.9999440435304375,0.00032088420090036125
1469.8492700313548,1469.8492700313548,0.999948284840589,0.000320857755005462
1469.8562144426214,1469.8562144426214,1.000219023067724,0.0003209961641072731
1469.8631588538872,1469.8631588538872,0.9997896492965499,0.00032089962060676317
1469.8701032648746,1469.8701032648746,0.9999836608926691,0.0003208458514323417
1469.877047675955,1469.877047675955,1.000151361693606,0.00032097787569304435
1469.883992086663,1469.883992086663,0.9999837150166109,0.00032095011669845046
1469.8909364973708,1469.8909364973708,0.9996324545725963,0.00032096467188534345
1469.8978809080784,1469.8978809080784,1.0003223483425807,0.00032106451034269397
1469.9048253185997,1469.9048253185997,1.000052983842594,0.0003209688566973887
1469.9117697288423,1469.9117697288423,1.0002155524018206,0.0003209729373458057
1469.9187141394566,1469.9187141394566,1.0003326410590383,0.00032093576755863005
1469.925658549606,1469.925658549606,0.9996539307250906,0.00032091535765925715
1469.9326029595686,1469.9326029595686,1.0002550285732017,0.00032088529862645644
1469.939547369438,1469.939547369438,0.9999784252044833,0.00032081502931660666
1469.946491779401,1469.946491779401,1.000078866594893,0.000320863449597568
1469.953436189084,1469.953436189084,0.9995260305293637,0.0003207621701272447
1469.9603805987674,1469.9603805987674,1.0005331446736732,0.0003209037506648867
1469.9673250082647,1469.9673250082647,1.0002521860020592,0.0003208853104867742
1469.9742694176687,1469.9742694176687,0.9996862404679085,0.0003207860520631651
1469.9812138269795,1469.9812138269795,0.9997207770106338,0.0003210101555692325
1469.9881582361966,1469.9881582361966,1.000013552215894,0.00032098226319689
1469.995102645135,1469.995102645135,0.9998503934618075,0.00032083478806094635
1470.0020470541665,1470.0020470541665,0.9998535673892196,0.0003209036187907819
1470.0089914631048,1470.0089914631048,1.0004390478400773,0.00032091966408137157
1470.015935871857,1470.015935871857,0.9998214723614411,0.0003208731105923268
1470.0228802805154,1470.0228802805154,0.9999399924259628,0.0003208542087183322
1470.0298246889881,1470.0298246889881,1.000349745827591,0.000320862131650715
1470.036769097461,1470.036769097461,0.9998346330644867,0.0003207280647430032
1470.0437135057473,1470.0437135057473,0.9998982233487201,0.0003208495829345637
1470.0506579140335,1470.0506579140335,0.9999530416494917,0.0003207510122939782
