time,time,flux,flux_err
1468.277039648735,1468.277039648735,1.0000935699529254,0.00014134389039608498
1468.283984274066,1468.283984274066,1.0000091055208298,0.00014131269143289997
1468.29092889935,1468.29092889935,1.00004359685235,0.00014133133923091378
1468.2978735245883,1468.2978735245883,1.0000840353761402,0.00014132260055317873
1468.3048181497797,1468.3048181497797,0.9999024612794878,0.00014129591336549564
1468.3117627749245,1468.3117627749245,1.0002741905918993,0.0001413211039317993
1468.3187074000227,1468.3187074000227,1.0001493591453394,0.00014131231387737656
1468.3256520250277,1468.3256520250277,0.9998705800383624,0.00014130930652966049
1468.3325966499397,1468.3325966499397,1.0002909952834833,0.00014131736597081766
1468.3395412748982,1468.3395412748982,1.0003768541474336,0.0001413463740831834
1468.3464858997634,1468.3464858997634,0.9999386092437245,0.0001412993646231101
1468.353430524489,1468.353430524489,1.0000917107104523,0.0001412998175129586
1468.3603751492615,1468.3603751492615,1.0000061259655844,0.00014128775649251867
1468.3673197739406,1468.3673197739406,0.9997526492417508,0.00014128135620146125
1468.3742643985734,1468.3742643985734,1.0001465941180718,0.00014131984522694515
1468.3889870026203,1468.3889870026203,1.000099695814688,0.00014129104328391352
1468.3978761218393,1468.3978761218393,1.0000284735577716,0.00014130837380105698
1468.4048207461929,1468.4048207461929,0.9999756623248128,0.00014128207111418245
1468.4117653705457,1468.4117653705457,0.9999761033894383,0.0001412737707973156
1468.418709994759,1468.418709994759,0.9999875928484746,0.0001413075456510166
1468.4256546189729,1468.4256546189729,1.0000744787428377,0.00014131266553289804
1468.4325992430931,1468.4325992430931,0.9999608356553594,0.00014128081157975048
1468.439543867167,1468.439543867167,0.999997056160076,0.0001412961371801918
1468.4464884912406,1468.4464884912406,0.9999917406451969,0.00014132298926652952
1468.4534331151747,1468.4534331151747,1.0001167205655717,0.00014131722691612268
1468.460377739062,1468.460377739062,1.0000290240214809,0.0001413078149699996
1468.467322362903,1468.467322362903,0.9999239080706864,0.00014129756336476
1468.4742669867442,1468.4742669867442,0.999894762711181,0.00014129060342665125
1468.481211610445,1468.481211610445,1.0000617694431906,0.00014129782995445103
1468.4881562341463,1468.4881562341463,0.999892543367495,0.00014130620190312888
1468.495100857755,1468.495100857755,1.0002098806027966,0.00014133806378968005
1468.5020454813161,1468.5020454813161,0.9997935374013884,0.0001412868166542562
1468.5089901048311,1468.5089901048311,1.0001688587234132,0.0001413226798420971
1468.5159347282995,1468.5159347282995,1.0000607782696331,0.00014129050345513026
1468.5228793516749,1468.5228793516749,0.9996257870649934,0.0001412517573695754
1468.5298239750034,1468.5298239750034,1.0002151177014789,0.0001412972030319257
1468.5367685981923,1468.5367685981923,0.9998821256331306,0.0001413085036659617
1468.5437132216143,1468.5437132216143,1.0001043088053658,0.00014127401110680893
1468.5506578445702,1468.5506578445702,1.0001384947373735,0.00014127070780541235
1468.5576024677596,1468.5576024677596,1.0000345671025552,0.0001413096947723112
1468.5645470908091,1468.5645470908091,0.9997357710879277,0.00014127420530231865
1468.5714917138116,1468.5714917138116,1.0001298123239912,0.00014133220114347604
1468.5784363367675,1468.5784363367675,0.9998839430858822,0.0001412897714300843
1468.5853809596306,1468.5853809596306,1.0001801435300848,0.0001413178551890962
1468.5923255824468,1468.5923255824468,0.9998305614175786,0.0001412864377693035
1468.5992702052172,1468.5992702052172,1.0001454011888287,0.00014130437583858915
1468.6062148279404,1468.6062148279404,1.00008504246547,0.00014131389031567685
1468.6131594505239,1468.6131594505239,0.9997943988589103,0.00014126475519951384
1468.6201040731542,1468.6201040731542,1.000118093755413,0.0001412897003171489
1468.6270486956914,1468.6270486956914,0.999951312323131,0.0001413118460288295
1468.633993318182,1468.633993318182,0.9997961480651453,0.0001412902756078072
1468.640937940579,1468.640937940579,1.0003394570619566,0.0001413141173244291
1468.64788256293,1468.64788256293,1.0000261386816753,0.00014131310680337269
1468.6548271852341,1468.6548271852341,0.9999265071536028,0.00014128513007713117
1468.6617718074456,1468.6617718074456,0.9997933858140448,0.00014130358358032286
1468.6687164297034,1468.6687164297034,1.0001302141316715,0.00014131318071740361
1468.6756610517277,1468.6756610517277,0.9999791421060573,0.00014133145236020078
1468.6826056738457,1468.6826056738457,0.9999226117143122,0.00014126570986250917
1468.6895502957777,1468.6895502957777,0.9999078547124156,0.0001412932658526569
1468.6964949178027,1468.6964949178027,1.0001942699612356,0.00014129979265826967
1468.703439539734,1468.703439539734,1.0001761817380985,0.00014131054405378592
1468.710384161573,1468.710384161573,0.9999862328947595,0.00014132593642077383
1468.7173287833648,1468.7173287833648,0.999990452079486,0.00014134219079003107
1468.7242734051101,1468.7242734051101,0.9999849103858338,0.000141286893815439
1468.731218026763,1468.731218026763,0.9996202879131211,0.00014126205494713204
1468.7381626483682,1468.7381626483682,1.000216599887041,0.00014130923478170406
1468.7451072699275,1468.7451072699275,0.999934931646073,0.0001413225275189956
1468.7520518914403,1468.7520518914403,0.9998380131384824,0.00014128187241376248
1468.7589965128595,1468.7589965128595,1.0002176512412138,0.00014132239988596992
1468.7659411342795,1468.7659411342795,1.0000102989909814,0.0001412966739290005
1468.772885755559,1468.772885755559,1.0002089682210251,0.00014131657505580975
1468.7798303768386,1468.7798303768386,0.9997986224815788,0.00014129057295486427
1468.786774998072,1468.786774998072,1.0000077352535335,0.00014132273535697837
1468.7937196192124,1468.7937196192124,1.0000013355660806,0.0001413074467178743
1468.8006642403057,1468.8006642403057,1.0000610950238369,0.00014132526619853536
1468.8076088613523,1468.8076088613523,1.0000328435147625,0.00014135702644028062
1468.8145534823527,1468.8145534823527,1.0000755567676276,0.0001413317431739862
1468.821498103307,1468.821498103307,0.9999321190566082,0.0001413169227129051
1468.8284427241676,1468.8284427241676,0.9997797213781021,0.00014128590190386664
1468.8353873449819,1468.8353873449819,1.000233254650656,0.00014132672270440895
1468.842331965656,1468.842331965656,0.9999985340841823,0.00014130923945246504
1468.849276586377,1468.849276586377,0.9999907840062299,0.0001413242513441905
1468.856221207005,1468.856221207005,1.0000840250366005,0.00014132553910589868
1468.8631658275863,1468.8631658275863,1.000060598541919,0.00014136126625626801
1468.8701104480747,1468.8701104480747,1.0000823568632582,0.00014129420224552876
1468.8770550685626,1468.8770550685626,0.99997052000093,0.00014130956119128764
1468.8839996890042,1468.8839996890042,0.9997927883816123,0.0001413410229602395
1468.8909443093064,1468.8909443093064,0.9999742281380545,0.00014132509380606982
1468.8978889295618,1468.8978889295618,0.9999273081719764,0.0001412670517297022
1468.9048335498635,1468.9048335498635,1.0001853805922223,0.00014133471627357193
1468.9117781700256,1468.9117781700256,0.9999830149185478,0.00014133417720681794
1468.9187227901414,1468.9187227901414,1.000094410444205,0.0001413088992990924
1468.9256674102107,1468.9256674102107,1.0000186543371963,0.00014131409865100918
1468.9326120302333,1468.9326120302333,1.0001898011133945,0.00014128495354239436
1468.9395566501623,1468.9395566501623,0.9998207839257859,0.00014130488621178663
1468.9465012700448,1468.9465012700448,0.9999624404759313,0.00014129029223883922
1468.9534458898813,1468.9534458898813,0.9997995137556714,0.00014130811607022275
1468.9615016487294,1468.9615016487294,1.0000365960418374,0.0001413240040414264
1468.9687240532141,1468.9687240532141,1.0001539010146834,0.0001413285235956821
1468.9756686729102,1468.9756686729102,1.0002519084792767,0.00014135476609621465
1468.9826132925602,1468.9826132925602,1.0000392326781493,0.00014135048007995948
1468.9895579120705,1468.9895579120705,0.9998336175459739,0.00014134137186332015
1468.9965025315344,1468.9965025315344,0.9999527818293128,0.0001413006369414512
1469.0034471509514,1469.0034471509514,0.9998079246364437,0.00014128771121197338
1469.0103917703218,1469.0103917703218,0.9998916255942374,0.00014132296867204965
1469.0173363895994,1469.0173363895994,0.9999482746881295,0.0001413339274622042
1469.024281008877,1469.024281008877,1.0001744290041632,0.00014133169707296176
1469.0312256280615,1469.0312256280615,1.0000415088642005,0.00014132052376802568
1469.038170247199,1469.038170247199,1.0002417134456523,0.0001413199491451239
1469.045114866197,1469.045114866197,0.9999634518247943,0.000141322766815685
1469.0520594852417,1469.0520594852417,0.9998245223316944,0.0001413234493694686
1469.0590041042396,1469.0590041042396,0.9999781981010678,0.000141299812341432
1469.0659487230982,1469.0659487230982,1.0001574194766316,0.00014132860542132047
1469.0728933419566,1469.0728933419566,0.9999245705628803,0.0001413293191052632
1469.0798379607218,1469.0798379607218,0.9999856245927463,0.00014133509150633547
1469.0867825794405,1469.0867825794405,0.9998481365625294,0.0001413148479585173
1469.093727198159,1469.093727198159,0.9999772793946482,0.0001413441449012597
1469.1006718167384,1469.1006718167384,1.0002394962732328,0.00014132544718479528
1469.1076164352705,1469.1076164352705,1.0002463293388002,0.00014132147409655224
1469.1145610538028,1469.1145610538028,0.9998722047633329,0.00014134094915137907
1469.1215056721953,1469.1215056721953,0.9998307181516429,0.00014131966011843652
1469.1284502905883,1469.1284502905883,0.999818640105462,0.00014132457873457124
1469.135394908888,1469.135394908888,1.0000172856920775,0.00014132511874990138
1469.142339527141,1469.142339527141,0.9999428605251456,0.00014130843440116595
1469.149284145394,1469.149284145394,1.0001246852001888,0.00014135625710133795
1469.1562287635072,1469.1562287635072,1.0000465511989658,0.00014134862342824863
1469.1631733816205,1469.1631733816205,1.00016561161052,0.0001413730250884156
1469.1701179996405,1469.1701179996405,0.9998077677108086,0.00014128917636506384
1469.1770626176149,1469.1770626176149,1.0000833751871732,0.00014133829266582457
1469.1840072355415,1469.1840072355415,0.99997246294703,0.0001413454138176755
1469.1909518533753,1469.1909518533753,1.0001906142947288,0.00014131526528477148
1469.1978964711625,1469.1978964711625,1.0000291352796356,0.00014131220953872225
1469.2048410889033,1469.2048410889033,1.0001234315405838,0.00014137167372326598
1469.211785706598,1469.211785706598,0.999974821483892,0.00014134616625075794
1469.2187303242454,1469.2187303242454,0.9999449352344552,0.00014135257627721122
1469.2256749417998,1469.2256749417998,1.0002016682332076,0.00014136504312920383
1469.2326195593075,1469.2326195593075,0.9999792922353258,0.0001413237474527327
1469.2395641766757,1469.2395641766757,0.9998859831605339,0.00014135852896537718
1469.2465087942771,1469.2465087942771,1.0001693586166667,0.00014135464390743294
1469.2534534114125,1469.2534534114125,0.9998875196670906,0.00014133748992294564
1469.2603980287804,1469.2603980287804,1.0000149021861264,0.0001413638836506458
1469.2673426460092,1469.2673426460092,1.0000190735256418,0.00014132888289090868
1469.2742872631911,1469.2742872631911,0.9999683842642986,0.00014132882378300744
1469.2812318802803,1469.2812318802803,0.999983906075971,0.0001413192644021295
1469.2881764973226,1469.2881764973226,0.9999745848631341,0.00014132207916079585
1469.295121114318,1469.295121114318,0.999895773658789,0.00014129560200863087
1469.302065731267,1469.302065731267,1.0001550001349848,0.00014131652582842708
1469.3090103481231,1469.3090103481231,1.0001332463277002,0.00014132540895875557
1469.3159549649795,1469.3159549649795,0.9999311178614454,0.00014133880240595518
1469.3228995816958,1469.3228995816958,0.9998539438274785,0.00014134260871155848
1469.3298441984118,1469.3298441984118,1.0001687703348254,0.0001413831938596331
1469.3367888150347,1469.3367888150347,1.0000919312332006,0.00014134321126314252
1469.3437334316584,1469.3437334316584,0.9998661256568784,0.00014133036178847283
1469.3506780481887,1469.3506780481887,1.0000696867596677,0.00014135253313476748
1469.357622664625,1469.357622664625,0.9999041092001442,0.0001413615189089302
1469.3645672810624,1469.3645672810624,0.999786460845238,0.00014135784538885212
1469.371511897359,1469.371511897359,1.0000988839868457,0.00014137668615226074
1469.3784565137498,1469.3784565137498,0.9999878538337983,0.0001413456113289282
1469.3854011300004,1469.3854011300004,0.9999361584076656,0.00014131076168046245
1469.3923457462045,1469.3923457462045,1.000137301597229,0.00014139015109945397
1469.399290362176,1469.399290362176,1.000124983902957,0.00014134618731074855
1469.406234978333,1469.406234978333,0.9997935887682171,0.00014130428387235133
1469.4131795943044,1469.4131795943044,1.0001645536093506,0.00014133832190553144
1469.4201242102758,1469.4201242102758,1.000189955282588,0.00014135872949493512
1469.4270688261543,1469.4270688261543,0.9996528537227233,0.0001413079390167042
1469.434013441986,1469.434013441986,1.0000977590262643,0.00014134030250263205
1469.4409580577706,1469.4409580577706,1.0000133522769248,0.00014133277848366662
1469.4479026734625,1469.4479026734625,0.9999627499214891,0.0001413644692996628
1469.4548472892009,1469.4548472892009,1.0002410350311308,0.0001413611685197664
1469.461791904753,1469.461791904753,0.9997919233721779,0.0001413397660551449
1469.4687365203056,1469.4687365203056,1.0000140905183144,0.00014133939835524303
1469.4756811357643,1469.4756811357643,1.0001011741881967,0.00014135961797977586
1469.4826257511766,1469.4826257511766,0.9999047498233471,0.00014132927610843862
1469.4895703665893,1469.4895703665893,1.0000995514907554,0.00014137368972743503
1469.4965149819084,1469.4965149819084,0.9999763623141646,0.0001413569933663548
1469.503459597135,1469.503459597135,0.9997761337059341,0.0001413756529668606
1469.5104042123612,1469.5104042123612,1.0001539488915399,0.00014139023772043855
1469.5173488274008,1469.5173488274008,0.9997610895120637,0.0001413458619887199
1469.5242934424873,1469.5242934424873,1.0002231237881138,0.00014135277048420313
1469.531238057481,1469.531238057481,0.9998847380916382,0.00014132082126898138
1469.538182672521,1469.538182672521,1.0001329316031597,0.00014135726254315502
1469.5451272874677,1469.5451272874677,1.0000831867000177,0.0001413499089041623
1469.5520719022745,1469.5520719022745,0.9999272927170825,0.00014132924274717004
1469.559016517082,1469.559016517082,1.0000528225589325,0.0001413563077120518
1469.5659611318424,1469.5659611318424,0.9998794175427113,0.00014134413869552922
1469.5729057464632,1469.5729057464632,1.0001155441649803,0.00014134319860140514
1469.5798503610843,1469.5798503610843,0.999969158556293,0.0001413531820457501
1469.5867949756584,1469.5867949756584,1.0000628154702014,0.00014136087479624135
1469.5937395900928,1469.5937395900928,0.9996889467846524,0.00014134278296394946
1469.6006842045742,1469.6006842045742,1.0001235583222763,0.00014135358060587847
1469.6076288190088,1469.6076288190088,1.0000819636534501,0.0001413765368106959
1469.6145734333033,1469.6145734333033,1.0000608140375165,0.00014135433350753138
1469.6215180475524,1469.6215180475524,0.9998919525986448,0.00014137900547139018
1469.6284626618003,1469.6284626618003,0.99987114845818,0.00014135899355387937
1469.6354072759555,1469.6354072759555,1.0000990833203285,0.00014135546406859742
1469.6423518900174,1469.6423518900174,1.0002069783827472,0.00014136036903899166
1469.6492965040795,1469.6492965040795,0.9999051252860923,0.00014137521795498453
1469.6562411179557,1469.6562411179557,0.9999514668335319,0.00014136868048018897
1469.6631857320176,1469.6631857320176,1.0000588584825603,0.00014133044499576154
1469.6701303457999,1469.6701303457999,1.0000195762892807,0.00014136935009017202
1469.6770749595828,1469.6770749595828,0.9998710523075985,0.00014136425587382486
1469.6840195733655,1469.6840195733655,1.0000296980151777,0.00014138907806317586
1469.6909641870552,1469.6909641870552,1.0000725074328396,0.0001413808866568069
1469.6979088006515,1469.6979088006515,0.9999435283167426,0.0001413461760673555
1469.7048534142473,1469.7048534142473,1.0001755067414826,0.0001413640222889001
1469.7117980277044,1469.7117980277044,0.9997187314357723,0.00014133909042841487
1469.7187426412079,1469.7187426412079,1.0001071337733947,0.0001413759661128481
1469.7256872545713,1469.7256872545713,0.9999001139980888,0.00014135394785053942
1469.7326318679814,1469.7326318679814,1.0000111567075265,0.00014137419362763166
1469.7395764812052,1469.7395764812052,1.0001392565578233,0.00014137472274208292
1469.746521094429,1469.746521094429,1.000112994531466,0.00014136764077640594
1469.75346570756,1469.75346570756,0.9999136729426915,0.00014135159990318077
1469.7604103206904,1469.7604103206904,0.9999880210146086,0.000141352809567078
1469.7673549337749,1469.7673549337749,0.9998624893236444,0.00014135086132941702
1469.7742995467192,1469.7742995467192,1.0000476216632974,0.00014135777343013395
1469.7812441596634,1469.7812441596634,0.9999800586578349,0.000141404667034799
1469.7881887725152,1469.7881887725152,0.9999333764633377,0.00014136455387748714
1469.7951333853198,1469.7951333853198,1.0001449179607895,0.00014139530378095362
1469.8020779981712,1469.8020779981712,0.9999181165879338,0.0001413809574737908
1469.8090226108366,1469.8090226108366,1.0001011229212988,0.00014135314222243482
1469.815967223362,1469.815967223362,1.0001772432578138,0.00014137188046876072
1469.8229118360266,1469.8229118360266,0.9998715828480013,0.00014136078021918759
1469.8298564485053,1469.8298564485053,0.9998899654514135,0.0001413677310214342
1469.8368010609843,1469.8368010609843,0.9999556880439517,0.0001413766725216059
1469.8437456733704,1469.8437456733704,1.0001628152530562,0.00014138614574873517
1469.850690285756,1469.850690285756,1.0000325460210795,0.00014138552797045664
1469.8576348980016,1469.8576348980016,0.9999323679416998,0.00014136976294368273
1469.8645795102475,1469.8645795102475,0.9999669648049277,0.00014135107498244452
1469.8715241224468,1469.8715241224468,0.9996218800417171,0.0001413566252298705
1469.8784687345537,1469.8784687345537,1.0002581069275047,0.00014140436871818273
1469.8854133465666,1469.8854133465666,0.9999921549799131,0.00014138383245440695
1469.892357958533,1469.892357958533,1.0001553224029958,0.0001413845603029901
1469.8993025704528,1469.8993025704528,1.000010873220647,0.00014138884772444928
1469.9062471823731,1469.9062471823731,1.0000428336481457,0.000141403171581507
1469.9131917942002,1469.9131917942002,0.9999613511277843,0.0001413792335429784
1469.920136405934,1469.920136405934,0.9999008510748609,0.00014138705400096882
1469.9270810176677,1469.9270810176677,0.9999985454438434,0.00014140278612968294
1469.9340256292155,1469.9340256292155,0.9998229534816232,0.0001413723435444488
1469.9409702409953,1469.9409702409953,1.0001915593035904,0.0001413879470189698
1469.9479148523567,1469.9479148523567,1.0001514939224385,0.00014137961013861478
1469.9548594638575,1469.9548594638575,0.999947528590156,0.00014137873402192343
1469.9618040753119,1469.9618040753119,1.0002447634067595,0.0001413755400718795
1469.968748686627,1469.968748686627,0.9997883538012502,0.000141350864317443
1469.9756932979412,1469.9756932979412,0.9998288921708933,0.00014136973777377992
1469.982637909209,1469.982637909209,0.9998528555915838,0.00014136984431166994
1469.9895825203373,1469.9895825203373,1.0000293522484678,0.00014137583727516904
1469.996527131466,1469.996527131466,1.0000438733508776,0.0001413819262163333
1470.0034717425478,1470.0034717425478,1.0001064906794432,0.00014140339909731334
1470.0104163534904,1470.0104163534904,0.9998930563935773,0.00014136343633136815
1470.0173609644785,1470.0173609644785,1.0001500400089256,0.00014139537540720185
1470.0243055753276,1470.0243055753276,1.0000334049008988,0.00014139052501752517
1470.0312501861301,1470.0312501861301,0.9999318681015108,0.00014140797271965149
