time,time,flux,flux_err
1437.9966491666694,1437.9966491666694,0.9998705967992011,7.015564566447907e-05
1438.0049826984884,1438.0049826984884,0.999951308134516,7.014594517115003e-05
1438.012621769606,1438.012621769606,0.9998986298195509,6.40184595033734e-05
1438.0195663799657,1438.0195663799657,1.0001517441420966,6.401378273260127e-05
1438.026510990581,1438.026510990581,1.000181344909399,6.400579721018526e-05
1438.0334556014063,1438.0334556014063,1.0001337798987997,6.398853455319523e-05
1438.040400212441,1438.040400212441,0.9999201194976404,6.39776170366294e-05
1438.0473448237083,1438.0473448237083,1.0000994103039327,6.397360058783885e-05
1438.0542894351852,1438.0542894351852,1.0000978141846415,6.396562625509252e-05
1438.0612340468717,1438.0612340468717,1.0000616371460935,6.395423844341104e-05
1438.0681786587443,1438.0681786587443,0.9999620572849046,6.394674966388244e-05
1438.0751232708496,1438.0751232708496,1.0000006906055279,6.394369242585374e-05
1438.0820678831415,1438.0820678831415,1.0000802913848137,6.39354548178178e-05
1438.089012495643,1438.089012495643,0.9997334411865039,6.392005270326971e-05
1438.0959571083542,1438.0959571083542,0.999980446633274,6.391821637955942e-05
1438.1029017212045,1438.1029017212045,1.000011242707993,6.391678814035059e-05
1438.1098463342646,1438.1098463342646,0.9998908091212202,6.390796248316901e-05
1438.1167909475344,1438.1167909475344,1.0001537826838764,6.390879563494947e-05
1438.1237355609205,1438.1237355609205,1.00002360565392,6.389739198305378e-05
1438.1306801745163,1438.1306801745163,1.0000545941486578,6.389062047683595e-05
1438.137624788345,1438.137624788345,0.9999812306077007,6.38818590707273e-05
1438.1445694022432,1438.1445694022432,0.9999574829337107,6.387928603249084e-05
1438.1515140163515,1438.1515140163515,0.9999271135024232,6.386913899993008e-05
1438.1584586306221,1438.1584586306221,0.999976776401333,6.386572181834956e-05
1438.1654032450326,1438.1654032450326,1.0001220023062534,6.386399544241732e-05
1438.1723478596298,1438.1723478596298,0.9999662716178047,6.385399321140914e-05
1438.1792924743893,1438.1792924743893,1.0002263578223287,6.385652129032259e-05
1438.1862370893123,1438.1862370893123,0.9999304924309037,6.38443159588266e-05
1438.1931817043517,1438.1931817043517,0.999925442469783,6.38350018030736e-05
1438.200126319507,1438.200126319507,0.9999275619096479,6.383634698609787e-05
1438.2070709348493,1438.2070709348493,1.0001049915962734,6.383378936873933e-05
1438.2140155503073,1438.2140155503073,0.999998379561073,6.383128425676651e-05
1438.2209601659054,1438.2209601659054,1.000050595794824,6.382833234305148e-05
1438.2279047816896,1438.2279047816896,1.0000156030165694,6.382494789006934e-05
1438.2348493975203,1438.2348493975203,0.9999674829463553,6.382240860946698e-05
1438.2417940135379,1438.2417940135379,1.0001658280543009,6.382048673072659e-05
1438.2487386296714,1438.2487386296714,0.9998654022851795,6.381548774966867e-05
1438.255683245921,1438.255683245921,1.0000127681514324,6.381415467793589e-05
1438.2626278622874,1438.2626278622874,0.9999276286102038,6.380736359337189e-05
1438.2695724787704,1438.2695724787704,1.0000667971908648,6.380889538019206e-05
1438.2765170953694,1438.2765170953694,1.0000477390153044,6.380546588722202e-05
1438.2834617120852,1438.2834617120852,0.9999201482452618,6.380294679023083e-05
1438.2904063289175,1438.2904063289175,1.0000690605386122,6.38052127594447e-05
1438.297350945843,1438.297350945843,0.9999444949132854,6.380095375341269e-05
1438.3042955628841,1438.3042955628841,1.0000287766038622,6.379411521152353e-05
1438.311240180042,1438.311240180042,0.9999672213783535,6.379475773109437e-05
1438.3181847972933,1438.3181847972933,1.0000931431403182,6.379612905848704e-05
1438.3251294146608,1438.3251294146608,1.000017437128965,6.379430325800091e-05
1438.3320740320748,1438.3320740320748,0.9998585971205808,6.378537017240639e-05
1438.3390186496054,1438.3390186496054,1.0000317060462354,6.378681318419078e-05
1438.345963267229,1438.345963267229,0.999864245421338,6.378603146954616e-05
1438.3529078849463,1438.3529078849463,1.000004003314038,6.378300633882162e-05
1438.359852502756,1438.359852502756,1.0001750086007213,6.378508927454574e-05
1438.3667971206123,1438.3667971206123,1.00030320713581,6.377634440706418e-05
1438.373741738585,1438.373741738585,1.0000405172229474,6.378177694684396e-05
1438.3806863566747,1438.3806863566747,1.0003104043731486,6.3783968962751e-05
1438.387630974787,1438.387630974787,0.999841637239415,6.377405024584075e-05
1438.3945755930165,1438.3945755930165,1.0000626512909068,6.377136118155021e-05
1438.4015202112919,1438.4015202112919,0.999979823461269,6.377479043974392e-05
1438.4084648296375,1438.4084648296375,1.0002649626121687,6.376914473395894e-05
1438.415409448076,1438.415409448076,1.0000272303054403,6.376231591137665e-05
1438.4223540665375,1438.4223540665375,0.9998746208319584,6.37646585721833e-05
1438.4292986851392,1438.4292986851392,0.9999792981802766,6.377030924499995e-05
1438.436243303764,1438.436243303764,1.0001756661830647,6.377206502526436e-05
1438.443187922482,1438.443187922482,0.9999348695858282,6.377046402314926e-05
1438.4501325412234,1438.4501325412234,0.999867501723781,6.376606138936936e-05
1438.4570771600345,1438.4570771600345,0.9998964364217059,6.37605184956754e-05
1438.4640217789388,1438.4640217789388,1.0004524084853157,6.376911920474062e-05
1438.4709663978424,1438.4709663978424,0.9998359229600814,6.376034992473682e-05
1438.4779110168636,1438.4779110168636,1.0000504990066332,6.376836538558346e-05
1438.4848556358843,1438.4848556358843,1.0006220597151916,6.376979025128092e-05
1438.491800254998,1438.491800254998,1.0005474862823347,6.37595043897572e-05
1438.4987448741117,1438.4987448741117,1.0001343145948545,6.376323012841397e-05
1438.5056894933423,1438.5056894933423,0.9998762137657706,6.375902416188439e-05
1438.5126341125954,1438.5126341125954,1.0001367879649385,6.376366065196879e-05
1438.5195787318721,1438.5195787318721,0.9999074655455086,6.375670460876769e-05
1438.5265233512189,1438.5265233512189,0.9997641630086076,6.375364967466653e-05
1438.5334679705888,1438.5334679705888,1.0003990022991038,6.376081074719093e-05
1438.5404125900284,1438.5404125900284,0.9999127124285383,6.375495479978271e-05
1438.5473572094916,1438.5473572094916,0.9999974548724243,6.375619320653248e-05
1438.554301828978,1438.554301828978,0.9999390112565253,6.375239493425261e-05
1438.561246448534,1438.561246448534,1.0000203584481777,6.375903603547075e-05
1438.56819106809,1438.56819106809,1.0000569116574767,6.375439175249848e-05
1438.5751356877397,1438.5751356877397,1.000720087221686,6.37575462372571e-05
1438.5820803073186,1438.5820803073186,1.0000159298978566,6.375114718946323e-05
1438.5890249270149,1438.5890249270149,1.0001632722348637,6.375243169754626e-05
1438.5959695467109,1438.5959695467109,0.9996243855358014,6.373880522045868e-05
1438.602914166523,1438.602914166523,1.000183474357983,6.37495947767698e-05
1438.6098587862423,1438.6098587862423,1.000346207290262,6.375095667083857e-05
1438.6168034060543,1438.6168034060543,1.0001556748703535,6.374213311522182e-05
1438.62374802589,1438.62374802589,0.9996521552653818,6.373809398484175e-05
1438.6306926457255,1438.6306926457255,1.0002010115554474,6.375645999600097e-05
1438.637637265584,1438.637637265584,0.9998276519541139,6.374467802836836e-05
1438.6445818854895,1438.6445818854895,1.0001115326971313,6.375254522692143e-05
1438.6515265054186,1438.6515265054186,1.000031980895225,6.375702133770354e-05
1438.6584711253474,1438.6584711253474,1.000143783767077,6.376173354804055e-05
1438.6654157453227,1438.6654157453227,0.9999968089343279,6.375681395171253e-05
1438.6723603653213,1438.6723603653213,1.0000259578662885,6.375103700310381e-05
1438.6793049852963,1438.6793049852963,1.000076918880222,6.375319084231019e-05
1438.6862496052947,1438.6862496052947,1.0002062511747054,6.375678184122249e-05
1438.6931942253163,1438.6931942253163,0.9997004866172116,6.375316759231691e-05
1438.7001388453616,1438.7001388453616,1.0000643964605858,6.375573050782974e-05
1438.7070834654069,1438.7070834654069,1.0000142650703385,6.37588417361573e-05
1438.7140280854985,1438.7140280854985,0.9995843880197643,6.374423321260613e-05
1438.7209727055902,1438.7209727055902,1.0004182338622194,6.375956901147479e-05
1438.7279173256586,1438.7279173256586,1.0001066208235763,6.376175869884984e-05
1438.7348619457737,1438.7348619457737,0.99999311735255,6.375588138286182e-05
1438.7418065658653,1438.7418065658653,0.999846056234535,6.375612240569248e-05
1438.7487511860033,1438.7487511860033,1.0000113837297229,6.376195617440699e-05
1438.7556958061418,1438.7556958061418,1.0000087648628677,6.375729890906499e-05
1438.7626404262567,1438.7626404262567,1.0005407231733716,6.375827813385938e-05
1438.7695850463952,1438.7695850463952,1.0009090576511794,6.375744153555965e-05
1438.7765296665566,1438.7765296665566,1.0002729631123755,6.376210981071368e-05
1438.7834742866946,1438.7834742866946,0.9996577139119655,6.375418793234492e-05
1438.7904189068563,1438.7904189068563,0.9999285878218057,6.377134522334962e-05
1438.7973635270178,1438.7973635270178,1.0000752313771644,6.376786911982247e-05
1438.804308147156,1438.804308147156,0.9999629093640173,6.377316285249279e-05
1438.8112527673177,1438.8112527673177,1.0000055000854644,6.377553872092714e-05
1438.8181973874791,1438.8181973874791,1.0000035966115501,6.378112836548472e-05
1438.8251420076408,1438.8251420076408,1.0002499534578764,6.378084374091465e-05
1438.8320866278025,1438.8320866278025,0.9999688459526859,6.377160571789209e-05
1438.8390312479637,1438.8390312479637,1.000449323900673,6.377901337572235e-05
1438.8459758681022,1438.8459758681022,1.0002560491662542,6.378689912640866e-05
1438.8529204882402,1438.8529204882402,1.0000016677632433,6.37848438072199e-05
1438.859865108402,1438.859865108402,0.9999869405748338,6.378345803369648e-05
1438.8668097285404,1438.8668097285404,0.9997878541430085,6.37743093929966e-05
1438.8737543486782,1438.8737543486782,0.9999868095186404,6.378489022265595e-05
1438.880698968817,1438.880698968817,1.000051631134071,6.377945442364467e-05
1438.8876435889317,1438.8876435889317,1.0003234575987587,6.378169030939467e-05
1438.8945882090466,1438.8945882090466,1.000649008891629,6.377535446712997e-05
1438.9015328291614,1438.9015328291614,0.9999227188762202,6.378066098544299e-05
1438.9084774492533,1438.9084774492533,0.9998649867975574,6.37809631096052e-05
1438.9154220693217,1438.9154220693217,1.0003531949752014,6.378913036882619e-05
1438.9223666894136,1438.9223666894136,1.000133740883564,6.379316652452437e-05
1438.9293113095052,1438.9293113095052,0.9999243622298757,6.378645489385203e-05
1438.93625592955,1438.93625592955,0.9999199220096278,6.379422711306634e-05
1438.9432005496187,1438.9432005496187,0.9998656561349479,6.379211745890755e-05
1438.95014516964,1438.95014516964,1.0000740519772935,6.380052323404465e-05
1438.9570897896624,1438.9570897896624,1.000462602072974,6.380441180533568e-05
1438.9640344096838,1438.9640344096838,0.9999637706893945,6.380683745747613e-05
1438.970979029706,1438.970979029706,0.9999583703086978,6.380904879367762e-05
1438.9779236496813,1438.9779236496813,0.9999556961475278,6.380940991719532e-05
1438.98486826961,1438.98486826961,0.999914491975472,6.380713682286868e-05
1438.9918128895854,1438.9918128895854,0.999925841977069,6.380567203718521e-05
1438.998757509537,1438.998757509537,0.9999085186327372,6.380805583745946e-05
1439.0057021294426,1439.0057021294426,1.0001893071248662,6.380939120690372e-05
1439.012646749348,1439.012646749348,0.9999243878135733,6.38044154141076e-05
1439.01959136923,1439.01959136923,1.0004694458059291,6.381045445095755e-05
1439.0265359891123,1439.0265359891123,1.0000186234788528,6.380929937472032e-05
1439.0334806089945,1439.0334806089945,1.0001822612450684,6.380769149294013e-05
1439.0404252288067,1439.0404252288067,0.999822753634545,6.379990997833246e-05
1439.047369848619,1439.047369848619,1.0005453315528245,6.381360491359509e-05
1439.0543144684084,1439.0543144684084,1.0000529500788076,6.381251062858364e-05
1439.0612590882201,1439.0612590882201,0.9998648969835842,6.380862840300588e-05
1439.0682037079398,1439.0682037079398,0.9997537725691199,6.380375107350223e-05
1439.0751483277284,1439.0751483277284,1.0001168560635447,6.380969760197965e-05
1439.0820929474244,1439.0820929474244,1.0000629427898846,6.381116246793741e-05
1439.0890375671202,1439.0890375671202,0.9996998109220332,6.380183510903696e-05
1439.0959821868164,1439.0959821868164,1.0000994653182247,6.381188347555068e-05
1439.102926806419,1439.102926806419,0.9998506338670845,6.380135851976916e-05
1439.1098714260918,1439.1098714260918,1.000126385975903,6.380672501628901e-05
1439.116816045671,1439.116816045671,1.0002563027960907,6.379820258468243e-05
1439.1237606652508,1439.1237606652508,1.0001591902189626,6.379606994880372e-05
1439.1307052848065,1439.1307052848065,1.0004715567692355,6.379845490353722e-05
1439.1376499043631,1439.1376499043631,1.000016865926764,6.379452176925816e-05
1439.1445945238725,1439.1445945238725,0.9997403423699586,6.378627736359601e-05
1439.151539143359,1439.151539143359,1.000049810210332,6.377911517885692e-05
1439.158483762822,1439.158483762822,0.9998502333604039,6.37832871667078e-05
1439.1654283822384,1439.1654283822384,1.0000612975251546,6.378544873548228e-05
1439.1723730016315,1439.1723730016315,1.0002397677689794,6.378453361565546e-05
1439.179317621048,1439.179317621048,0.9999652075014016,6.378443913964308e-05
1439.1862622403946,1439.1862622403946,1.000006481233069,6.377848482552548e-05
1439.193206859718,1439.193206859718,1.0001218894707637,6.378363672518357e-05
1439.2001514790416,1439.2001514790416,0.9997983805579495,6.37768270678149e-05
1439.207096098318,1439.207096098318,1.000072313787711,6.378220742756078e-05
1439.2140407175716,1439.2140407175716,0.9998442723177545,6.377905617808879e-05
1439.220985336802,1439.220985336802,0.999862950731319,6.377677310552976e-05
1439.2279299559857,1439.2279299559857,1.0002293227936785,6.378224143743123e-05
1439.234874575146,1439.234874575146,0.9999749350261784,6.377441915054078e-05
1439.24181919426,1439.24181919426,1.0001033334489764,6.37822103625501e-05
1439.2487638133737,1439.2487638133737,0.9999882313384273,6.377724748845911e-05
1439.2557084324876,1439.2557084324876,1.0000920071155686,6.378000722671105e-05
1439.262653051485,1439.262653051485,0.9999747044717292,6.377340759381559e-05
1439.2695976705288,1439.2695976705288,0.9998876790131435,6.376363280682397e-05
1439.2765422895263,1439.2765422895263,0.9997917525948123,6.376254438839392e-05
1439.2834869084768,1439.2834869084768,0.9998730835755151,6.376892337055378e-05
1439.2904315274047,1439.2904315274047,1.0000838243556085,6.376993527453414e-05
1439.2973761462854,1439.2973761462854,1.000108856207127,6.376701270508015e-05
1439.304320765143,1439.304320765143,1.00043609150373,6.376613019944347e-05
1439.3112653839778,1439.3112653839778,1.0001667864280683,6.376530047414356e-05
1439.3182100027889,1439.3182100027889,0.9998085587867115,6.375413102012333e-05
1439.3251546215536,1439.3251546215536,1.0001650250416911,6.376053952573702e-05
1439.3320992402948,1439.3320992402948,1.0002012950909702,6.376943811150911e-05
1439.3390438589893,1439.3390438589893,0.9999343726018747,6.376871345594182e-05
1439.345988477661,1439.345988477661,0.9999629789226813,6.376819498590844e-05
1439.3529330963088,1439.3529330963088,0.9998655209859079,6.376777536380924e-05
1439.3598777148873,1439.3598777148873,1.0001189838049973,6.376892017004215e-05
1439.3668223334657,1439.3668223334657,0.9999908740123236,6.376934215034308e-05
1439.3737669520208,1439.3737669520208,0.9998737375706718,6.378232029312128e-05
1439.3807115704824,1439.3807115704824,1.0001103057136933,6.378406014706135e-05
1439.3876561889908,1439.3876561889908,1.0000664656243803,6.379195620084072e-05
1439.394600807406,1439.394600807406,0.9998666843982218,6.3785537548843e-05
1439.401545425822,1439.401545425822,1.0002427677456047,6.378315025059981e-05
1439.4084900441903,1439.4084900441903,0.9998859385499846,6.379225592956632e-05
1439.4154346625123,1439.4154346625123,0.9998457281494897,6.379596340175897e-05
1439.4223792808116,1439.4223792808116,1.0000376717949124,6.379323149997299e-05
1439.429323899064,1439.429323899064,0.999983887428429,6.378823943495105e-05
1439.4362685172928,1439.4362685172928,0.9999848873211684,6.380528902483947e-05
1439.4432131354754,1439.4432131354754,1.0002213450718367,6.381422025350595e-05
1439.4501577536344,1439.4501577536344,0.999953000603551,6.381028314776076e-05
1439.4571023717476,1439.4571023717476,0.99985483194151,6.381554051651692e-05
1439.4640469898366,1439.4640469898366,1.000053109760493,6.38228190433354e-05
1439.4709916079025,1439.4709916079025,0.9998698957779514,6.382347627065653e-05
1439.4779362258525,1439.4779362258525,1.0001518060578876,6.382943453436485e-05
1439.4848808438023,1439.4848808438023,1.000097564700907,6.382440689860863e-05
1439.4918254617517,1439.4918254617517,0.9998897788577328,6.383269085438274e-05
1439.4987700797014,1439.4987700797014,0.9999858741810514,6.383952671026715e-05
1439.5057146975346,1439.5057146975346,1.000026948441409,6.384796661342164e-05
1439.5126593153677,1439.5126593153677,1.0001740567131614,6.384771410934288e-05
1439.5196039331545,1439.5196039331545,0.999843191913478,6.384816912672164e-05
1439.5265485508946,1439.5265485508946,0.9998539351065385,6.385444764674849e-05
1439.5334931686114,1439.5334931686114,1.0000592687332899,6.385736187739676e-05
1439.5404377862587,1439.5404377862587,1.000389209563702,6.386785145272476e-05
1439.5473824039054,1439.5473824039054,1.0001621428979286,6.387298514553682e-05
1439.554327021506,1439.554327021506,0.9999007026200211,6.387189505082699e-05
1439.5612716390829,1439.5612716390829,1.0000404810475678,6.387446131753366e-05
1439.5682162565906,1439.5682162565906,1.0002056085101785,6.38790455405668e-05
1439.575160874051,1439.575160874051,1.000235071386207,6.388140443139154e-05
1439.5821054914884,1439.5821054914884,0.9998510895907776,6.388023334540985e-05
1439.589050108856,1439.589050108856,1.0000793918924198,6.38884844790323e-05
1439.595994726224,1439.595994726224,0.9999919022109361,6.389207751028826e-05
1439.6029393435913,1439.6029393435913,0.9999479885328857,6.389461304357196e-05
1439.6098839608426,1439.6098839608426,0.9998878765299934,6.389590036367234e-05
1439.6168285781168,1439.6168285781168,1.0000634887028825,6.390244830410662e-05
1439.6237731952986,1439.6237731952986,1.0000854757639908,6.39085009660909e-05
1439.6307178124564,1439.6307178124564,0.9999959117999809,6.390000362143613e-05
1439.637662429591,1439.637662429591,0.9999273382966747,6.391233148207575e-05
1439.644607046656,1439.644607046656,1.0001183350644234,6.391663809821477e-05
1439.6515516636978,1439.6515516636978,1.000010255988921,6.391619443097566e-05
1439.658496280716,1439.658496280716,0.9999138916093766,6.39131325093221e-05
1439.6654408976647,1439.6654408976647,1.000224803685566,6.39147140574465e-05
1439.6723855145897,1439.6723855145897,0.9997794250525001,6.391229362819037e-05
1439.679330131492,1439.679330131492,0.9998030586801774,6.391826440469209e-05
1439.6862747482771,1439.6862747482771,1.0004905764883283,6.393469161270083e-05
1439.6932193650625,1439.6932193650625,0.9999425488402995,6.393349125486529e-05
1439.700163981848,1439.700163981848,1.0000087825883148,6.393681419523916e-05
1439.707108598564,1439.707108598564,1.0000889568877471,6.393693709406452e-05
1439.7140532152564,1439.7140532152564,0.9998814546942342,6.393632464633299e-05
1439.720997831879,1439.720997831879,1.0000217003818836,6.394583878278692e-05
1439.727942448478,1439.727942448478,1.0000821449920587,6.3945591646737e-05
1439.7348870650078,1439.7348870650078,0.9998951457887048,6.394272581717914e-05
1439.741831681537,1439.741831681537,1.0000965479234143,6.395537262555042e-05
1439.748776297973,1439.748776297973,0.9999261507021974,6.395049246448843e-05
1439.7557209144093,1439.7557209144093,0.9999211082111495,6.395435147429736e-05
1439.7626655307754,1439.7626655307754,0.9999470731832076,6.395552265989001e-05
