time,time,flux,flux_err
1325.2996336223778,1325.2996336223778,0.9999392453473223,0.00014039699834853344
1325.3079668431526,1325.3079668431526,1.0002295982583311,0.00014040746129689532
1325.31630006419,1325.31630006419,0.9999817815102405,0.00014039961048993625
1325.3239388503794,1325.3239388503794,0.9999976634419718,0.00012817486479423272
1325.330883201665,1325.330883201665,0.9999472276269824,0.00012818092551225314
1325.3378275531318,1325.3378275531318,0.9998440425038299,0.0001281900425714821
1325.3447719047786,1325.3447719047786,0.9999387873579926,0.00012821217066977386
1325.3517162566059,1325.3517162566059,0.9998644373134429,0.00012822577029528197
1325.3586606086076,1325.3586606086076,0.999962354262418,0.0001282557147553696
1325.3656049608076,1325.3656049608076,1.0001143699963138,0.00012828328354082627
1325.3725493131758,1325.3725493131758,0.9998993257391717,0.00012829061636252832
1325.379493665725,1325.379493665725,1.0000625498318207,0.00012831928164723183
1325.3864380184427,1325.3864380184427,1.00003805247433,0.00012833285585168107
1325.3933823713467,1325.3933823713467,1.0000394000082686,0.00012835843514135903
1325.4003267244138,1325.4003267244138,1.0002027192472904,0.00012838802321545704
1325.407271077644,1325.407271077644,1.0000832212812552,0.00012839526918867128
1325.41421543106,1325.41421543106,0.9999000140531299,0.00012839842919506745
1325.4211597846395,1325.4211597846395,0.9999082857037026,0.00012841641970375521
1325.4281041383815,1325.4281041383815,0.9998792066571364,0.00012843660983375674
1325.4350484922868,1325.4350484922868,1.0000704733798123,0.00012847365952685282
1325.441992846361,1325.441992846361,0.9999514171278069,0.0001284799581899063
1325.448937200604,1325.448937200604,0.9998411120485077,0.00012849211209803123
1325.4558815549983,1325.4558815549983,1.0001964562635977,0.00012852973862951557
1325.462825909555,1325.462825909555,1.0000192074666399,0.00012853169268064335
1325.4697702642811,1325.4697702642811,0.9999455762953693,0.00012855389566706005
1325.4767146191527,1325.4767146191527,0.9998120074767349,0.00012855735804537005
1325.4836589741813,1325.4836589741813,1.0001206795024624,0.00012860029380833772
1325.490603329367,1325.490603329367,1.0001184498925202,0.00012860890268222438
1325.4975476847103,1325.4975476847103,0.9998784030077662,0.0001286213130611149
1325.5044920401988,1325.5044920401988,1.0001623928304442,0.00012865704242102493
1325.511436395839,1325.511436395839,0.9999857061159565,0.00012866191700204908
1325.5183807516296,1325.5183807516296,0.9998770938114937,0.00012867227732502517
1325.5253251075665,1325.5253251075665,1.0001521748555475,0.00012872061124727624
1325.5322694636484,1325.5322694636484,1.0000824957037344,0.00012873230973276244
1325.539213819882,1325.539213819882,0.9999426947672774,0.0001287529180175469
1325.5461581762497,1325.5461581762497,0.9998377988583182,0.0001287684983992233
1325.5531025327741,1325.5531025327741,0.999955056297515,0.00012878710341480775
1325.560046889433,1325.560046889433,0.9999948622805007,0.0001288112695389464
1325.5669912462308,1325.5669912462308,1.0001852761828731,0.00012884182994760346
1325.573935603157,1325.573935603157,0.9998518094738849,0.0001288438034161587
1325.5808799602291,1325.5808799602291,0.9998792162906618,0.00012886167878243596
1325.5878243174343,1325.5878243174343,0.9999161953003863,0.00012888008883211145
1325.5947686747797,1325.5947686747797,1.0003367319990109,0.00012892333439967172
1325.6017130322589,1325.6017130322589,0.9999715933679335,0.00012891189302637022
1325.6086573898663,1325.6086573898663,1.000088999908097,0.00012894536199805354
1325.6156017476135,1325.6156017476135,0.9998455171572767,0.0001289341282485914
1325.6225461054767,1325.6225461054767,0.9999907237025376,0.0001289481152033501
1325.6294904634797,1325.6294904634797,0.9999840111264533,0.00012895381759581723
1325.636434821605,1325.636434821605,0.999959347018345,0.00012896255193045535
1325.6433791798522,1325.6433791798522,1.0001159401259243,0.0001289848585517417
1325.6503235382222,1325.6503235382222,1.000077813905268,0.00012898994353801503
1325.657267896726,1325.657267896726,0.9999967699511089,0.0001289897707550371
1325.6642122553576,1325.6642122553576,1.0000166207217047,0.00012899293665359383
1325.671156614094,1325.671156614094,0.9998278434509196,0.00012899156091138398
1325.6781009729586,1325.6781009729586,0.9999197038316675,0.00012900645019274696
1325.6850453319455,1325.6850453319455,0.999957556668231,0.00012899888709663008
1325.6919896910372,1325.6919896910372,1.0000669906084876,0.00012902789879615993
1325.6989340502626,1325.6989340502626,1.0000612313016681,0.00012902598543786738
1325.705878409593,1325.705878409593,1.0002462992079018,0.00012904902763349017
1325.7128227690332,1325.7128227690332,0.9998657853596404,0.00012903913101317365
1325.7197671285965,1325.7197671285965,0.9999100158672173,0.00012905310560467825
1325.7267114882643,1325.7267114882643,0.9999901764028494,0.0001290764850630447
1325.7336558480483,1325.7336558480483,0.9998524397695162,0.00012908527872401777
1325.7406002079435,1325.7406002079435,1.000063790203407,0.00012909955096585658
1325.7475445679427,1325.7475445679427,1.0000721104995547,0.00012911776704652614
1325.754488928053,1325.754488928053,1.0001664397322456,0.00012914018311781838
1325.7614332882624,1325.7614332882624,0.9998716360312248,0.0001291324872591927
1325.7683776485878,1325.7683776485878,1.0001806619737823,0.000129177213862814
1325.7753220090121,1325.7753220090121,0.9997476858366674,0.0001291643273971356
1325.7822663695417,1325.7822663695417,0.9999368925979161,0.0001292026081492067
1325.789210730176,1325.789210730176,0.9999676236384485,0.0001292179435075554
1325.7961550909088,1325.7961550909088,1.0003250531476207,0.000129259213711653
1325.8030994517408,1325.8030994517408,0.9999772305690942,0.00012924372375246342
1325.8100438126776,1325.8100438126776,1.0000339527164626,0.00012926451648673457
1325.8169881737072,1325.8169881737072,0.9998883420415489,0.00012926991279086226
1325.8239325348304,1325.8239325348304,1.00001231448393,0.00012929014180555369
1325.830876896058,1325.830876896058,0.9998800208801818,0.00012928753019624946
1325.8378212573848,1325.8378212573848,1.0000483785581444,0.00012929962976489622
1325.8447656188105,1325.8447656188105,0.9998796177392203,0.00012930088556285417
1325.8517099803055,1325.8517099803055,0.999913544915799,0.00012930498073450322
1325.8586543419183,1325.8586543419183,1.0000718752123734,0.00012931462391054357
1325.8655987036113,1325.8655987036113,1.000110653768704,0.00012931334927498392
1325.872543065398,1325.872543065398,0.9998541322743296,0.0001292912082785152
1325.8794874272776,1325.8794874272776,1.0002726140790668,0.00012929531015075136
1325.886431789239,1325.886431789239,1.0000002622029283,0.00012928132880066066
1325.8933761512874,1325.8933761512874,1.0001339624964447,0.00012928325310409622
1325.900320513429,1325.900320513429,0.9999240360221091,0.0001292698047181949
1325.9072648756578,1325.9072648756578,0.9999800073150524,0.00012926549556338746
1325.9142092379684,1325.9142092379684,0.999915274189842,0.00012925422788295408
1325.9211536003772,1325.9211536003772,1.0001072938940987,0.00012925880563992
1325.9280979628572,1325.9280979628572,0.9997097105368524,0.00012923761151870528
1325.9350423254118,1325.9350423254118,1.0000158666217318,0.00012924710425976155
1325.9419866880658,1325.9419866880658,0.9998959010454092,0.00012924774406704553
1325.9489310507895,1325.9489310507895,1.0001297899106287,0.00012925052803129523
1325.9558754136065,1325.9558754136065,1.0000873239928676,0.0001292522643625919
1325.9636531000483,1325.9636531000483,1.0002478797631629,0.000129254541234609
1325.9711530120608,1325.9711530120608,0.9997758109860385,0.00012923353110507135
1325.978097375128,1325.978097375128,1.0000764117979426,0.00012925772061663394
1325.9850417382706,1325.9850417382706,0.9999904868342725,0.00012926393018136866
1325.9919861014832,1325.9919861014832,0.9999815344602769,0.00012925996408725545
1325.9989304647715,1325.9989304647715,0.9998003503649346,0.00012925221819745108
1326.0058748281472,1326.0058748281472,1.0000914678765045,0.00012929195995905525
1326.0128191915812,1326.0128191915812,0.9999350552787881,0.00012929428913509142
1326.0197635551024,1326.0197635551024,1.0000651121930355,0.00012931325158471247
1326.0267079186879,1326.0267079186879,1.0000207444597802,0.00012933655041855332
1326.0336522823486,1326.0336522823486,1.0000705253014375,0.00012934184973346224
1326.0405966460728,1326.0405966460728,0.9999395597311814,0.00012933849498436624
1326.0475410098857,1326.0475410098857,1.0002579700521852,0.00012935629161595527
1326.05448537375,1326.05448537375,1.00005009401847,0.0001293512088819595
1326.06142973769,1326.06142973769,1.000023759528467,0.00012934619885710121
1326.0683741017006,1326.0683741017006,1.000062742522422,0.00012935623171082036
1326.07531846578,1326.07531846578,0.99980983317033,0.0001293522354168391
1326.0822628299304,1326.0822628299304,1.0000110046480308,0.00012937184795002002
1326.0892071941382,1326.0892071941382,0.9999085550316213,0.00012936434216021168
1326.0961515584163,1326.0961515584163,1.0001362505334348,0.00012939477411598124
1326.1030959227583,1326.1030959227583,1.0000828263333,0.00012938768288189352
1326.110040287158,1326.110040287158,0.999861736626079,0.0001293693184223075
1326.1169846516336,1326.1169846516336,0.9999326851820282,0.00012938015827693752
1326.1239290161675,1326.1239290161675,1.0000998485768853,0.000129388656318508
1326.1308733807602,1326.1308733807602,0.9999058251942415,0.00012938477784513384
1326.137817745422,1326.137817745422,0.9999776228094925,0.00012938906715131987
1326.1447621101424,1326.1447621101424,1.0000457698258773,0.0001293965131149018
1326.1517064749148,1326.1517064749148,1.0000632466074806,0.0001293895228218222
1326.1586508397688,1326.1586508397688,1.0000608503349617,0.00012939225038801616
1326.165595204664,1326.165595204664,1.0000982838819055,0.0001293933329483946
1326.1725395696226,1326.1725395696226,1.0000201844441328,0.00012938214182049566
1326.1794839346398,1326.1794839346398,0.9997539660050421,0.00012936097018512765
1326.1864282997094,1326.1864282997094,1.0000681547953723,0.00012937991818413457
1326.1933726648542,1326.1933726648542,0.9997711832785894,0.00012937068926150086
1326.2003170300407,1326.2003170300407,1.0001029731748303,0.00012939250811646759
1326.2072613952844,1326.2072613952844,1.0000253673416073,0.0001293635112268391
1326.2142057605872,1326.2142057605872,1.0000708452769893,0.0001293800162943571
1326.22115012593,1326.22115012593,1.0000615845850849,0.0001293769128095516
1326.2280944913543,1326.2280944913543,0.99992287133894,0.00012936827314814103
1326.2350388568198,1326.2350388568198,1.0001716675771661,0.00012938798036973544
1326.2419832223427,1326.2419832223427,1.0000564590155463,0.00012937808266300462
1326.2489275879075,1326.2489275879075,0.999949298568971,0.00012936170024809132
1326.2558719535239,1326.2558719535239,1.0000890422920359,0.0001293805355635879
1326.2628163191991,1326.2628163191991,0.999974441434383,0.0001293724813997112
1326.2697606849263,1326.2697606849263,0.9997740545946258,0.00012935684257482587
1326.2767050506998,1326.2767050506998,0.9998845463108449,0.0001293549730670311
1326.2836494165322,1326.2836494165322,0.9999127063903472,0.000129360034413729
1326.2905937824105,1326.2905937824105,1.000073904538634,0.00012936863771716842
1326.2975381483297,1326.2975381483297,1.0001438408526495,0.0001293809960053639
1326.3044825143074,1326.3044825143074,1.0000765520048223,0.00012937428617602095
1326.3114268803258,1326.3114268803258,1.0000238650215736,0.00012937022779029465
1326.3183712463965,1326.3183712463965,0.9999221047821507,0.00012936063039381524
1326.325315612519,1326.325315612519,1.0000812569626696,0.0001293778744379643
1326.3322599786834,1326.3322599786834,1.0001191590251366,0.00012938320121342752
1326.3392043448935,1326.3392043448935,0.999905953748905,0.00012936871032266515
1326.3467042604511,1326.3467042604511,1.0001249824053944,0.00012939584472972457
1326.3558708239857,1326.3558708239857,0.9999255270642479,0.00012939785591902504
1326.3628151903533,1326.3628151903533,0.9999472952363744,0.0001293927928003729
1326.3697595567617,1326.3697595567617,1.0000842276839994,0.00012939696978379097
1326.3767039232107,1326.3767039232107,1.0001778387366898,0.00012941338397981058
1326.3836482897118,1326.3836482897118,0.9999159011140254,0.0001294110561424091
1326.3905926562543,1326.3905926562543,0.9999207903085792,0.00012941163216452552
1326.3975370228313,1326.3975370228313,1.0000522658643745,0.00012942031789879018
1326.404481389449,1326.404481389449,1.000002349096953,0.000129426627788251
1326.4114257561312,1326.4114257561312,0.9999452193546425,0.00012942943903950275
1326.4183701228303,1326.4183701228303,0.9998908643915685,0.0001294315135825879
1326.4253144895706,1326.4253144895706,0.9999620760031498,0.00012944244615840518
1326.4322588563628,1326.4322588563628,0.9999376730514531,0.00012943637193783093
1326.4392032231958,1326.4392032231958,1.0000506683204011,0.00012943826621930265
1326.4461475900641,1326.4461475900641,1.0001573200679368,0.00012946172426604608
1326.453091956967,1326.453091956967,1.000208554434479,0.00012946240297175216
1326.4600363239165,1326.4600363239165,0.9999404761091893,0.00012946007408061173
1326.4669806909012,1326.4669806909012,0.9998521962796992,0.00012945470277583374
1326.4739250579264,1326.4739250579264,0.9999653564439731,0.00012945770441456748
1326.4808694249866,1326.4808694249866,0.9999295561698249,0.00012945822645357046
1326.4878137920873,1326.4878137920873,1.000181311074012,0.00012947959089074616
1326.4947581592176,1326.4947581592176,0.9999688729309316,0.00012946378763167317
1326.5017025263883,1326.5017025263883,0.9998684351278339,0.00012946678407861997
1326.5086468935942,1326.5086468935942,0.9999978782340995,0.0001294742833448172
1326.5155912608404,1326.5155912608404,1.0000115999688353,0.000129487756474431
1326.522535628116,1326.522535628116,1.0000971908057115,0.00012950201872645735
1326.5294799954327,1326.5294799954327,0.9999808904438124,0.0001294965531278179
1326.5364243627835,1326.5364243627835,0.9998632190053345,0.00012949765159556327
1326.54336873017,1326.54336873017,1.0002070339466287,0.0001295248062685955
1326.5503130975853,1326.5503130975853,1.0000966827145967,0.00012953596257958615
1326.5572574650353,1326.5572574650353,0.9998500800823814,0.00012952613470599384
1326.5642018325204,1326.5642018325204,1.000111877860419,0.0001295375743452679
1326.5711462000404,1326.5711462000404,0.9998219739789033,0.0001295230545414146
1326.5780905676013,1326.5780905676013,1.0000338906431003,0.0001295305462986922
1326.5850349351736,1326.5850349351736,0.9998764409353738,0.00012952811469292813
1326.591979302787,1326.591979302787,1.0001259221276755,0.0001295416081811884
1326.5989236704347,1326.5989236704347,0.9998655179143542,0.00012952057313778058
1326.605868038106,1326.605868038106,1.0000177620126216,0.00012954719896085556
1326.6128124058127,1326.6128124058127,1.0000312096319903,0.0001295440896586444
1326.6197567735653,1326.6197567735653,1.0003188953421247,0.00012956454994214684
1326.6267011413302,1326.6267011413302,0.9998733347549452,0.00012954546480029323
1326.633645509135,1326.633645509135,1.0000283382825574,0.00012955600072893752
1326.640589876958,1326.640589876958,0.9998450449795901,0.00012953681012023432
1326.6475342448155,1326.6475342448155,1.0000217681582622,0.00012954598934381136
1326.654478612708,1326.654478612708,0.9998859952044242,0.00012952667511708973
1326.6614229806298,1326.6614229806298,1.000009287622857,0.0001295213574853828
1326.6683673485745,1326.6683673485745,1.0003483096719938,0.00012953658672166908
1326.6753117165547,1326.6753117165547,0.9997925951119054,0.00012949796321167685
1326.6822560845521,1326.6822560845521,1.0001651047092823,0.00012951389040928612
1326.6903115514765,1326.6903115514765,1.0000571405745566,0.00012949717245836005
1326.697533694252,1326.697533694252,0.9999667272755429,0.00012948261302088142
1326.7044780623482,1326.7044780623482,1.0001480515936663,0.0001294873660112173
1326.71197797992,1326.71197797992,1.0000358707283952,0.00012944939678679059
1326.7197556722465,1326.7197556722465,0.9998937355134115,0.00012944438018242077
1326.7267000404127,1326.7267000404127,1.0000099778955687,0.00012943366222317563
1326.7336444086136,1326.7336444086136,0.9997475650427898,0.00012941398077374416
1326.7405887768439,1326.7405887768439,1.0002113534256978,0.00012943510203446306
1326.7475331450971,1326.7475331450971,0.9998960773403299,0.0001294067015620399
1326.7544775133679,1326.7544775133679,1.0000401841835753,0.00012940662421989755
1326.7614218816739,1326.7614218816739,1.0000337463273652,0.0001294070560992392
1326.7683662500028,1326.7683662500028,0.9998629159124597,0.00012937976305188692
1326.7753106183611,1326.7753106183611,1.00027450189768,0.00012940273628735967
1326.7822549867312,1326.7822549867312,1.0000177253241824,0.0001293945731373731
1326.78919935513,1326.78919935513,0.9999125411743954,0.00012937490053472716
1326.7961437235467,1326.7961437235467,0.9999595299029806,0.00012938660943183643
1326.8030880919982,1326.8030880919982,1.0000352387811122,0.00012939519076019958
1326.810032460467,1326.810032460467,1.0000269051066835,0.00012939145039536707
1326.8169768289586,1326.8169768289586,1.0000162620077255,0.00012938592057530526
1326.8239211974742,1326.8239211974742,0.9999077884158769,0.0001293921603863775
1326.8308655660128,1326.8308655660128,0.9999991778438773,0.00012939590704156442
1326.8378099345691,1326.8378099345691,0.9999353124327651,0.0001293870227239497
1326.8447543031425,1326.8447543031425,1.0001837848638577,0.00012939603330968988
1326.8516986717568,1326.8516986717568,0.9998175298257127,0.0001293663510738778
1326.8586430403827,1326.8586430403827,1.0000922709611064,0.00012937619355628076
1326.865587409021,1326.865587409021,0.9999472124548096,0.00012935935917510804
1326.8725317776934,1326.8725317776934,0.9999868658439371,0.00012934250688193878
1326.8794761463773,1326.8794761463773,0.9998258546374394,0.0001293241205714378
1326.8864205150908,1326.8864205150908,1.0001003898161864,0.00012932905408301475
1326.893364883821,1326.893364883821,1.0000400008082693,0.0001293020566334696
1326.900309252564,1326.900309252564,0.9999771622324722,0.00012927217824684403
1326.9072536213293,1326.9072536213293,1.0000474269624795,0.0001292572025552147
1326.9141979901185,1326.9141979901185,1.0000697627819641,0.00012923751294147864
1326.9211423589247,1326.9211423589247,1.0000803112898324,0.0001292336077203554
1326.928086727749,1326.928086727749,1.0000864617004237,0.0001292038961256794
1326.9350310965904,1326.9350310965904,1.0000559967919203,0.0001291995350403809
1326.9419754654605,1326.9419754654605,0.9997707419009526,0.00012916426300189413
1326.9489198343367,1326.9489198343367,0.9999964969548503,0.0001291695562356708
1326.9558642032364,1326.9558642032364,0.9999945523487659,0.00012914955567875145
1326.9628085721595,1326.9628085721595,0.9998541283009665,0.00012913356697334205
1326.969752941094,1326.969752941094,1.000160512473553,0.00012913683795551996
1326.9766973100511,1326.9766973100511,0.9999806757845275,0.00012910811352177354
1326.983641679021,1326.983641679021,1.0000136366497392,0.0001290953389922887
1326.9905860480078,1326.9905860480078,1.0000852812601864,0.00012909599446590028
1326.9975304170243,1326.9975304170243,0.9999701378716759,0.00012908638926483596
1327.0044747860456,1327.0044747860456,0.9997639485850079,0.00012907693000382254
1327.011419155079,1327.011419155079,1.0000711177221007,0.00012907818170001108
1327.0183635241356,1327.0183635241356,0.9999202166691366,0.00012905434331195946
1327.0253078932099,1327.0253078932099,1.0000750523635584,0.0001290832531727888
1327.0322522623017,1327.0322522623017,1.0000678627374857,0.00012907133530960397
1327.0391966314046,1327.0391966314046,1.0001005530726803,0.00012906779561724468
1327.046141000526,1327.046141000526,1.0001438448499638,0.00012908053339873434
1327.053085369664,1327.053085369664,0.9998486123300505,0.00012906466107939334
