time,time,flux,flux_err
1683.3551574685935,1683.3551574685935,1.0000008434359444,0.00022139360945417085
1683.3634908920885,1683.3634908920885,0.9999031723650029,0.00022136317121290708
1683.371129863519,1683.371129863519,1.0000613618001175,0.00020203100954288545
1683.3780743828152,1683.3780743828152,0.9998612213702428,0.00020203089064588174
1683.3850189022505,1683.3850189022505,1.0001222357163946,0.0002020536154345636
1683.3919634215931,1683.3919634215931,1.000062869997943,0.00020199756557754957
1683.3989079409353,1683.3989079409353,1.0002088104762454,0.0002019907125011918
1683.4058524601846,1683.4058524601846,1.000053929805987,0.0002019895827716929
1683.4127969793876,1683.4127969793876,0.9999775514831175,0.0002019997839559209
1683.4197414985902,1683.4197414985902,0.9999620254463251,0.00020201180951227822
1683.4266860177468,1683.4266860177468,0.999658379959628,0.00020193529746731612
1683.4336305369027,1683.4336305369027,0.9999698303351467,0.00020195179907641402
1683.4405750559195,1683.4405750559195,1.000136301378879,0.00020196201305020006
1683.4475195750292,1683.4475195750292,1.0001047066930973,0.0002020059902515823
1683.4544640939985,1683.4544640939985,1.0001540305672223,0.00020197420315165365
1683.4614086130155,1683.4614086130155,0.9996258154454983,0.00020197285617556162
1683.4683531318922,1683.4683531318922,1.0001556168747139,0.00020199376398047098
1683.4752976508157,1683.4752976508157,1.0000366777180247,0.00020200208618414043
1683.4822421696924,1683.4822421696924,1.0004003276840456,0.0002020361573541822
1683.4891866886155,1683.4891866886155,1.000040272519375,0.00020202712165122644
1683.4961312073997,1683.4961312073997,0.9995707659635483,0.0002019828040713279
1683.5030757261834,1683.5030757261834,0.9997143384102426,0.00020197197744551811
1683.5100202449205,1683.5100202449205,1.0002162617252648,0.0002020161567725014
1683.5169647636571,1683.5169647636571,0.9996971523497258,0.00020193568292793353
1683.5239092823479,1683.5239092823479,1.0001271856537002,0.00020203492007399887
1683.5308538010388,1683.5308538010388,1.0001042010435899,0.00020203207131680358
1683.5377983196358,1683.5377983196358,1.000332937908077,0.00020204943519864935
1683.5447428382802,1683.5447428382802,1.0006795611563075,0.00020204534232359702
1683.5527984798543,1683.5527984798543,0.9999259259977873,0.0002020047753858255
1683.5611319020693,1683.5611319020693,0.9998402358644098,0.00020195618003821433
1683.5708542280404,1683.5708542280404,1.0000510594031806,0.00020193953057263294
1683.5780765272775,1683.5780765272775,0.9995575741353837,0.00020190616315355738
1683.5864099493986,1683.5864099493986,1.0001730512002203,0.0002020219454455708
1683.593354467857,1683.593354467857,1.0000456167989493,0.00020198428824844353
1683.6002989862213,1683.6002989862213,1.000176011259161,0.0002019454365210401
1683.6089101891216,1683.6089101891216,1.000125177315645,0.00020188437715686365
1683.6169658303709,1683.6169658303709,1.0000640069923237,0.00020199103461544175
1683.6239103486892,1683.6239103486892,0.9997644912836054,0.0002019083075412823
1683.630854867007,1683.630854867007,1.0000396142507977,0.00020193074391268166
1683.6391882889882,1683.6391882889882,1.0004366910116484,0.0002019475969817376
1683.6461328073062,1683.6461328073062,0.9999358090408885,0.000201969315418574
1683.6530773254385,1683.6530773254385,0.9997410767116225,0.00020193186475310777
1683.6600218437095,1683.6600218437095,1.0001918674407155,0.00020201134164534078
1683.6669663619348,1683.6669663619348,0.9998029600147177,0.00020197082025456343
1683.6739108801125,1683.6739108801125,1.0004744697851617,0.0002021121311953476
1683.6808553982912,1683.6808553982912,1.0002411695158813,0.00020201338997138534
1683.6877999164699,1683.6877999164699,1.0000584099344236,0.00020195173250750365
1683.6947444346013,1683.6947444346013,0.9997861597354463,0.0002020005272254358
1683.7016889526865,1683.7016889526865,0.9998427568375755,0.0002019641315660117
1683.7086334708179,1683.7086334708179,0.9999688273638554,0.0002020047656722651
1683.7155779889035,1683.7155779889035,0.9999176702487265,0.00020197440932051292
1683.7225225069888,1683.7225225069888,1.000417375200407,0.00020199128804309664
1683.7294670250274,1683.7294670250274,1.0000504860867616,0.00020198261136267597
1683.736411543066,1683.736411543066,0.9998792954846415,0.000201918275700104
1683.7433560611048,1683.7433560611048,1.0000790986843464,0.00020202173725335557
1683.750300579143,1683.750300579143,1.000000286504769,0.00020192750003370056
1683.7572450970886,1683.7572450970886,0.9997879448702509,0.00020199940074675294
1683.7641896150806,1683.7641896150806,0.999806599502525,0.00020200144169950466
1683.7711341330728,1683.7711341330728,1.0000492604211042,0.00020198983185852905
1683.7780786510182,1683.7780786510182,0.9999444249308368,0.00020196862745069276
1683.7850231690106,1683.7850231690106,1.0001178571603346,0.00020202971565916856
1683.7919676869558,1683.7919676869558,1.00023709469736,0.00020205202780591863
1683.7989122048548,1683.7989122048548,1.0001803750246245,0.00020205207642832513
1683.805856722754,1683.805856722754,1.0001073948235688,0.00020199540502313187
1683.8128012406523,1683.8128012406523,0.9998527830157045,0.0002019808872818593
1683.8197457585516,1683.8197457585516,1.0000531660101215,0.00020202749392554927
1683.8266902764503,1683.8266902764503,1.0000474104347952,0.00020201093128031342
1683.8336347943034,1683.8336347943034,0.9997867841438801,0.0002020015650556087
1683.8405793121553,1683.8405793121553,0.9997487612559631,0.00020196029763902443
1683.8475238300075,1683.8475238300075,0.9998029522412125,0.00020199593203945013
1683.8544683478601,1683.8544683478601,0.9999579615878886,0.00020206286106981623
1683.861412865666,1683.861412865666,1.0001333336597664,0.00020202420038224956
1683.8683573835183,1683.8683573835183,1.0002039465205042,0.00020205195736009473
1683.8753019013238,1683.8753019013238,1.0000381504056555,0.00020203322703917686
1683.8822464191296,1683.8822464191296,1.000520467914818,0.0002019714008764882
1683.891690963344,1683.891690963344,1.0000790792782877,0.00020199466821006377
1683.9016910690232,1683.9016910690232,0.9998272362448362,0.00020199893604595662
1683.908635586736,1683.908635586736,0.9999624498220705,0.00020192601844349522
1683.9155801045417,1683.9155801045417,0.9998806156744319,0.00020200805718922438
1683.9225246223475,1683.9225246223475,1.0000808659358016,0.00020200645718204658
1683.9294691400603,1683.9294691400603,0.9999214124980401,0.0002019936047831356
1683.9364136578195,1683.9364136578195,0.9997333401913526,0.00020200615444049088
1683.9433581755322,1683.9433581755322,1.0000974880135165,0.00020203698307965124
1683.9503026932914,1683.9503026932914,1.0001565275964759,0.00020199432159219796
1683.9572472111438,1683.9572472111438,1.0003988054359407,0.00020202468236665594
1683.9641917288566,1683.9641917288566,0.9997543701885536,0.00020194892785487962
1683.9711362466157,1683.9711362466157,0.9996282640753311,0.00020196663711176968
1683.9780807643285,1683.9780807643285,1.0002323362804018,0.0002019974065053066
1683.9850252819947,1683.9850252819947,0.999960537634724,0.0002019844082730788
1683.9919697997072,1683.9919697997072,1.000065149549545,0.00020202763268744797
1683.9989143174196,1683.9989143174196,0.9999726456868256,0.00020200116288998123
1684.0058588351792,1684.0058588351792,1.0002851128540138,0.0002020128987766691
1684.0128033528922,1684.0128033528922,1.0001677330559642,0.00020201694010279966
1684.0197478706511,1684.0197478706511,0.9997841380512871,0.0002020027459374469
1684.0266923883635,1684.0266923883635,0.9999078163142394,0.00020200273639171904
1684.033636905983,1684.033636905983,0.9997232948661754,0.0002020269973970087
1684.0405814237427,1684.0405814237427,1.0000258346775086,0.0002020195179875728
1684.0483592836067,1684.0483592836067,1.0000879234855,0.00020197784833373032
1684.0558593627386,1684.0558593627386,0.99985715941734,0.000202009972150463
1684.0628038803575,1684.0628038803575,1.000024310579533,0.00020199341025912287
1684.069748398117,1684.069748398117,1.0000224276668277,0.00020199922635136128
1684.07669291583,1684.07669291583,1.0000893700767814,0.0002020142266463056
1684.0836374334958,1684.0836374334958,0.9999922550556809,0.00020193411751192382
1684.0905819512082,1684.0905819512082,1.0000608731117018,0.00020200102716723222
1684.0975264689212,1684.0975264689212,1.000177706378405,0.00020192862256762883
1684.1044709866808,1684.1044709866808,0.9998361911125564,0.00020199865234704395
1684.1114155043,1684.1114155043,1.000196128648827,0.00020189411560988176
1684.1183600220124,1684.1183600220124,0.9996553405547324,0.00020192292611731478
1684.125304539772,1684.125304539772,1.000190257849595,0.00020205590220167776
1684.1322490574846,1684.1322490574846,1.0000075928242034,0.00020204327392458462
1684.1391935751042,1684.1391935751042,1.0001695462728388,0.00020209700207386147
1684.146138092863,1684.146138092863,0.9994482279453052,0.00020202750425498734
1684.153082610576,1684.153082610576,1.0001039725943084,0.0002020294222905269
1684.1600271283355,1684.1600271283355,1.0001520572411953,0.00020208633851799153
1684.1669716460478,1684.1669716460478,1.000092182228644,0.00020204895579234184
1684.1739161638075,1684.1739161638075,1.0002684477108803,0.0002021033760485109
1684.1808606814266,1684.1808606814266,0.9998146204087736,0.00020208591019678948
1684.1878051991396,1684.1878051991396,0.999880619584113,0.0002020692413751763
1684.1947497168985,1684.1947497168985,1.0001499655566035,0.0002021214433535856
1684.2016942346113,1684.2016942346113,1.0000001089208326,0.00020208185897995098
1684.2086387523705,1684.2086387523705,0.999966435945271,0.00020208288993656923
1684.2155832700832,1684.2155832700832,0.999364176521323,0.00020206460052095326
1684.2225277878429,1684.2225277878429,0.9997974580145119,0.00020208081784698853
1684.2294723056016,1684.2294723056016,1.0002594273882195,0.00020216715633412133
1684.2364168234071,1684.2364168234071,1.0000614411999773,0.00020217598495873309
1684.2433613411667,1684.2433613411667,1.0005124408088268,0.00020213511132086565
1684.2503058588795,1684.2503058588795,0.9996002724177492,0.00020212376221368528
1684.2572503766387,1684.2572503766387,1.0000779689644528,0.0002022065380138485
1684.2641948944442,1684.2641948944442,0.9999395131477586,0.0002021629516930929
1684.2711394122034,1684.2711394122034,0.9998522353231092,0.00020221036091614634
1684.2780839299635,1684.2780839299635,1.0001145349477494,0.00020215322564500426
1684.285028447815,1684.285028447815,1.0002103625273977,0.00020218501529821668
1684.2919729655282,1684.2919729655282,0.9998285930678078,0.00020223000363783831
1684.2989174833801,1684.2989174833801,1.0000635041135535,0.0002021450693275826
1684.3058620011402,1684.3058620011402,1.0000718133399678,0.00020228759197936591
1684.3128065189917,1684.3128065189917,0.9997624856784372,0.00020226319601175953
1684.3197510367977,1684.3197510367977,1.0000201666297748,0.00020233394567354237
1684.3266955546035,1684.3266955546035,0.9998952436168832,0.0002022583661005852
1684.3336400724093,1684.3336400724093,1.0000001078275862,0.0002023448560709641
1684.340584590262,1684.340584590262,1.0002205852816985,0.00020233092461937853
1684.347529108114,1684.347529108114,0.9999046100670501,0.00020229168737035606
1684.354473625966,1684.354473625966,1.0000254477902728,0.00020240171959903919
1684.3614181438188,1684.3614181438188,1.0000919819270582,0.00020239760395647944
1684.3683626616712,1684.3683626616712,1.0000565421166923,0.00020233984061109414
1684.3753071795704,1684.3753071795704,1.0001427402252758,0.00020238096789697643
1684.3822516974221,1684.3822516974221,0.9996224309474693,0.00020233467455474616
1684.3891962153211,1684.3891962153211,1.000169176920768,0.00020241571971434417
1684.3961407332208,1684.3961407332208,0.9998799824091373,0.0002024198708564456
1684.4030852511194,1684.4030852511194,0.9999701667994472,0.00020240616174459257
1684.410029769065,1684.410029769065,0.9999043177582667,0.0002024095225784713
1684.4169742869635,1684.4169742869635,1.0000991782868562,0.00020245046026887283
1684.4239188049094,1684.4239188049094,0.9998494558364989,0.0002024258659954003
1684.430863322855,1684.430863322855,1.000258047135117,0.000202414248564063
1684.437807840754,1684.437807840754,1.0002085971414305,0.00020245181187086037
1684.4447523586994,1684.4447523586994,0.9995285175803241,0.00020239134263849403
1684.4516968766911,1684.4516968766911,1.0002960869814579,0.00020245115269986523
1684.4586413946367,1684.4586413946367,0.9999123343265737,0.00020248610397900502
1684.4655859126287,1684.4655859126287,1.0000732598849478,0.00020255387661947166
1684.4725304306207,1684.4725304306207,1.000184274264244,0.00020252528212037427
1684.4794749486132,1684.4794749486132,1.0000239651526475,0.0002024915002670177
1684.4864194666516,1684.4864194666516,0.9994583392881367,0.00020251886051913154
1684.493363984644,1684.493363984644,1.0001060745791763,0.00020256513058502409
1684.5003085026824,1684.5003085026824,1.000050987945017,0.00020255495775681897
1684.507253020721,1684.507253020721,0.9999503971771981,0.0002025581673901527
1684.51419753876,1684.51419753876,0.9998794767819763,0.0002025779465317094
1684.5211420568448,1684.5211420568448,1.000456912658232,0.00020265639384898154
1684.5280865748834,1684.5280865748834,1.0001066704707844,0.00020261426887780427
1684.5350310929687,1684.5350310929687,0.999938966125079,0.00020264124261797496
1684.5419756110543,1684.5419756110543,0.9999363002781289,0.00020268010280588615
1684.5489201291857,1684.5489201291857,1.000176416485957,0.0002026914254123564
1684.555864647317,1684.555864647317,0.9996325081756996,0.00020267857071035736
1684.5628091654494,1684.5628091654494,1.0000917540440273,0.0002026879666181106
1684.5697536835341,1684.5697536835341,0.9997811114687203,0.0002027141929230124
1684.5766982016662,1684.5766982016662,1.0001033578379308,0.00020267320484859244
1684.5836427198908,1684.5836427198908,1.0000792354439259,0.0002027229819707928
1684.590587238023,1684.590587238023,0.9999297760782309,0.00020264348969011446
1684.5975317562013,1684.5975317562013,0.9998114104403628,0.00020273040472096115
1684.604476274426,1684.604476274426,1.0002177926306377,0.00020279735835312222
1684.6114207926046,1684.6114207926046,0.9998689444158231,0.0002027291928948578
1684.6183653108296,1684.6183653108296,1.00007218377517,0.0002027649371501098
1684.625309829101,1684.625309829101,1.0001524919337874,0.00020281929661415365
1684.6322543472324,1684.6322543472324,1.000236141881018,0.0002027917024162463
1684.6391988655505,1684.6391988655505,0.9998480009769868,0.0002027593081320452
1684.646143383869,1684.646143383869,1.0003115618258005,0.00020286200405319368
1684.653087902187,1684.653087902187,0.9996682549063088,0.0002027499266419338
1684.6600324203653,1684.6600324203653,1.000212367071414,0.00020281687601882625
1684.6669769385899,1684.6669769385899,1.0001286525720325,0.0002028463355525248
1684.6739214569084,1684.6739214569084,1.0001379112234077,0.00020293095863303757
1684.6808659752726,1684.6808659752726,0.9997703123101477,0.00020282617137499598
1684.6878104937769,1684.6878104937769,0.9996345416323837,0.00020280248585579494
1684.6947550120954,1684.6947550120954,1.0002655354883117,0.00020290536870865898
1684.701699530413,1684.701699530413,0.9996438304902663,0.00020280076323898086
1684.7086440487315,1684.7086440487315,1.0004538937462655,0.00020292118715709378
1684.7155885671887,1684.7155885671887,1.0001380955559547,0.00020289534706825605
1684.7225330855995,1684.7225330855995,0.9995463037988863,0.0002027985221286585
1684.7294776039648,1684.7294776039648,0.9998550969947466,0.00020293485629346432
1684.7364221224689,1684.7364221224689,1.0000738945669643,0.0002028477740013517
1684.7433666408801,1684.7433666408801,1.0002009784313375,0.00020286238372999545
1684.7503111593373,1684.7503111593373,1.0001730695084217,0.00020288567272320465
1684.757255677842,1684.757255677842,1.0000188837783281,0.0002028625606508508
1684.7642001963468,1684.7642001963468,1.0001816302072544,0.00020291843804330178
1684.7711447148042,1684.7711447148042,0.9999800543497281,0.00020285352881269078
1684.7780892333546,1684.7780892333546,0.9999578487390608,0.0002028916562048157
1684.7850337518598,1684.7850337518598,1.0002731967238758,0.0002028944227341251
1684.7919782704569,1684.7919782704569,1.0000136870617464,0.00020290010474918496
1684.7989227890077,1684.7989227890077,0.9999920673765764,0.00020289410490311843
1684.8058673075582,1684.8058673075582,0.9998298949958271,0.0002029163489786233
1684.8128118261561,1684.8128118261561,0.9998951079722946,0.0002029366186224217
1684.8197563447534,1684.8197563447534,0.9999987604398802,0.00020290871695560964
1684.8267008633975,1684.8267008633975,0.9997280881414967,0.00020293978873141554
1684.8336453820411,1684.8336453820411,0.9999535083848974,0.0002029578387511233
1684.8405899006389,1684.8405899006389,1.0004813185075423,0.00020299348545668266
1684.8475344193762,1684.8475344193762,0.9998727888733869,0.00020294854838577093
1684.8544789380198,1684.8544789380198,1.000002427472653,0.00020288678234362196
1684.8614234567103,1684.8614234567103,1.000204020076533,0.0002029458267864261
1684.8683679754479,1684.8683679754479,1.0002581644429314,0.00020296958483841934
1684.875312494185,1684.875312494185,1.0000415871300627,0.0002028575947813741
1684.882257012922,1684.882257012922,1.000048051196638,0.00020291422886281057
1684.889201531659,1684.889201531659,0.9997723669423589,0.00020278525231587878
1684.896146050443,1684.896146050443,1.000000763969788,0.00020291730404850666
1684.9030905692264,1684.9030905692264,0.9997113135094731,0.00020288583905450256
1684.9100350880567,1684.9100350880567,1.000220283731427,0.00020293517443970406
1684.9169796068404,1684.9169796068404,1.0003715727899076,0.00020299149470207438
1684.9239241257176,1684.9239241257176,1.0002085090441404,0.00020297516278465028
1684.9308686445008,1684.9308686445008,0.9999209806946082,0.00020287245927506944
1684.9378131634246,1684.9378131634246,1.000151560716986,0.00020291335972707643
1684.944757682301,1684.944757682301,1.0000488793654578,0.00020293650643436888
1684.9517022012249,1684.9517022012249,0.9997438874269025,0.00020287795246684312
1684.9586467201013,1684.9586467201013,1.000328490534476,0.00020290021104622403
1684.9655912390713,1684.9655912390713,0.9998332801190785,0.00020285680596013794
1684.9725357580414,1684.9725357580414,0.9997634371532275,0.0002028534007736383
1684.9794802769652,1684.9794802769652,0.9998748529630019,0.0002028665298501066
1684.9864247959813,1684.9864247959813,1.0000787432001776,0.000202892558769916
1684.993369314951,1684.993369314951,1.0000073341706486,0.00020288812062729117
1685.0003138340144,1685.0003138340144,1.0000249960665324,0.00020287678218260872
1685.0072583530314,1685.0072583530314,0.999970245608697,0.00020283661874420455
1685.014202872094,1685.014202872094,1.0003322469536076,0.00020284526203451044
1685.0211473911102,1685.0211473911102,1.0001580432326251,0.00020282476901626367
1685.0280919102202,1685.0280919102202,1.0000340137668275,0.0002028567207032521
1685.0350364293304,1685.0350364293304,0.9996829520809204,0.00020281866617706903
1685.0419809484397,1685.0419809484397,0.9998717582077934,0.00020284231481731692
1685.0489254675954,1685.0489254675954,1.0001459431970896,0.0002028635141368501
1685.0558699867524,1685.0558699867524,0.999976516022761,0.00020286300532535475
1685.0628145059084,1685.0628145059084,0.9999736432480649,0.000202829831321432
1685.0697590251111,1685.0697590251111,0.9999123930728064,0.00020288622866558782
1685.0767035443137,1685.0767035443137,0.9997458401187209,0.00020285991950570433
1685.0836480635633,1685.0836480635633,1.0002007855590542,0.00020288457378914434
1685.0905925827665,1685.0905925827665,0.9999758766355861,0.00020287116491322097
1685.0975371020152,1685.0975371020152,0.9999357038577251,0.00020284636124647408
1685.1044816213114,1685.1044816213114,1.0000074284938398,0.0002028780794317296
1685.111426140607,1685.111426140607,1.0005195010141763,0.00020295708771627622
1685.11837065995,1685.11837065995,1.0000327818387458,0.00020292151738596814
