time,time,flux,flux_err
1410.9099774617237,1410.9099774617237,1.000242379913184,0.00012065006891151838
1410.9176164790724,1410.9176164790724,1.0001254667815604,0.0001101323789943291
1410.9245610401408,1410.9245610401408,1.000126074917453,0.00011013189519116751
1410.9315056011621,1410.9315056011621,0.9999585275169866,0.00011012397903652975
1410.9384501620443,1410.9384501620443,0.9999154452624934,0.00011010535645079734
1410.9453947228792,1410.9453947228792,1.0002480002017582,0.00011013139453996612
1410.952339283668,1410.952339283668,0.9998961518532017,0.000110101958692188
1410.9592838442709,1410.9592838442709,0.9998683206929506,0.00011011116536985952
1410.9676173169375,1410.9676173169375,0.999952517703462,0.00011005118556462068
1410.9837286969337,1410.9837286969337,1.0003445628678433,0.00011011620132152556
1410.9912288220828,1410.9912288220828,0.9999765615662646,0.00011011078878638415
1411.000951206209,1411.000951206209,0.9993568488394604,0.0001100338674991943
1411.010673590196,1411.010673590196,1.0000517700049685,0.00011013180332779505
1411.017618150053,1411.017618150053,1.0001714669787098,0.00011011792389083492
1411.0245627098175,1411.0245627098175,1.00019426513742,0.00011010532039844716
1411.0315072694425,1411.0315072694425,0.9999272750421507,0.00011008923295045062
1411.0384518290198,1411.0384518290198,0.9998977529751703,0.00011008321872016785
1411.0453963885052,1411.0453963885052,0.9998152072426911,0.00011007106641773933
1411.0534520773156,1411.0534520773156,1.0001980422788361,0.00011008662689568965
1411.0606744190275,1411.0606744190275,1.000039718148644,0.0001100752616535361
1411.0676189781395,1411.0676189781395,1.0001419158919773,0.00011007026529764111
1411.0745635371118,1411.0745635371118,0.9999329731956561,0.00011007769158843914
1411.0815080960851,1411.0815080960851,0.9995384568249515,0.0001100551011333089
1411.0884526548712,1411.0884526548712,1.0001748632745815,0.00011007498878171254
1411.0953972136574,1411.0953972136574,0.9997158708001663,0.00011005971012710577
1411.1023417723043,1411.1023417723043,1.0000734600152958,0.00011009145260533511
1411.1092863308108,1411.1092863308108,0.9999325632978785,0.00011006124544681358
1411.1162308891792,1411.1162308891792,0.999923203041746,0.00011004694827355068
1411.123175447546,1411.123175447546,1.0001435884953702,0.00011009428262446456
1411.1301200057271,1411.1301200057271,1.000028047989063,0.00011002634232038088
1411.1370645638615,1411.1370645638615,0.9998416869084018,0.00011006699378141981
1411.144009121856,1411.144009121856,1.0001924791006325,0.0001100611763372982
1411.1509536797116,1411.1509536797116,1.000035679319061,0.00011007211756065575
1411.1578982375197,1411.1578982375197,1.0000930875811123,0.00011005482802290813
1411.1648427951422,1411.1648427951422,1.0000735433249257,0.00011007489383632748
1411.1717873527643,1411.1717873527643,0.9998012394386585,0.00011002060920003954
1411.1787319102464,1411.1787319102464,1.0000246262411767,0.00011007447624345201
1411.1856764675438,1411.1856764675438,1.0000725544569367,0.00011006370067019137
1411.1926210247927,1411.1926210247927,0.9998268792914555,0.0001100594371171478
1411.1995655819028,1411.1995655819028,0.9998365001102076,0.00011004827741131172
1411.2065101389665,1411.2065101389665,0.9998913673479114,0.00011004600782651699
1411.2134546958434,1411.2134546958434,1.0002242383653426,0.00011007376198860425
1411.2203992526745,1411.2203992526745,0.9999573853428311,0.00011005188701049642
1411.2273438093648,1411.2273438093648,1.0000705847216445,0.00011005254781302149
1411.2342883659628,1411.2342883659628,1.0000280645419657,0.00011005830979592434
1411.2412329223746,1411.2412329223746,1.0002345448042569,0.00011005655220998586
1411.2481774787855,1411.2481774787855,0.9999681437428608,0.00011008860799013368
1411.2551220350117,1411.2551220350117,0.9997512860367017,0.00011005056037025728
1411.2620665911431,1411.2620665911431,1.0000876956402986,0.00011007125321504084
1411.269011147136,1411.269011147136,1.000085607509042,0.00011006883058887711
1411.2759557030818,1411.2759557030818,0.9997371084751828,0.00011001794601894584
1411.2829002587944,1411.2829002587944,1.0000004768332134,0.00011004996072418956
1411.2898448144613,1411.2898448144613,1.000178755645647,0.00011004316545852202
1411.2967893701275,1411.2967893701275,0.9998763071439717,0.00011005218496786577
1411.303733925608,1411.303733925608,1.0003896868167481,0.00011005182701120894
1411.310678480902,1411.310678480902,0.9998246179322354,0.00011005823998313193
1411.3176230361491,1411.3176230361491,1.000033471870979,0.00011004042042421435
1411.3245675913038,1411.3245675913038,1.000025001350967,0.0001100548924956346
1411.3315121462715,1411.3315121462715,0.9999089034544886,0.00011002498441766665
1411.338456701193,1411.338456701193,1.0000464715592907,0.00011001312123936916
1411.3454012559746,1411.3454012559746,0.9996080830744001,0.00011000617201240214
1411.3523458105701,1411.3523458105701,1.0003759867989885,0.00011007219349563619
1411.3592903650724,1411.3592903650724,0.9997974396958732,0.00011002196173242334
1411.3662349195743,1411.3662349195743,1.0000554107942894,0.00011001936412515789
1411.3731794739376,1411.3731794739376,1.0003737041192224,0.00011003778890308926
1411.3801240281132,1411.3801240281132,0.9999679072527314,0.00011005134261498091
1411.387068582197,1411.387068582197,0.9999376625001902,0.00011003964436017947
1411.3940131362338,1411.3940131362338,0.9999179078810443,0.00011002288737213385
1411.400957690037,1411.400957690037,0.9998768474488526,0.00011001980221987712
1411.407902243795,1411.407902243795,0.9999259180461758,0.00011001090513094322
1411.414846797412,1411.414846797412,0.9997655616042282,0.00011000028329188213
1411.421791350937,1411.421791350937,1.0000595630993463,0.0001100049416576547
1411.428735904275,1411.428735904275,0.9998906730411072,0.00011003262806903353
1411.4356804576123,1411.4356804576123,1.000106324657703,0.00011002972208241461
1411.4426250107651,1411.4426250107651,1.0003507688539064,0.00011001132202268405
1411.4495695638234,1411.4495695638234,0.9996924206431702,0.00010997980141930158
1411.456514116789,1411.456514116789,1.000139939281571,0.00011004197331969242
1411.4634586696154,1411.4634586696154,0.9997920943223093,0.00011002767609570711
1411.4704032223012,1411.4704032223012,1.000089353300388,0.00011002009796566993
1411.477347774895,1411.477347774895,0.9999127825248373,0.00011001852681511287
1411.484292327348,1411.484292327348,0.9999944804848345,0.00011001365065294459
1411.491236879662,1411.491236879662,1.0000956331101312,0.00011005162554048311
1411.4981814320222,1411.4981814320222,0.9999186599065055,0.00011004832187448499
1411.5051259840095,1411.5051259840095,0.9999418019571789,0.00011002724941389143
1411.512070536091,1411.512070536091,0.9999541921443894,0.00011000863562130279
1411.519015087985,1411.519015087985,1.0000481006765867,0.00011000952058078684
1411.5259596397404,1411.5259596397404,0.9999972594294835,0.00011004193860866124
1411.5329041914488,1411.5329041914488,0.9999268896149788,0.0001100278189515266
1411.5398487429704,1411.5398487429704,1.0001282174224666,0.00011002589474030723
1411.5467932943998,1411.5467932943998,0.9998509353613706,0.00011000039198933328
1411.5537378457352,1411.5537378457352,0.9999421150275213,0.00011000365022163678
1411.5606823969786,1411.5606823969786,1.0000782767391443,0.00011002425607835229
1411.5676269479882,1411.5676269479882,0.9998295593847821,0.0001099842033715659
1411.5745714989982,1411.5745714989982,1.00002057377003,0.00011001591110710496
1411.5815160498219,1411.5815160498219,1.000164104578253,0.00011001906239299023
1411.588460600552,1411.588460600552,1.000109638161923,0.00011002572207681992
1411.5954051511899,1411.5954051511899,0.999991074174266,0.0001100352150609581
1411.6023497016868,1411.6023497016868,0.9999360383922753,0.00011001408076371597
1411.6092942520454,1411.6092942520454,1.0000892891763082,0.00011003330348351619
1411.6162388023563,1411.6162388023563,1.000061171220254,0.00011002735448441086
1411.6231833524812,1411.6231833524812,0.9999006021047971,0.00010999361613313117
1411.6301279025142,1411.6301279025142,0.9996459201423441,0.00011001137323287733
1411.6370724524988,1411.6370724524988,1.0001352592234856,0.00011003726562578251
1411.6440170022984,1411.6440170022984,1.0002631648323317,0.0001100226722315669
1411.6509615519576,1411.6509615519576,0.9999685829638348,0.00011000303686042846
1411.6579061015236,1411.6579061015236,0.999914710164477,0.00011000952060882204
1411.6648506509973,1411.6648506509973,1.0001270678611838,0.00011002395554548536
1411.671795200377,1411.671795200377,1.000022870413639,0.00011001445612228126
1411.6787397495712,1411.6787397495712,1.0000089977856172,0.0001099990999197472
1411.6856842987181,1411.6856842987181,0.9999754732906089,0.00010998984412857805
1411.6926288476793,1411.6926288476793,1.0001159590639541,0.00011000264451740114
1411.6995733965473,1411.6995733965473,1.000016304268059,0.0001100089740889973
1411.706517945368,1411.706517945368,0.9997948671377138,0.00010997656858488597
1411.7134624940502,1411.7134624940502,0.9999852214335896,0.00010999160438673182
1411.7204070424984,1411.7204070424984,1.0001031836777168,0.000110016174461551
1411.7273515909008,1411.7273515909008,0.9999513398596314,0.00010999933807769368
1411.7342961392562,1411.7342961392562,0.9997544951686919,0.00010998479591103202
1411.7412406874257,1411.7412406874257,0.9999850548928115,0.00010999402357980956
1411.7481852355486,1411.7481852355486,0.9999881069380194,0.00010999846345821718
1411.7551297834848,1411.7551297834848,1.0000473599748665,0.00011000689767567159
1411.7620743313287,1411.7620743313287,1.0000323442504637,0.00011001735993505081
1411.7690188790787,1411.7690188790787,1.0001121162575342,0.0001100167859382179
1411.7759634265963,1411.7759634265963,0.9997780324374264,0.00010998507805926649
1411.7829079741136,1411.7829079741136,1.0000744552955332,0.00011001677249575103
1411.789852521584,1411.789852521584,0.9997928296978824,0.00010998036168025122
1411.7967970688228,1411.7967970688228,0.9999788837546338,0.0001099918803686091
1411.8037416160134,1411.8037416160134,1.000074978134594,0.00011001191352685751
1411.8106861630654,1411.8106861630654,0.999929027630005,0.00010998582187421865
1411.8176307099777,1411.8176307099777,0.9998719018415672,0.00010999028365988166
1411.8245752567962,1411.8245752567962,1.0001386306906812,0.00011000765530115265
1411.831519803523,1411.831519803523,1.0000390837500623,0.00010999897071893771
1411.8384643500617,1411.8384643500617,0.9999815543698191,0.00010997515266788168
1411.8454088966018,1411.8454088966018,1.0000448253837901,0.00010999421535193154
1411.8523534430012,1411.8523534430012,0.9999121689418251,0.00010999427944756557
1411.8592979891214,1411.8592979891214,0.9999967350533018,0.00010999768760692364
1411.8662425353352,1411.8662425353352,1.000144444348916,0.00011000356265749378
1411.8731870812692,1411.8731870812692,0.9999720702497662,0.00010999532720311334
1411.8801316272038,1411.8801316272038,0.9999508112979665,0.00010997806891671013
1411.8870761730443,1411.8870761730443,1.0000223768408474,0.0001099970712295334
1411.8940207186997,1411.8940207186997,1.0000544599196703,0.00011000831533820147
1411.900965264261,1411.900965264261,0.999897683805235,0.00010999749440267815
1411.9079098097297,1411.9079098097297,0.9998615042272118,0.00010998409549254787
1411.9148543550587,1411.9148543550587,1.000230874489907,0.00010999474543338131
1411.9217989002473,1411.9217989002473,1.0000182802980018,0.00010999307161127738
1411.928743445437,1411.928743445437,1.000051062813489,0.00011000361684057436
1411.9356879903928,1411.9356879903928,0.9999490214648252,0.00010999361122953598
1411.9426325352565,1411.9426325352565,0.9998785242186209,0.00010997981453538875
1411.9495770800727,1411.9495770800727,0.9997400533251961,0.00010997454455728231
1411.9565216247493,1411.9565216247493,1.0000054828087765,0.00011000196305799824
1411.9634661692871,1411.9634661692871,1.0002071353966824,0.0001100018769580131
1411.9704107136838,1411.9704107136838,1.0001000140685377,0.00010998427655273233
1411.9773552580355,1411.9773552580355,1.0001975100848868,0.00010998212435332888
1411.9842998022928,1411.9842998022928,1.0001015120824337,0.0001099805455537324
1411.9912443463181,1411.9912443463181,1.0000264031583528,0.00010998851003436116
1411.9981888903433,1411.9981888903433,1.000073582106391,0.0001099654408174112
1412.0051334342284,1412.0051334342284,0.9999605636164812,0.0001099913310525556
1412.0120779780207,1412.0120779780207,1.0000491098357525,0.00010998482914646027
1412.019022521626,1412.019022521626,0.9999743611009585,0.00010998755423852651
1412.025967065186,1412.025967065186,0.9999604897067554,0.00010998194125285166
1412.032911608605,1412.032911608605,0.9999701881985411,0.0001099818064918308
1412.0398561519319,1412.0398561519319,1.0000680121572503,0.000109979442295935
1412.0468006951648,1412.0468006951648,1.000020900121739,0.00010994045953874017
1412.0537452382584,1412.0537452382584,0.9998320867270065,0.00010997285459079659
1412.060689781213,1412.060689781213,1.0000690516475104,0.00010999066679896608
1412.0676343240734,1412.0676343240734,0.9998464572696409,0.00010998432560133308
1412.074578866888,1412.074578866888,0.9999611077541362,0.00011000419742165997
1412.0815234095157,1412.0815234095157,1.0002042837224696,0.00010999809817817291
1412.0884679520505,1412.0884679520505,0.9999764069583822,0.00010996609594819951
1412.0954124944924,1412.0954124944924,0.9998784568372745,0.00010997519121449006
1412.1023570367938,1412.1023570367938,1.0002560051055491,0.00011000114953205677
1412.10930157905,1412.10930157905,1.0001295523159839,0.00010999020330687895
1412.1162461211652,1412.1162461211652,1.0001998464268478,0.0001099933923881585
1412.1231906631415,1412.1231906631415,0.9997724273737891,0.00010997737347741946
1412.1301352049318,1412.1301352049318,0.9999479903169244,0.00010998733435474027
1412.137079746861,1412.137079746861,0.9997347239426742,0.00010996371147761383
1412.144024288418,1412.144024288418,1.0003780921348033,0.00010996650842347282
1412.1509688299745,1412.1509688299745,1.0000436689958239,0.00010996215708618479
1412.1579133713924,1412.1579133713924,1.0001114974571472,0.00010998985899053645
1412.1648579127627,1412.1648579127627,0.9999840576634738,0.00010995801946601873
1412.171802453994,1412.171802453994,1.0000631661503263,0.00010997353708117906
1412.1787469951314,1412.1787469951314,1.0000077436528305,0.00010995053535613672
1412.1856915360834,1412.1856915360834,1.0001728162184094,0.00010999033674026239
1412.1926360769887,1412.1926360769887,1.0000243246335752,0.00010997155850147576
1412.1995806177536,1412.1995806177536,0.9998668357266608,0.00010995341585787408
1412.2065251584731,1412.2065251584731,1.0000283056606925,0.00010997125474454293
1412.2134696990047,1412.2134696990047,0.9999410043858262,0.00010997724443956346
1412.2204142395378,1412.2204142395378,1.0001570243981688,0.0001099852028339869
1412.2273587798372,1412.2273587798372,0.9998711765490436,0.00010997451602861373
1412.2343033200439,1412.2343033200439,1.000016728472367,0.00010998664789075142
1412.2412478602039,1412.2412478602039,0.9999532668740345,0.00010998009329092971
1412.2481924002236,1412.2481924002236,1.0002060568853968,0.00010999680553196745
1412.2559702849221,1412.2559702849221,1.0001407590425875,0.00010997957498934968
1412.264581514251,1412.264581514251,0.9997108006611356,0.00010988213417023615
1412.274581651314,1412.274581651314,0.9998959652045747,0.00010992158802232161
1412.2859706960649,1412.2859706960649,0.9999011832352235,0.00010991858896728884
1412.2940263617315,1412.2940263617315,0.9999116454232222,0.0001099283759063918
1412.3009709008672,1412.3009709008672,0.9997537151174749,0.00010996445990107675
1412.307915439956,1412.307915439956,1.0002998347663044,0.00011000125475981197
1412.3148599789984,1412.3148599789984,1.000078139462807,0.00010996362415150974
1412.3218045178546,1412.3218045178546,1.0000996967033398,0.00010998611236960722
1412.328749056664,1412.328749056664,0.9998238972283027,0.00010991658052419723
1412.3356935952877,1412.3356935952877,1.0001900818443779,0.0001100017927089041
1412.342638133911,1412.342638133911,0.9998615385258081,0.00010995050922895137
1412.3495826723017,1412.3495826723017,0.99981670251075,0.00010991023536992624
1412.3565272106916,1412.3565272106916,0.999604858824585,0.00010991995823593633
1412.3634717488962,1412.3634717488962,1.0002866881804455,0.00010993868561887388
1412.3704162871004,1412.3704162871004,1.0002178674268243,0.00010996135526708019
1412.3773608250717,1412.3773608250717,1.0003959056397802,0.00010999788034962235
1412.3843053629967,1412.3843053629967,0.9998979340976526,0.00010995737259038315
1412.391249900828,1412.391249900828,0.9999266987901112,0.0001099650961968925
1412.3981944385673,1412.3981944385673,0.999900012514669,0.00010995659137607928
1412.4051389761657,1412.4051389761657,0.9999774102306687,0.00010994110008714218
1412.412083513625,1412.412083513625,1.000089542339682,0.00010992775073363451
1412.4190280509908,1412.4190280509908,0.9997170179755586,0.00010988773648477226
1412.42597258831,1412.42597258831,0.9999475749699182,0.00010997216237175022
1412.432917125537,1412.432917125537,1.0002542698907437,0.00010998212793763612
1412.4398616626231,1412.4398616626231,1.0002900167676647,0.00010998361651924033
1412.4468061995708,1412.4468061995708,0.9998516983848015,0.00010992648112039178
1412.453750736424,1412.453750736424,1.0001668189786348,0.00010997106136897817
1412.460695273185,1412.460695273185,1.0000852339082988,0.00010991673161986535
1412.4676398098522,1412.4676398098522,0.9999929939161676,0.00010993660521302153
1412.4745843463802,1412.4745843463802,0.9999322253179805,0.0001099201968837825
1412.4815288828147,1412.4815288828147,0.9995293522026445,0.0001098493535271862
1412.4884734192026,1412.4884734192026,0.9999915763142668,0.00010996755351945418
1412.4954179554054,1412.4954179554054,1.0000674385243777,0.00010995935593317594
1412.5023624915598,1412.5023624915598,1.0001653338588874,0.00010993561171128308
1412.5093070276228,1412.5093070276228,0.9999775526699584,0.00010995176917042353
1412.5162515635448,1412.5162515635448,1.0003005743394109,0.00010995722016071449
1412.5231960993278,1412.5231960993278,1.0002403769796344,0.00010998016662683661
1412.5301406350175,1412.5301406350175,0.9999773190790145,0.00010995129210205441
1412.5370851706136,1412.5370851706136,1.000320398016402,0.00010996950704669476
1412.5440297061637,1412.5440297061637,1.0000330245089613,0.00010994024276605773
1412.5509742415736,1412.5509742415736,0.999687114167849,0.00010993621283163254
1412.5579187768913,1412.5579187768913,1.0000042412263066,0.0001099563664046866
1412.5648633120218,1412.5648633120218,0.9999084989419122,0.00010993578820056007
1412.5718078471532,1412.5718078471532,1.0000615497401442,0.00010994618419169652
1412.5787523821439,1412.5787523821439,1.0000140131822073,0.00010994085757265539
1412.585696916949,1412.585696916949,1.000073656571135,0.00010995560634486868
1412.5926414518935,1412.5926414518935,0.9999210436195753,0.00010995319450473535
1412.5995859864656,1412.5995859864656,1.0000862592469861,0.00010995584115943158
1412.6065305210846,1412.6065305210846,0.9998893664999915,0.00010992995959685387
1412.6134750555161,1412.6134750555161,0.9999616151653669,0.00010993864038051087
1412.6204195899027,1412.6204195899027,1.000021587406145,0.00010993215676165858
1412.6273641241482,1412.6273641241482,1.0000251961192543,0.00010989237613072665
1412.6343086583481,1412.6343086583481,1.000081321407654,0.00010994301761106047
1412.6412531923613,1412.6412531923613,1.0001167522083747,0.00010995196306951501
1412.648197726328,1412.648197726328,0.9999108885486617,0.00010994036795892778
1412.6551422602017,1412.6551422602017,0.999798332350131,0.0001099340849891591
1412.6620867939353,1412.6620867939353,1.0000889934777644,0.00010995116136557688
1412.6690313276697,1412.6690313276697,1.0002681038203494,0.00010995747657832897
1412.6759758612166,1412.6759758612166,0.999900331581858,0.00010992590125678432
1412.6829203945786,1412.6829203945786,0.999555747939987,0.00010987068178104194
