time,time,flux,flux_err
1325.304464711309,1325.304464711309,1.000036387016,6.489390804732164e-05
1325.312798026254,1325.312798026254,1.000035537836467,6.489050360321285e-05
1325.3211313409672,1325.3211313409672,0.9999899956247464,6.488736130155801e-05
1325.3287702124649,1325.3287702124649,0.999878232536522,5.922943875658869e-05
1325.3357146411668,1325.3357146411668,0.9999799484261782,5.9233298666191e-05
1325.3426590694962,1325.3426590694962,0.999968731771799,5.923392113512967e-05
1325.3496034979191,1325.3496034979191,0.9999404568610581,5.92330483830394e-05
1325.3565479258762,1325.3565479258762,1.000021039976745,5.92324904533953e-05
1325.3634923538332,1325.3634923538332,1.0000600188547546,5.9237379338601596e-05
1325.3704367817904,1325.3704367817904,1.000085754164251,5.9241167389339685e-05
1325.3773812097472,1325.3773812097472,1.0000626881021162,5.9237876077166326e-05
1325.3843256372388,1325.3843256372388,1.0000438663117175,5.924121279807537e-05
1325.3912700648232,1325.3912700648232,0.9999871498363726,5.924361125027972e-05
1325.3982144921283,1325.3982144921283,0.9999091296112443,5.9242845038142786e-05
1325.4051589194332,1325.4051589194332,0.9999487891974772,5.924525693365891e-05
1325.4121033465524,1325.4121033465524,1.0001207572625073,5.92493262429906e-05
1325.4190477735779,1325.4190477735779,0.9999546526333244,5.9248999955014935e-05
1325.4259922004173,1325.4259922004173,0.9999324073301953,5.9250384241697633e-05
1325.4329366272566,1325.4329366272566,0.9999716513112322,5.925214228741201e-05
1325.43988105391,1325.43988105391,0.999977671505939,5.9254653523155146e-05
1325.4468254804701,1325.4468254804701,1.0000498548851258,5.92552983707151e-05
1325.4537699068437,1325.4537699068437,1.00000930998904,5.925711743077457e-05
1325.4607143333105,1325.4607143333105,0.9999546282941859,5.925719710079108e-05
1325.4676587594981,1325.4676587594981,1.0001330621635143,5.92624211454005e-05
1325.4746031855925,1325.4746031855925,0.9998618360155309,5.9255062727728815e-05
1325.481547611687,1325.481547611687,1.000091111352874,5.926297043476898e-05
1325.4884920375018,1325.4884920375018,0.999981451097318,5.9261775538251004e-05
1325.4954364635034,1325.4954364635034,0.9999433992571539,5.92632735569865e-05
1325.5023808892252,1325.5023808892252,0.9999666214272965,5.9264744244653956e-05
1325.5093253148539,1325.5093253148539,1.0000734563967622,5.927078487002051e-05
1325.5162697403896,1325.5162697403896,1.0000799534130103,5.927208108520419e-05
1325.5232141656456,1325.5232141656456,1.000025629715155,5.9271324659467755e-05
1325.5301585910881,1325.5301585910881,0.999951685683625,5.927010926124825e-05
1325.5371030163442,1325.5371030163442,0.9999058861720738,5.927104747470793e-05
1325.544047441507,1325.544047441507,0.9999016424705574,5.9273178561422416e-05
1325.5509918665775,1325.5509918665775,1.00000796285229,5.9277704402940825e-05
1325.5579362916471,1325.5579362916471,1.000049470834161,5.927882032306939e-05
1325.564880716438,1325.564880716438,1.0001437628442411,5.928159751380221e-05
1325.5718251413214,1325.5718251413214,1.0000524154561377,5.9280704848301587e-05
1325.578769566112,1325.578769566112,0.9999421010430283,5.928085240731322e-05
1325.5857139907166,1325.5857139907166,1.000031137002824,5.928580015736963e-05
1325.5926584153206,1325.5926584153206,0.9998690049766654,5.9280959811327505e-05
1325.5996028397385,1325.5996028397385,0.9999484081611179,5.9283627132466076e-05
1325.60654726425,1325.60654726425,1.0000383365019883,5.928622424056623e-05
1325.6134916885744,1325.6134916885744,1.0000323646713132,5.9288009631847016e-05
1325.6204361128064,1325.6204361128064,0.9999812126209282,5.928746216418909e-05
1325.6273805370379,1325.6273805370379,1.0000821109531404,5.9289782021613266e-05
1325.6343249610836,1325.6343249610836,1.000004625254453,5.9286938280110245e-05
1325.6412693852221,1325.6412693852221,1.000083694764615,5.928974688730125e-05
1325.6482138091744,1325.6482138091744,0.9999765163831608,5.9287244836025724e-05
1325.655158233127,1325.655158233127,0.9999839907722864,5.9285698510277084e-05
1325.662102656986,1325.662102656986,1.0000043511024919,5.92881169143781e-05
1325.6690470806593,1325.6690470806593,0.9999695663967552,5.92864995578513e-05
1325.6759915043317,1325.6759915043317,1.0000317927332465,5.9289383037411794e-05
1325.682935928098,1325.682935928098,1.0000188227738733,5.928723322470507e-05
1325.6898803515846,1325.6898803515846,1.000049387455193,5.928773912311549e-05
1325.6968247751645,1325.6968247751645,0.9999110714867723,5.928476893001361e-05
1325.7037691984654,1325.7037691984654,1.0000849222503434,5.928899862591799e-05
1325.7107136217658,1325.7107136217658,0.9999293110178812,5.928694709355447e-05
1325.7176580450657,1325.7176580450657,1.0000133389950254,5.928954709553448e-05
1325.7246024683664,1325.7246024683664,0.9999131232704659,5.9286174128242364e-05
1325.7315468916668,1325.7315468916668,1.0000854106497,5.929236075290478e-05
1325.738491314874,1325.738491314874,0.9999970438774118,5.929020749208254e-05
1325.7454357378022,1325.7454357378022,1.0000631908753133,5.929288365045622e-05
1325.7523801609157,1325.7523801609157,0.9998899142361592,5.9288068722111666e-05
1325.7593245838439,1325.7593245838439,1.0000261536922488,5.929277242519278e-05
1325.7662690067718,1325.7662690067718,1.0001178219093194,5.9297255756069357e-05
1325.7732134296064,1325.7732134296064,0.9998825461367519,5.929260270557506e-05
1325.780157852348,1325.780157852348,1.0000394097347927,5.929850536939347e-05
1325.7871022750896,1325.7871022750896,0.9999716164942256,5.9297361644116344e-05
1325.7940466978314,1325.7940466978314,1.0000586629610877,5.930184192499796e-05
1325.800991120387,1325.800991120387,1.0000470403353456,5.930091205032003e-05
1325.8079355430355,1325.8079355430355,0.9999558447418071,5.929934178073932e-05
1325.8148799654978,1325.8148799654978,1.0000103953601027,5.9302948575125975e-05
1325.8218243879596,1325.8218243879596,0.999928498685523,5.930028983092647e-05
1325.828768810329,1325.828768810329,0.9999484655991143,5.930104399126287e-05
1325.835713232698,1325.835713232698,0.9999657391482348,5.930217503149072e-05
1325.8426576550671,1325.8426576550671,1.000024664240754,5.9304269611574555e-05
1325.8496020773432,1325.8496020773432,1.000089942980958,5.930662756321662e-05
1325.8565464995256,1325.8565464995256,1.0000447032242399,5.930381418930434e-05
1325.863490921709,1325.863490921709,0.9999640828158542,5.930057902546366e-05
1325.8704353437984,1325.8704353437984,1.0000696761419245,5.930320362256294e-05
1325.8773797658882,1325.8773797658882,0.999971175996035,5.9300027752917983e-05
1325.8843241878849,1325.8843241878849,0.9999083309636532,5.929688480464035e-05
1325.8912686098815,1325.8912686098815,0.9999998094758078,5.929743855914515e-05
1325.8982130317847,1325.8982130317847,0.9999982118365105,5.9296503013197145e-05
1325.9051574536884,1325.9051574536884,0.9999647501808928,5.929706016954878e-05
1325.9121018754984,1325.9121018754984,1.000094317251462,5.929914433073116e-05
1325.9190462973088,1325.9190462973088,0.9999929787706788,5.9296147965802916e-05
1325.925990719119,1325.925990719119,1.0000642766140804,5.9296466545788394e-05
1325.9329351407434,1325.9329351407434,0.9998976842332175,5.929128085492361e-05
1325.9398795624602,1325.9398795624602,1.0000529645338776,5.929656385861669e-05
1325.9468239839914,1325.9468239839914,0.9999971034231917,5.9294116215899526e-05
1325.9537684057086,1325.9537684057086,1.0000188585110608,5.929426635924905e-05
1325.9607128271466,1325.9607128271466,0.9999092241101056,5.9290957592173494e-05
1325.9684905792874,1325.9684905792874,0.9999864223396544,5.9294388680748535e-05
1325.9759905544026,1325.9759905544026,1.0000652525840787,5.929548824162883e-05
1325.9829349758406,1325.9829349758406,0.9999937656026491,5.929174465828882e-05
1325.9898793971847,1325.9898793971847,0.9998901769026111,5.928966344941162e-05
1325.9968238184363,1325.9968238184363,0.9999667303092095,5.929094373002457e-05
1326.0037682398745,1326.0037682398745,1.000146642698136,5.929576984044148e-05
1326.0107126609394,1326.0107126609394,1.0001267359123809,5.929549192777326e-05
1326.0176570822844,1326.0176570822844,0.9998883192077347,5.9290521040182106e-05
1326.0246015032565,1326.0246015032565,0.9999974011499928,5.92964089998603e-05
1326.031545924508,1326.031545924508,1.0000054595060317,5.929881529589152e-05
1326.0384903456663,1326.0384903456663,0.9999743819635972,5.929610161670562e-05
1326.0454347666382,1326.0454347666382,0.9999783516742407,5.929856430141125e-05
1326.0523791876108,1326.0523791876108,1.0001040935461585,5.930008211801298e-05
1326.0593236085826,1326.0593236085826,1.0001492096034474,5.930240681442542e-05
1326.0662680295547,1326.0662680295547,0.9999724141639108,5.92979636754811e-05
1326.073212450527,1326.073212450527,0.9999206280415235,5.92959019619129e-05
1326.0801568713123,1326.0801568713123,0.9999002551706564,5.929768066136479e-05
1326.0871012920059,1326.0871012920059,0.9999563092555634,5.929829651108115e-05
1326.0940457129775,1326.0940457129775,1.0000537036222839,5.930049082936669e-05
1326.1009901335774,1326.1009901335774,1.0000532260141375,5.930135225875424e-05
1326.1079345544563,1326.1079345544563,0.9999749312203173,5.929752354487314e-05
1326.1148789749627,1326.1148789749627,1.0000585652322873,5.930160703208233e-05
1326.1218233956556,1326.1218233956556,0.9999327929442767,5.929703545088192e-05
1326.1287678162548,1326.1287678162548,0.999985540638433,5.929583804086779e-05
1326.135712236855,1326.135712236855,1.000062151040152,5.929882057562431e-05
1326.142656657361,1326.142656657361,1.0000242811884508,5.9297457495255246e-05
1326.1496010778676,1326.1496010778676,1.00014902491941,5.930379553671767e-05
1326.1565454982808,1326.1565454982808,0.9999815951258068,5.929768776871326e-05
1326.163489918787,1326.163489918787,0.9998702130711677,5.929490796614669e-05
1326.1704343392007,1326.1704343392007,1.000002252548491,5.9299805933920386e-05
1326.1773787595207,1326.1773787595207,0.9999525457264034,5.929817261802606e-05
1326.1843231798412,1326.1843231798412,0.9999556093221542,5.9296401327953335e-05
1326.1912676001612,1326.1912676001612,1.000019465793248,5.9300906247870304e-05
1326.198212020388,1326.198212020388,0.9999932409114531,5.9298435904653045e-05
1326.2051564406156,1326.2051564406156,1.0000422099577126,5.930200938735046e-05
1326.2121008608424,1326.2121008608424,1.0000406720210138,5.930121751087962e-05
1326.2190452809766,1326.2190452809766,1.0000095838806549,5.929995735916021e-05
1326.2259897011104,1326.2259897011104,1.0000432576835319,5.9297852970230205e-05
1326.2329341212442,1326.2329341212442,0.9999259054323983,5.929674618375332e-05
1326.239878541285,1326.239878541285,0.9999819169325281,5.9297089821111776e-05
1326.2468229613255,1326.2468229613255,0.9999623323048974,5.929638294839468e-05
1326.2537673812737,1326.2537673812737,1.0000039335836641,5.929755564172371e-05
1326.260711801314,1326.260711801314,1.0000519957688438,5.930068508696112e-05
1326.267656221169,1326.267656221169,1.0000178802546984,5.929832129358486e-05
1326.2746006411166,1326.2746006411166,1.0000590889624534,5.93017409852341e-05
1326.281545060971,1326.281545060971,0.9999512694473436,5.9297799124657436e-05
1326.2884894807326,1326.2884894807326,1.0000096437293853,5.929887748691439e-05
1326.2954339005869,1326.2954339005869,0.9999398015022429,5.929559467872797e-05
1326.3023783203485,1326.3023783203485,0.9999955896918449,5.9300260195740474e-05
1326.3093227401096,1326.3093227401096,1.0000157350917327,5.929934842395354e-05
1326.316267159778,1326.316267159778,1.0000100492806219,5.9301132417782516e-05
1326.3232115794465,1326.3232115794465,1.0000630134151585,5.930115592598315e-05
1326.3301559991144,1326.3301559991144,0.9999679685130575,5.930127097965711e-05
1326.3371004186902,1326.3371004186902,0.9999385239710472,5.929884950822693e-05
1326.344044838265,1326.344044838265,1.0000214814723514,5.930043074225704e-05
1326.351544811425,1326.351544811425,1.0000566717003676,5.930271469370646e-05
1326.360711445152,1326.360711445152,0.9999749779871216,5.930169616881295e-05
1326.3676558646341,1326.3676558646341,0.9999317421923515,5.929856597160292e-05
1326.3746002841162,1326.3746002841162,1.0000731686358617,5.930456431248178e-05
1326.381544703505,1326.381544703505,0.9998760501404524,5.9298489741531604e-05
1326.388489122894,1326.388489122894,1.0000628211597664,5.930547848693857e-05
1326.3954335422827,1326.3954335422827,0.9999171406680732,5.93010626738514e-05
1326.4023779615786,1326.4023779615786,1.0000433071168098,5.9306297110798235e-05
1326.4093223807808,1326.4093223807808,1.0000738002847789,5.93068093192262e-05
1326.4162668001704,1326.4162668001704,1.0000668987394934,5.9306335426614474e-05
1326.4232112193727,1326.4232112193727,1.0000946972394118,5.9307218309875026e-05
1326.4301556384821,1326.4301556384821,0.9999210730075552,5.9303712363801144e-05
1326.4371000576846,1326.4371000576846,0.9999670746441428,5.9304274822589206e-05
1326.444044476794,1326.444044476794,0.9999169473030427,5.930403095676446e-05
1326.450988895997,1326.450988895997,0.9999434830267745,5.930514686178359e-05
1326.4579333150132,1326.4579333150132,0.9999162559816362,5.9303766565890345e-05
1326.4648777341226,1326.4648777341226,0.9999997617314179,5.930741054291106e-05
1326.4718221530457,1326.4718221530457,1.000033867282083,5.930759962702182e-05
1326.4787665719691,1326.4787665719691,1.00000947717125,5.930768966169355e-05
1326.4857109910788,1326.4857109910788,1.0000184772053315,5.930767771975195e-05
1326.4926554099086,1326.4926554099086,0.9999409682941625,5.9306254839885743e-05
1326.499599828832,1326.499599828832,0.9999892357253831,5.930760089538024e-05
1326.5065442477548,1326.5065442477548,1.0001302450468725,5.931197017310982e-05
1326.513488666585,1326.513488666585,1.0000450963830354,5.9309197444117456e-05
1326.520433085229,1326.520433085229,1.0000764481729818,5.931170004192365e-05
1326.5273775041524,1326.5273775041524,0.9999897839653716,5.9310522883571605e-05
1326.5343219229824,1326.5343219229824,0.9998865273862207,5.930939706643244e-05
1326.541266341626,1326.541266341626,1.0000522004433616,5.931357616516302e-05
1326.54821076027,1326.54821076027,0.9999860887036929,5.93096261283259e-05
1326.5551551789138,1326.5551551789138,0.999945749802988,5.9309221366015556e-05
1326.5620995975576,1326.5620995975576,0.9999678983617276,5.9311489523062014e-05
1326.5690440162011,1326.5690440162011,0.9999840027611784,5.931034406093961e-05
1326.5759884348452,1326.5759884348452,1.000020121336693,5.9313554823296524e-05
1326.58293285321,1326.58293285321,1.000130360089266,5.931466807442185e-05
1326.589877271667,1326.589877271667,1.000090354690634,5.93146268570385e-05
1326.5968216903113,1326.5968216903113,0.9999459307773148,5.931089649963779e-05
1326.6037661085825,1326.6037661085825,0.9999537146259021,5.931061439092763e-05
1326.6107105271333,1326.6107105271333,0.9999699621935892,5.930966472430677e-05
1326.6176549454044,1326.6176549454044,1.0000576201685585,5.931325903153898e-05
1326.6245993638618,1326.6245993638618,0.9998568083138311,5.9307750687898304e-05
1326.6315437821333,1326.6315437821333,0.999950365717783,5.930775991973442e-05
1326.6384882004045,1326.6384882004045,1.000006270102886,5.9310989405593885e-05
1326.6454326186758,1326.6454326186758,1.000057240393073,5.9313651284528444e-05
1326.6523770369472,1326.6523770369472,1.0002188305925348,5.931914719602456e-05
1326.6593214551253,1326.6593214551253,0.999971546444702,5.9310437924938974e-05
1326.6662658733035,1326.6662658733035,1.0001319324002955,5.931611242776916e-05
1326.6732102914816,1326.6732102914816,0.9999594353441836,5.931053198430105e-05
1326.680154709567,1326.680154709567,0.9999555126132403,5.9309258847400515e-05
1326.687099127652,1326.687099127652,0.999915580485235,5.930643414704564e-05
1326.6951546525336,1326.6951546525336,0.9998854820600289,5.9305453427367724e-05
1326.7023768473641,1326.7023768473641,1.0000285491837533,5.931017339413292e-05
1326.709321265263,1326.709321265263,1.000038050513791,5.93094834100876e-05
1326.7168212367465,1326.7168212367465,0.9999900701926769,5.9305204681340205e-05
1326.7245989847893,1326.7245989847893,0.999955655945141,5.930791645435748e-05
1326.7315434026882,1326.7315434026882,1.000062355436044,5.930969723890211e-05
1326.738487820587,1326.738487820587,1.0000686729182438,5.931060975971985e-05
1326.7454322383928,1326.7454322383928,1.0000764798056856,5.9304453627771976e-05
1326.7523766561048,1326.7523766561048,1.0000519119460443,5.93070821684382e-05
1326.7593210739105,1326.7593210739105,0.999856030351765,5.93027211201356e-05
1326.7662654916232,1326.7662654916232,0.9999240337596345,5.9301243064397453e-05
1326.7732099093355,1326.7732099093355,0.9999175963862121,5.9302825411304114e-05
1326.7801543270482,1326.7801543270482,1.000135639553891,5.9306716248149404e-05
1326.7870987447607,1326.7870987447607,0.9999848734617499,5.930499194027009e-05
1326.794043162287,1326.794043162287,0.9999739900439764,5.930263434729782e-05
1326.8009875799062,1326.8009875799062,1.0000879491963468,5.930938730995558e-05
1326.8079319974327,1326.8079319974327,1.0001231624673772,5.9311390811929614e-05
1326.8148764149587,1326.8148764149587,0.9999012987081667,5.9303685265891616e-05
1326.8218208325777,1326.8218208325777,0.9999547984667527,5.93044897325603e-05
1326.828765249918,1326.828765249918,1.0000014424341281,5.930694017398701e-05
1326.835709667351,1326.835709667351,0.9999380258229259,5.930432541154297e-05
1326.8426540847845,1326.8426540847845,0.9999569912810593,5.930636122666983e-05
1326.8495985022175,1326.8495985022175,0.9999993920156152,5.9307089423247175e-05
1326.8565429195573,1326.8565429195573,1.000083743080134,5.930913099247205e-05
1326.8634873368042,1326.8634873368042,1.000032734328085,5.930639697654653e-05
1326.8704317541444,1326.8704317541444,1.0000265953031562,5.9307730046815664e-05
1326.8773761713915,1326.8773761713915,1.0000386349437687,5.9307548346872154e-05
1326.8843205886376,1326.8843205886376,0.9999255553432548,5.930133488388341e-05
1326.8912650057919,1326.8912650057919,0.9999760037286197,5.9302149294824505e-05
1326.8982094229452,1326.8982094229452,0.9999857905010631,5.930383014788592e-05
1326.905153840099,1326.905153840099,0.999933255119444,5.9298971754210574e-05
1326.9120982571596,1326.9120982571596,1.0000259637618367,5.9302025016078594e-05
1326.9190426742202,1326.9190426742202,1.000091743531434,5.930217473803207e-05
1326.9259870913738,1326.9259870913738,1.000024569080419,5.9299762393310554e-05
1326.9329315082482,1326.9329315082482,0.9999588372626718,5.929554101279542e-05
1326.939875925309,1326.939875925309,0.999994993248808,5.929601474706877e-05
1326.9468203421827,1326.9468203421827,0.9999646188542208,5.929476798179162e-05
1326.9537647590573,1326.9537647590573,1.0000108478509566,5.929560772130432e-05
1326.9607091759317,1326.9607091759317,1.0000391125491275,5.9296328965597157e-05
1326.9676535928993,1326.9676535928993,1.0000660894971014,5.929327375100018e-05
1326.9745980096807,1326.9745980096807,1.0000148891344018,5.929340973625866e-05
1326.9815424264611,1326.9815424264611,0.9999921202480936,5.929203212023722e-05
1326.988486843243,1326.988486843243,0.9999969723129543,5.928859764411453e-05
1326.9954312599307,1326.9954312599307,0.9999561793590133,5.928655555471903e-05
1327.0023756767123,1327.0023756767123,1.00008470964788,5.929017509544288e-05
1327.0093200933068,1327.0093200933068,0.9999211440990596,5.928768817067999e-05
1327.016264509902,1327.016264509902,1.0000116584801388,5.928759474624443e-05
1327.0232089265899,1327.0232089265899,0.9999794723345261,5.928568160170789e-05
1327.0301533430916,1327.0301533430916,1.0000825753148468,5.9289818213673885e-05
1327.0370977596867,1327.0370977596867,0.9999735126249577,5.9287768112706805e-05
1327.0440421760018,1327.0440421760018,1.0000038026824805,5.9286251123714117e-05
1327.0509865927834,1327.0509865927834,0.9999605788356061,5.9287724883450326e-05
1327.0579310090986,1327.0579310090986,0.9999840383301949,5.928750297946781e-05
1327.0657087553725,1327.0657087553725,0.9999697812491977,5.928656552170747e-05
1327.073208724993,1327.073208724993,1.0000865675965414,5.929205809351171e-05
