time,time,flux,flux_err
1354.1154657048844,1354.1154657048844,0.9995253443369866,0.0010894301660639794
1354.1235677113552,1354.1235677113552,0.9989528535384483,0.0009947044574878884
1354.1305122883466,1354.1305122883466,0.999421308575213,0.000994316819926579
1354.1374568654314,1354.1374568654314,1.0014302626058647,0.0009955623524684266
1354.1444014425629,1354.1444014425629,0.9993239643554409,0.0009947753833801543
1354.151346019764,1354.151346019764,1.0009429664040512,0.000995417526151399
1354.1582905969651,1354.1582905969651,0.9989700699114031,0.000994864206867024
1354.16523517426,1354.16523517426,1.0013448862399257,0.0009957777024333398
1354.1721797515775,1354.1721797515775,0.9989736144501059,0.0009950169104318489
1354.1791243289651,1354.1791243289651,0.9997586069821688,0.0009951819640023568
1354.1860689063756,1354.1860689063756,1.0010674144969212,0.00099569824272285
1354.19301348388,1354.19301348388,1.000405147292701,0.0009954983480045738
1354.1999580613601,1354.1999580613601,1.000215631578492,0.0009956560886959505
1354.206902638934,1354.206902638934,0.998656589859654,0.0009952543801495036
1354.2138472165077,1354.2138472165077,1.0002998241303482,0.0009957553526136235
1354.2207917941514,1354.2207917941514,0.9996272126396898,0.0009952753225654042
1354.2277363718415,1354.2277363718415,0.9996154584885476,0.0009951297250664882
1354.2346809495552,1354.2346809495552,1.0001082488957238,0.0009950061012240286
1354.2416255273388,1354.2416255273388,1.0000933444548568,0.0009948822729497616
1354.2485701051219,1354.2485701051219,1.000204282685064,0.0009951288735535197
1354.2555146829516,1354.2555146829516,0.9991637304907754,0.0009949779976112273
1354.262459260828,1354.262459260828,1.0005763228870086,0.000995280860038172
1354.2694038387513,1354.2694038387513,1.0010937114132026,0.0009952492931942813
1354.2763484166742,1354.2763484166742,1.0003115407345906,0.0009949824072130488
1354.2832929946667,1354.2832929946667,1.0005334839581406,0.000994839048193566
1354.2902375726596,1354.2902375726596,0.9997687789456122,0.0009948718953436031
1354.2971821506756,1354.2971821506756,0.9995023930184843,0.0009945663722759062
1354.304126728762,1354.304126728762,1.0002312730161287,0.0009945613866357643
1354.3110713068481,1354.3110713068481,0.998520666411949,0.0009941467779464215
1354.3180158849805,1354.3180158849805,1.0003407461121703,0.0009947727775291974
1354.3249604631364,1354.3249604631364,0.9993698250929495,0.0009947238528857554
1354.3319050413154,1354.3319050413154,1.000267424833299,0.000994595505488443
1354.3388496195178,1354.3388496195178,1.0008976737814688,0.000994825121419384
1354.3457941977435,1354.3457941977435,1.001555348235393,0.000994962750364806
1354.3527387760155,1354.3527387760155,0.998901763580827,0.0009939022284914632
1354.3596833543113,1354.3596833543113,0.9983889029854647,0.000993878623276382
1354.3666279325603,1354.3666279325603,1.0004314283873312,0.000994331182326513
1354.373572510926,1354.373572510926,0.9993952873515897,0.0009941453471213008
1354.3805170892915,1354.3805170892915,1.0003961445329423,0.000994346512658498
1354.3874616676567,1354.3874616676567,1.0005697134803944,0.0009943188675209046
1354.3944062460218,1354.3944062460218,1.0007308051233268,0.0009944579924635957
1354.4013508244104,1354.4013508244104,1.000969190481825,0.0009945524138581098
1354.408295402869,1354.408295402869,1.000107708881265,0.0009944011186160818
1354.4152399813042,1354.4152399813042,0.9986291418014319,0.0009940951764394273
1354.422184559763,1354.422184559763,0.9999483545804285,0.000994264454351979
1354.4291291382444,1354.4291291382444,0.9994565548300987,0.000994174277209834
1354.4360737167265,1354.4360737167265,1.0012449248407775,0.0009949327664898326
1354.4430182952315,1354.4430182952315,0.9991530130010184,0.0009942654644957247
1354.44996287376,1354.44996287376,0.9989992487374261,0.0009942453797545509
1354.4569074522885,1354.4569074522885,0.9999103622301304,0.000994440052626946
1354.4638520308401,1354.4638520308401,1.0003268599760389,0.0009946380873244976
1354.4707966093915,1354.4707966093915,1.000839677499615,0.0009947781751484892
1354.47774118799,1354.47774118799,1.0001290943113113,0.0009947724299911504
1354.4846857665648,1354.4846857665648,1.0022654387757464,0.0009949313094812244
1354.4916303451632,1354.4916303451632,1.0001840007428737,0.000994350646168149
1354.4985749237615,1354.4985749237615,0.9996828111106417,0.000994304651612867
1354.5055195023826,1354.5055195023826,0.9995042567293521,0.000994159292127071
1354.5124640810045,1354.5124640810045,0.9998030818802673,0.0009941336325189867
1354.5194086596491,1354.5194086596491,0.9991933723709921,0.0009940767106112385
1354.526353238271,1354.526353238271,1.0002743287937312,0.0009942325029524035
1354.5332978169156,1354.5332978169156,1.0004835639385472,0.0009942421437149017
1354.5402423955602,1354.5402423955602,1.0005984312390144,0.0009944385071119955
1354.5471869742282,1354.5471869742282,1.0009352458172622,0.0009942934277407949
1354.554131552873,1354.554131552873,0.9987773450429522,0.000993962363356998
1354.5610761315643,1354.5610761315643,0.9999974821053748,0.0009939906472373797
1354.568020710256,1354.568020710256,0.9998395805221054,0.0009940352751344429
1354.5749652889003,1354.5749652889003,1.0000559804964155,0.0009937672635052892
1354.581909867592,1354.581909867592,0.999226453937408,0.0009937879488721986
1354.5888544462837,1354.5888544462837,1.0003918077200105,0.0009937104530396575
1354.595799024975,1354.595799024975,1.000004494151991,0.0009935739699125398
1354.6027436036431,1354.6027436036431,0.9997580074559013,0.000994052283051002
1354.6096881823341,1354.6096881823341,0.9993398928374309,0.0009939151067861487
1354.6166327610251,1354.6166327610251,1.00164950945777,0.0009942911621524497
1354.623577339717,1354.623577339717,0.9993456698642635,0.0009931652015034054
1354.6305219183848,1354.6305219183848,1.0005345844593783,0.0009940455784785281
1354.6374664970995,1354.6374664970995,1.0001529235117632,0.0009939789378203183
1354.6444110757677,1354.6444110757677,1.0000356435728543,0.0009937709732349693
1354.651355654482,1354.651355654482,0.9998822421172704,0.0009939763761445154
1354.6583002331272,1354.6583002331272,1.000116163377529,0.0009937970934306988
1354.665244811842,1354.665244811842,0.9988719481042898,0.000993805020492953
1354.6721893905099,1354.6721893905099,0.9994157835043241,0.000994011199761358
1354.679133969178,1354.679133969178,1.0018094857148583,0.0009948355752433398
1354.686078547869,1354.686078547869,1.000788223775983,0.0009940351857947358
1354.6930231265374,1354.6930231265374,0.9994615608485022,0.000993673392605633
1354.6999677051822,1354.6999677051822,0.999408932387827,0.000994066438433479
1354.7069122838504,1354.7069122838504,0.9983267319823004,0.0009933026914326149
1354.713856862495,1354.713856862495,1.0000743225685294,0.00099413868351848
1354.720801441163,1354.720801441163,0.9996893083797961,0.0009937028308995251
1354.7277460197845,1354.7277460197845,1.0017413231167445,0.0009937825581178019
1354.7346905984064,1354.7346905984064,1.0007601892786429,0.0009937415934201843
1354.7416351770512,1354.7416351770512,0.9994289097739228,0.000993583189173712
1354.7485797556724,1354.7485797556724,1.0000204352272548,0.00099350639502732
1354.7555243342708,1354.7555243342708,0.9989768749334941,0.0009931134004749656
1354.762468912892,1354.762468912892,1.0003184111696461,0.0009932890443700884
1354.7694134914905,1354.7694134914905,1.0010777272265479,0.0009936799842697628
1354.7763580700653,1354.7763580700653,1.000126811158754,0.0009934632570642592
1354.7833026486403,1354.7833026486403,0.9998626655156231,0.0009937465069459256
1354.790247227215,1354.790247227215,1.0005868184272455,0.00099396391775435
1354.797191805767,1354.797191805767,0.9983367649379782,0.000993398214834692
1354.8041363843188,1354.8041363843188,1.0006061180866994,0.0009938887915422862
1354.8110809628704,1354.8110809628704,1.0010410772539913,0.000994576383783511
1354.8180255413988,1354.8180255413988,0.9993426775444318,0.0009936250722866343
1354.8249701199038,1354.8249701199038,1.0001845195016306,0.000994162328763574
1354.8319146984322,1354.8319146984322,0.9987782195583318,0.0009939750752311145
1354.838859276914,1354.838859276914,1.0004980145715145,0.0009942025771484293
1354.8458038553958,1354.8458038553958,0.9992084883732915,0.000993799865850005
1354.8527484338777,1354.8527484338777,0.9998299325370501,0.0009938039632014716
1354.8596930123363,1354.8596930123363,0.9991590647710401,0.0009935845413903144
1354.8666375907949,1354.8666375907949,1.0007111655496428,0.0009939765888978928
1354.8735821692067,1354.8735821692067,1.0013027633839053,0.000994255335984682
1354.8805267476655,1354.8805267476655,1.0011729422403755,0.000994441096179029
1354.8874713260307,1354.8874713260307,0.9999906927235385,0.000993620980720889
1354.894415904396,1354.894415904396,0.999146350383227,0.0009930334107722152
1354.901360482878,1354.901360482878,0.9997336788663469,0.0009932064024053696
1354.908305061243,1354.908305061243,0.9988342618937889,0.000993039956529333
1354.9152496394922,1354.9152496394922,0.9994705954694865,0.00099310542364025
1354.9221942178576,1354.9221942178576,1.0005556547326504,0.0009932873195315542
1354.9291387962232,1354.9291387962232,1.000151652342195,0.000993232537150661
1354.9371945070338,1354.9371945070338,1.0007706331568398,0.0009938140443050217
1354.9444168684408,1354.9444168684408,1.001814590229106,0.0009941217249486984
1354.9513614467364,1354.9513614467364,0.9995173538560284,0.0009931397658668355
1354.9583060249856,1354.9583060249856,0.9980236804445155,0.0009928246636762817
1354.9652506032112,1354.9652506032112,1.0000347671645453,0.000993408124663461
1354.9721951814365,1354.9721951814365,0.9988843468955519,0.0009928763158412197
1354.9791397596393,1354.9791397596393,1.0019513419739132,0.0009939646756066123
1354.9860843378417,1354.9860843378417,1.0003822629167365,0.0009939209250305861
1354.9930289160206,1354.9930289160206,0.9982124890234687,0.0009930054393346573
1354.9999734941534,1354.9999734941534,1.001663057439652,0.0009941225498886317
1355.0069180722858,1355.0069180722858,1.0007310601354988,0.0009940980830911049
1355.0138626504188,1355.0138626504188,1.0005683767845897,0.000993892270370012
1355.0208072285277,1355.0208072285277,0.9987302719732648,0.0009934610531779878
1355.0277518065905,1355.0277518065905,0.9988668984171077,0.0009933970428403643
1355.0346963846769,1355.0346963846769,0.9994877121133532,0.0009934646443041926
1355.0416409626928,1355.0416409626928,0.9999486811229422,0.0009938467960762247
1355.0485855407323,1355.0485855407323,1.0005313236351197,0.0009938871215816293
1355.0555301187483,1355.0555301187483,1.0005999220421202,0.000993588729383143
1355.0624746967183,1355.0624746967183,0.9997801473526351,0.0009936809026618522
1355.0694192747112,1355.0694192747112,1.0003289572794476,0.000993511550464677
1355.076363852634,1355.076363852634,0.9991069469772761,0.0009928910806649917
1355.0833084305566,1355.0833084305566,0.9997151781608673,0.00099309366268867
1355.09025300848,1355.09025300848,1.0013696691045504,0.0009933712920939602
1355.0971975863797,1355.0971975863797,1.0008900008548278,0.0009936943093766858
1355.104142164256,1355.104142164256,0.9987449827923687,0.0009932076490308194
1355.1110867420628,1355.1110867420628,0.9997326307743977,0.0009933835072897374
1355.1180313199625,1355.1180313199625,1.0008441283979397,0.0009934647074736325
1355.1249758977458,1355.1249758977458,1.0003709712978353,0.0009937321457262084
1355.1319204755296,1355.1319204755296,0.9997577080071405,0.0009935339745959348
1355.1388650533122,1355.1388650533122,0.9998462069365932,0.0009932885676885476
1355.145809631003,1355.145809631003,0.9987024021356504,0.0009931915699505202
1355.1527542087629,1355.1527542087629,1.0004207810683736,0.000994006554262298
1355.1596987864295,1355.1596987864295,1.000049351113758,0.0009935258437095231
1355.1666433641199,1355.1666433641199,0.9995065926468107,0.0009933283545113453
1355.173587941787,1355.173587941787,1.0008351692193216,0.0009935950117453255
1355.1805325194075,1355.1805325194075,1.0007616090452347,0.0009939563353354999
1355.1874770970278,1355.1874770970278,0.999880230807414,0.000993666622955833
1355.1944216746012,1355.1944216746012,0.9991340406809959,0.0009931895183136635
1355.2013662521754,1355.2013662521754,1.0002222735507895,0.0009932757623695022
1355.2083108297256,1355.2083108297256,1.0004880874804793,0.0009932338646943062
1355.2152554072761,1355.2152554072761,0.9988798132500865,0.0009924855868788769
1355.222199984757,1355.222199984757,0.9997239266206515,0.0009931092743782448
1355.2291445622373,1355.2291445622373,0.9996201799994211,0.0009931232267946257
1355.2360891396715,1355.2360891396715,1.000653860211721,0.0009933617351487944
1355.2430337171058,1355.2430337171058,1.0010737207820342,0.0009934401984259007
1355.2499782945165,1355.2499782945165,1.0001572449192977,0.0009931377398689142
1355.2569228719044,1355.2569228719044,1.0019766852147791,0.0009940553421393856
1355.2638674492684,1355.2638674492684,0.9985725629061328,0.0009929564089796404
1355.2708120265859,1355.2708120265859,0.9988782528341945,0.0009931623076242597
1355.2777566039035,1355.2777566039035,1.0004558705405897,0.0009929883566358944
1355.2847011811748,1355.2847011811748,0.998922570458156,0.0009928655526213093
1355.2916457584693,1355.2916457584693,0.999010174456861,0.0009929193953930107
1355.2985903356935,1355.2985903356935,1.00131533550447,0.000993618991205723
1355.3055349128947,1355.3055349128947,0.999661260943921,0.0009931087558130848
1355.3124794900964,1355.3124794900964,1.0001467089245868,0.0009932382658748655
1355.3194240672742,1355.3194240672742,1.001287908674507,0.0009939310501415118
1355.3263686443825,1355.3263686443825,0.9994501986830698,0.0009932408692160412
1355.3338687876899,1355.3338687876899,0.9998484179764369,0.0009934928997413237
1355.3416467140155,1355.3416467140155,1.001923334020507,0.0009940014421824595
1355.3485912910774,1355.3485912910774,0.9993631131613018,0.0009932848681591746
1355.3555358681156,1355.3555358681156,0.9989090117052586,0.0009931897352376629
1355.3624804451306,1355.3624804451306,0.9992324581635119,0.0009934517484739504
1355.3694250220988,1355.3694250220988,1.0000957462991846,0.000993443009657875
1355.3763695990672,1355.3763695990672,0.9996563186968703,0.0009932937386404887
1355.3833141760126,1355.3833141760126,0.9992897373586775,0.0009930354670519685
1355.3902587529112,1355.3902587529112,1.001029079846769,0.000993660092992802
1355.3980366790277,1355.3980366790277,1.0005469416170831,0.0009934493002166337
1355.4055368220086,1355.4055368220086,1.0001580221555428,0.0009935234278520785
1355.4124813988376,1355.4124813988376,1.0004632955687631,0.0009934861505117496
1355.419425975643,1355.419425975643,0.998157434510248,0.0009926949858505315
1355.4263705524017,1355.4263705524017,1.0016684924266595,0.0009938983914529102
1355.4333151291607,1355.4333151291607,0.9996776831616361,0.000993053835116586
1355.440259705873,1355.440259705873,0.999525621883653,0.000993087059834975
1355.447204282562,1355.447204282562,1.0014666074206624,0.0009936974877026476
1355.4541488591817,1355.4541488591817,0.999369098499557,0.0009928438049672385
1355.461093435917,1355.461093435917,0.9999172533981818,0.0009932185569707657
1355.4680380124896,1355.4680380124896,0.9991084609732706,0.0009929892123480735
1355.474982589039,1355.474982589039,1.0002922968797652,0.0009930702619085593
1355.481927165635,1355.481927165635,0.9977189085318784,0.0009921841885046196
1355.488871742161,1355.488871742161,1.0005780863995162,0.0009931083600080565
1355.4958163186639,1355.4958163186639,1.0016860780375976,0.0009934898321907514
1355.50276089512,1355.50276089512,0.9994786700807197,0.0009926292888377838
1355.5097054715993,1355.5097054715993,1.0008450832780373,0.000993380744028982
1355.516650048009,1355.516650048009,1.0004185139599167,0.0009932049780129123
1355.5235946244186,1355.5235946244186,1.0013091153333036,0.0009931943947630504
1355.5305392007817,1355.5305392007817,0.9995949462974918,0.0009930965241877648
1355.5374837771217,1355.5374837771217,0.9983338553353477,0.0009926760824880711
1355.5444283534378,1355.5444283534378,1.0000640474707754,0.0009929154578885194
1355.551372929708,1355.551372929708,0.9999378188841159,0.0009930486881960148
1355.5583175059778,1355.5583175059778,0.9995484524073781,0.0009931398406278133
1355.5652620822245,1355.5652620822245,0.9996419199952082,0.0009932040789359684
1355.5722066584017,1355.5722066584017,0.9999635622288899,0.000993303350539564
1355.5791512345784,1355.5791512345784,1.0018782058833247,0.0009934818980585109
1355.5860958107319,1355.5860958107319,0.999827815765775,0.000993189726274411
1355.5930403868388,1355.5930403868388,0.9986377752494116,0.0009926185847519311
1355.5999849629457,1355.5999849629457,0.9991073751023757,0.000992973595151962
1355.606929538983,1355.606929538983,1.00118103608089,0.0009933391162984238
1355.61387411502,1355.61387411502,0.9996386070870059,0.0009926923401099915
1355.6208186910567,1355.6208186910567,1.0008141832125128,0.0009929708258031719
1355.627763267001,1355.627763267001,0.999987555000394,0.000992740198459207
1355.6347078429685,1355.6347078429685,1.000992894489681,0.0009930969166097572
1355.641652418889,1355.641652418889,0.9991934487339236,0.0009927994240462406
1355.6485969947867,1355.6485969947867,0.9997870828631343,0.000992694265716997
1355.655541570614,1355.655541570614,0.9994895941618391,0.0009928057301657246
1355.6624861464647,1355.6624861464647,1.0008170331660486,0.0009931218960306464
1355.6694307222924,1355.6694307222924,0.9999408777520115,0.000992977046118723
1355.67637529805,1355.67637529805,0.9998343141728551,0.0009927896329704994
1355.6833198737845,1355.6833198737845,0.9990271426800721,0.0009926649843151765
1355.690264449519,1355.690264449519,0.9990071841001369,0.0009927693633328398
1355.697209025207,1355.697209025207,1.0002652007279669,0.0009931128339455931
1355.7041536008715,1355.7041536008715,1.000515894764911,0.0009931673843328796
1355.7110981764895,1355.7110981764895,1.0026393894541317,0.0009937237714564425
1355.7180427521075,1355.7180427521075,0.9986264059060833,0.0009922218248248633
1355.7249873276792,1355.7249873276792,1.0004485515435229,0.0009929349978972791
1355.7319319032272,1355.7319319032272,0.9992123515740398,0.000992434388179208
1355.738876478752,1355.738876478752,1.000486617246918,0.0009932097754780567
1355.7469321863264,1355.7469321863264,0.9994464809601371,0.0009929905750997968
1355.7541545447998,1355.7541545447998,1.000131216535786,0.000992802061623421
1355.7610991202084,1355.7610991202084,1.0006461541830667,0.0009933825990070867
1355.7680436955936,1355.7680436955936,1.0003204523642624,0.000993353823224039
1355.7749882709554,1355.7749882709554,0.9996024694376467,0.0009933945005798285
1355.781932846294,1355.781932846294,0.999440553374124,0.0009933790547116922
1355.788877421586,1355.788877421586,0.99953270863701,0.000993147735959171
1355.7958219968782,1355.7958219968782,0.9993347695358505,0.0009930801625018164
1355.8027665721004,1355.8027665721004,1.0009484550497383,0.0009935628801564463
1355.8097111473223,1355.8097111473223,0.9997307341614132,0.0009932347353492643
1355.8166557225218,1355.8166557225218,1.000273371732369,0.000993550875220279
1355.823600297674,1355.823600297674,1.000119739402601,0.000993740941219363
1355.83054487278,1355.83054487278,0.9994028572017214,0.0009928917311347433
1355.8374894478857,1355.8374894478857,1.0014669878036369,0.0009933641309141838
1355.8444340229678,1355.8444340229678,1.0000172003531687,0.0009933650599570879
1355.8513785979808,1355.8513785979808,0.9983476312293977,0.000992675040801866
1355.8583231729933,1355.8583231729933,1.0004468802631523,0.000993283200445322
1355.8652677479827,1355.8652677479827,1.0010770929951966,0.0009933793231916299
1355.8722123228792,1355.8722123228792,0.9984872852554695,0.0009926592734151017
1355.8791568978688,1355.8791568978688,0.9991254092503266,0.0009928929336424574
1355.8861014727415,1355.8861014727415,1.0003786051847592,0.000993352454339393
1355.893046047591,1355.893046047591,0.9987163399646244,0.0009927897272563953
