time,time,flux,flux_err
1354.1140928136358,1354.1140928136358,1.0003366872935164,0.0003008292725458469
1354.1228891659212,1354.1228891659212,0.9995061796083254,0.0003006150501554027
1354.1312225525273,1354.1312225525273,0.9997466672472123,0.0003006573317990609
1354.1388614904367,1354.1388614904367,0.9999429908206394,0.00027447276160892577
1354.1458059796062,1354.1458059796062,1.0005233552663453,0.0002745492832187268
1354.1527504689209,1354.1527504689209,1.000213062035771,0.0002744832376170008
1354.1596949583814,1354.1596949583814,1.000160678395488,0.0002745066451200097
1354.1666394479876,1354.1666394479876,0.9999959437978129,0.0002744859387542828
1354.173583937736,1354.173583937736,1.0003292411429576,0.0002745083937702828
1354.1805284276259,1354.1805284276259,0.9994670650490262,0.0002744145422563148
1354.187472917657,1354.187472917657,0.999854445490581,0.00027447993845477195
1354.1944174078246,1354.1944174078246,1.0000684839490581,0.0002744883995970147
1354.201361898129,1354.201361898129,0.9996087098084347,0.0002744614208670224
1354.2083063885689,1354.2083063885689,1.000075209011556,0.00027452201472213147
1354.2152508791453,1354.2152508791453,1.0002971269370096,0.0002745219913102506
1354.22219536985,1354.22219536985,0.9998172630016775,0.00027447638327383255
1354.2291398606899,1354.2291398606899,1.0001617872079183,0.00027452286514082944
1354.2360843516594,1354.2360843516594,0.999976286459907,0.0002744985601670485
1354.2430288427543,1354.2430288427543,1.0001681734707504,0.00027454099867745723
1354.2499733339785,1354.2499733339785,0.9999077340574924,0.00027449339481061113
1354.2569178253245,1354.2569178253245,1.0000284939929804,0.0002744775603448063
1354.263862316798,1354.263862316798,0.9998715771009481,0.0002744493445623043
1354.2708068083928,1354.2708068083928,1.0002676288883585,0.0002745487042789675
1354.2777513001076,1354.2777513001076,0.9999599571073864,0.00027450663554308814
1354.2846957919442,1354.2846957919442,0.9997112829846856,0.000274491655817826
1354.291640283896,1354.291640283896,1.0001519455129801,0.00027453731543427933
1354.2985847759685,1354.2985847759685,1.00018215984282,0.00027454683395229115
1354.3055292681574,1354.3055292681574,0.999643012881587,0.00027447753817493964
1354.3124737604558,1354.3124737604558,1.000158717138769,0.0002745417093511024
1354.3194182528719,1354.3194182528719,0.9998658639422142,0.00027446955637742005
1354.326362745398,1354.326362745398,0.9996348447828526,0.00027446566584595606
1354.333307238031,1354.333307238031,1.0001857310687012,0.00027449828106035275
1354.34025173078,1354.34025173078,1.0003544527330408,0.0002745663387341338
1354.3471962236313,1354.3471962236313,0.9999828194514737,0.00027453333557773366
1354.3541407165912,1354.3541407165912,1.0001339872761648,0.00027452083261905746
1354.3610852096565,1354.3610852096565,0.9998631375705578,0.0002744972520643364
1354.3680297028247,1354.3680297028247,1.000301236649226,0.00027454372289582174
1354.3749741960933,1354.3749741960933,0.9996246358827777,0.0002744717416740091
1354.3819186894682,1354.3819186894682,0.9999885869665335,0.0002744785253871886
1354.388863182942,1354.388863182942,0.9998037084255464,0.00027449484277422564
1354.395807676515,1354.395807676515,1.000047003970606,0.0002744787304560251
1354.4027521701853,1354.4027521701853,0.9997705282233488,0.00027447105215818314
1354.409696663952,1354.409696663952,1.0005879002623543,0.0002745759542674932
1354.4166411578128,1354.4166411578128,1.0000095752265312,0.0002745494645279276
1354.4235856517714,1354.4235856517714,1.0001806151067942,0.00027456784493383425
1354.4305301458212,1354.4305301458212,1.000037968222974,0.00027454530363007926
1354.437474639963,1354.437474639963,0.9995499300435038,0.00027448671554088566
1354.4444191341968,1354.4444191341968,1.0000404778686935,0.0002745449114923927
1354.4513636285187,1354.4513636285187,0.9999369939915121,0.00027458522385954737
1354.4583081229327,1354.4583081229327,0.9998616614279415,0.000274499296689786
1354.4652526174298,1354.4652526174298,0.9998429014013686,0.00027453767667596856
1354.472197112018,1354.472197112018,1.0001577810712745,0.00027457319668855803
1354.47914160669,1354.47914160669,1.0003607942045436,0.00027461652460203606
1354.4860861014456,1354.4860861014456,1.0000293315906421,0.0002746053108094995
1354.493030596283,1354.493030596283,0.9999541262487271,0.00027454740711992603
1354.4999750912036,1354.4999750912036,1.0000101198327818,0.0002745354317119252
1354.5069195862081,1354.5069195862081,0.9997974620032153,0.0002745499318838885
1354.5138640812916,1354.5138640812916,0.9999713913066011,0.00027458324046225884
1354.520808576455,1354.520808576455,0.9997505614756588,0.000274496128377432
1354.527753071694,1354.527753071694,1.000474197207127,0.00027461460476570584
1354.5346975670116,1354.5346975670116,1.0000570190045306,0.0002745659198863725
1354.5416420624078,1354.5416420624078,1.0003398532525607,0.00027465114990718047
1354.5485865578767,1354.5485865578767,0.9996058322956303,0.0002745280633104731
1354.5555310534203,1354.5555310534203,1.0001523614828824,0.0002746114383276689
1354.56247554904,1354.56247554904,0.9996950173992684,0.00027453593021228384
1354.5694200447288,1354.5694200447288,0.9997226538813099,0.00027452287244337435
1354.5763645404902,1354.5763645404902,0.9996357126355921,0.0002745534248492853
1354.5833090363217,1354.5833090363217,1.0000838814340673,0.00027452753498607
1354.5902535322216,1354.5902535322216,1.0002274744860953,0.0002745723305184565
1354.5971980281938,1354.5971980281938,1.0000708123056783,0.0002746013497041571
1354.6041425242329,1354.6041425242329,1.0005649775980925,0.00027465800933345675
1354.6110870203381,1354.6110870203381,1.0000651129297597,0.00027454089463657704
1354.6180315165097,1354.6180315165097,0.9999126304053062,0.0002745703740745613
1354.6249760127487,1354.6249760127487,1.000345554207396,0.0002745680396391143
1354.6319205090485,1354.6319205090485,0.9992699376641803,0.00027447310584706246
1354.6388650054153,1354.6388650054153,1.0001786301603364,0.00027458180045136077
1354.6458095018447,1354.6458095018447,1.0000408266571934,0.0002746065308868446
1354.6527539983338,1354.6527539983338,0.9999091782176317,0.0002745769987643053
1354.659698494887,1354.659698494887,0.9995762968062063,0.00027457616525722393
1354.6666429914983,1354.6666429914983,1.0001037227868834,0.0002745959144884256
1354.673587488169,1354.673587488169,1.0000126437698038,0.0002746155896655098
1354.6805319849009,1354.6805319849009,1.0004547167551512,0.0002746617636328846
1354.6874764816887,1354.6874764816887,1.0000874245737577,0.00027460187656519204
1354.6944209785368,1354.6944209785368,0.9999503869567,0.00027459254959970433
1354.7013654754378,1354.7013654754378,0.9999241236035596,0.00027457061246029035
1354.7083099723973,1354.7083099723973,0.9997241557723996,0.0002745563883150094
1354.7152544694127,1354.7152544694127,1.0000542851502054,0.0002746048593248741
1354.72219896648,1354.72219896648,1.0001825484956397,0.00027460863213054764
1354.7291434636002,1354.7291434636002,0.9998455799214181,0.0002746554187565576
1354.7360879607763,1354.7360879607763,1.000252887451518,0.00027467676435265675
1354.7430324580027,1354.7430324580027,0.9998668734591838,0.0002746213848111148
1354.749976955282,1354.749976955282,0.9999404984801625,0.00027459897660851154
1354.756921452609,1354.756921452609,0.9998352406429756,0.00027461369483523286
1354.7638659499892,1354.7638659499892,1.0005309056894873,0.0002746253354277565
1354.7708104474193,1354.7708104474193,0.9996132012535819,0.0002746118106504748
1354.777754944898,1354.777754944898,0.9997912697538276,0.0002746244722690318
1354.784699442423,1354.784699442423,1.000181359509631,0.000274691395359052
1354.7916439399964,1354.7916439399964,1.000012143457082,0.00027463404958093376
1354.7985884376176,1354.7985884376176,1.0005144601490288,0.00027470646855565846
1354.8055329352824,1354.8055329352824,1.0001380765513708,0.000274649788992119
1354.8124774329967,1354.8124774329967,0.9998467008616849,0.0002746207519659307
1354.8194219307518,1354.8194219307518,0.9996530308034004,0.000274616863627783
1354.8263664285546,1354.8263664285546,1.0001933188409395,0.00027464641750578713
1354.8333109264004,1354.8333109264004,0.9998311095707362,0.0002746755686298449
1354.840255424289,1354.840255424289,1.0005177043570914,0.00027469467023816626
1354.8471999222188,1354.8471999222188,1.0001105169391153,0.00027464510254656055
1354.8541444201924,1354.8541444201924,0.9997174498263265,0.00027461498344085464
1354.8610889182062,1354.8610889182062,1.000039268420382,0.00027461440817592466
1354.8680334162643,1354.8680334162643,0.9999672866898172,0.0002746906160688158
1354.8749779143582,1354.8749779143582,0.9998869114920165,0.00027460595287714804
1354.8819224124945,1354.8819224124945,0.9998538046613282,0.00027462594526648685
1354.8888669106686,1354.8888669106686,1.000137026969935,0.00027471569861152115
1354.8958114088823,1354.8958114088823,1.0000911308987201,0.00027466850395812853
1354.902755907135,1354.902755907135,1.0002996424859272,0.00027473696964424525
1354.9097004054242,1354.9097004054242,0.9996537650160832,0.00027464550208733916
1354.9166449037493,1354.9166449037493,1.0001977253928065,0.00027471270303589657
1354.9235894021128,1354.9235894021128,1.000008348199869,0.00027469270461453744
1354.9308116804473,1354.9308116804473,0.9995876803941683,0.0002747095530736642
1354.9388672986365,1354.9388672986365,1.0001268737738616,0.00027462475932064077
1354.9458117971135,1354.9458117971135,1.0000564513192516,0.0002747155714788648
1354.9527562956239,1354.9527562956239,0.9998916159031292,0.00027464129936002836
1354.9597007941672,1354.9597007941672,1.0002380395816677,0.00027470628573210757
1354.966645292748,1354.966645292748,0.9999922956248302,0.0002746914534743275
1354.9735897913554,1354.9735897913554,0.9998993393869465,0.00027467513732111563
1354.98053429,1354.98053429,1.0005410558256422,0.00027471876327002923
1354.9874787886743,1354.9874787886743,0.9996538292573897,0.0002746188053671451
1354.9944232873843,1354.9944232873843,1.0000984901110315,0.0002747238000250362
1355.00136778612,1355.00136778612,0.999625397448105,0.00027462278111852633
1355.0083122848894,1355.0083122848894,0.9999201775348597,0.00027464377063873954
1355.0152567836878,1355.0152567836878,0.9996537855813614,0.00027465566704421506
1355.0222012825154,1355.0222012825154,1.0001174617271187,0.00027469718943433385
1355.029145781375,1355.029145781375,1.0001906707356267,0.00027468266772620657
1355.0360902802609,1355.0360902802609,1.000104007157557,0.0002746560534278648
1355.0430347791757,1355.0430347791757,1.0005184311792124,0.0002747329335214886
1355.0499792781197,1355.0499792781197,1.000084765935064,0.00027464888553465093
1355.0569237770912,1355.0569237770912,0.999887714881185,0.0002746380705705198
1355.0638682760891,1355.0638682760891,0.9998780977244287,0.0002746373479815427
1355.0708127751143,1355.0708127751143,0.9994083828695908,0.0002745991448056379
1355.0777572741674,1355.0777572741674,1.0001455451505126,0.00027471874591840736
1355.0847017732453,1355.0847017732453,1.0000194023848425,0.00027467881029871597
1355.0916462723465,1355.0916462723465,1.0000247560421252,0.0002747198709288383
1355.098590771474,1355.098590771474,0.999941694723501,0.00027463484851848405
1355.1055352706287,1355.1055352706287,1.0001633705832362,0.0002747286254608167
1355.1124797698058,1355.1124797698058,0.9998811610298132,0.00027472031518491105
1355.1194242690085,1355.1194242690085,1.0002080075149284,0.0002746944046456255
1355.1263687682317,1355.1263687682317,1.0000107399850031,0.0002747207377053127
1355.1333132674831,1355.1333132674831,0.9999196278806064,0.0002746920462895038
1355.1402577667543,1355.1402577667543,1.0002276374997028,0.0002747222786864726
1355.1472022660478,1355.1472022660478,1.0001758964835514,0.0002747161821556048
1355.1541467653653,1355.1541467653653,0.9997125224116313,0.0002746757242857834
1355.161091264704,1355.161091264704,0.9997963644755579,0.00027463707095631384
1355.1680357640644,1355.1680357640644,0.9997300847288833,0.00027465517001861134
1355.1749802634458,1355.1749802634458,1.0000572365607132,0.0002746993639984038
1355.1819247628468,1355.1819247628468,1.000012890994142,0.000274689258531405
1355.1888692622717,1355.1888692622717,1.0000928851310782,0.0002747214641173482
1355.1958137617155,1355.1958137617155,1.0003297189094953,0.0002747254410775899
1355.2027582611763,1355.2027582611763,1.0003733736017166,0.0002747593954613091
1355.20970276066,1355.20970276066,0.9998334376756658,0.0002746599905960839
1355.21664726016,1355.21664726016,0.9999982342806929,0.0002746727596374496
1355.223591759685,1355.223591759685,0.9998016576363853,0.0002746693324784331
1355.2305362592208,1355.2305362592208,0.9996052091178349,0.0002747037273339246
1355.2374807587817,1355.2374807587817,1.000759983468105,0.0002747900348065577
1355.244425258354,1355.244425258354,0.9994388026673635,0.0002746781152423692
1355.2513697579518,1355.2513697579518,0.9999601329131634,0.00027468290274755477
1355.2583142575609,1355.2583142575609,1.0000508394453422,0.0002747645900222827
1355.2652587571872,1355.2652587571872,1.0001129310929036,0.00027473776005320976
1355.2722032568322,1355.2722032568322,0.9997273717705173,0.0002746740114995737
1355.2791477564956,1355.2791477564956,1.000217761441931,0.0002746945112401069
1355.2860922561729,1355.2860922561729,0.9998221067955058,0.0002746444498075665
1355.2930367558647,1355.2930367558647,1.000262297885776,0.00027472483060901175
1355.299981255574,1355.299981255574,1.00011832399422,0.00027468881450029185
1355.3069257552997,1355.3069257552997,0.9998302087473903,0.00027467517896282936
1355.3138702550395,1355.3138702550395,0.999762455034633,0.00027465140162705626
1355.3208147547941,1355.3208147547941,1.000020988500483,0.0002746867685866841
1355.3277592545633,1355.3277592545633,1.0002986249173305,0.0002746769141039404
1355.3358148743137,1355.3358148743137,0.9998085965471388,0.0002746502366155585
1355.3430371541067,1355.3430371541067,1.0002102641952961,0.00027470008227754015
1355.3499816539177,1355.3499816539177,1.000247174640751,0.000274705893627342
1355.3569261537464,1355.3569261537464,0.9997096455178174,0.00027468117353116186
1355.363870653587,1355.363870653587,1.000165472398437,0.0002747009504291816
1355.37081515344,1355.37081515344,0.999751001639442,0.0002746076733243574
1355.3777596533084,1355.3777596533084,0.9996628920744278,0.0002746036017381067
1355.3847041531865,1355.3847041531865,0.9997540326297946,0.00027468446559652496
1355.391648653079,1355.391648653079,1.000315905842323,0.0002746933340650454
1355.3999820529655,1355.3999820529655,1.0002783137503761,0.00027470774495708176
1355.406926552881,1355.406926552881,0.9996881338746821,0.0002746798449371249
1355.413871052809,1355.413871052809,1.0006633379718965,0.0002747675611052624
1355.42081555275,1355.42081555275,1.0001224085171272,0.0002747096806671937
1355.4277600527007,1355.4277600527007,0.9997989420623898,0.00027470270980276397
1355.4347045526636,1355.4347045526636,1.0005100679564431,0.0002747584793151294
1355.4416490526348,1355.4416490526348,0.999881610181901,0.00027466543066488066
1355.4485935526177,1355.4485935526177,0.9998835165143841,0.0002746730921598771
1355.4555380526112,1355.4555380526112,0.9997505254168184,0.0002746675610901119
1355.462482552613,1355.462482552613,1.0000445391562578,0.0002747087899967732
1355.4694270526265,1355.4694270526265,0.9999604769599536,0.00027469654764347386
1355.4763715526474,1355.4763715526474,0.9997422998029905,0.0002746758464286377
1355.4833160526798,1355.4833160526798,1.0002880844698672,0.0002747523988840639
1355.4902605527197,1355.4902605527197,1.0003473962270757,0.00027470994977218564
1355.4972050527692,1355.4972050527692,0.9999615673026433,0.00027469550402943753
1355.5041495528262,1355.5041495528262,0.9995945756050393,0.00027464949918554866
1355.5110940528925,1355.5110940528925,1.000090336010944,0.0002746874590526248
1355.5180385529657,1355.5180385529657,0.999966911456206,0.0002747041583314886
1355.5249830530506,1355.5249830530506,1.00068341267158,0.0002747902820895171
1355.531927553141,1355.531927553141,0.9995915176595099,0.0002746589812171603
1355.5388720532394,1355.5388720532394,0.9998542697432452,0.00027465121073537994
1355.5458165533428,1355.5458165533428,0.9999456860234076,0.00027471643426045875
1355.5527610534568,1355.5527610534568,1.0002710327227748,0.0002747036683929485
1355.5597055535782,1355.5597055535782,0.99976435076078,0.00027467163585904173
1355.5666500537036,1355.5666500537036,0.9994946903631501,0.0002746123947336553
1355.573594553838,1355.573594553838,1.0004646521218756,0.0002747507608143442
1355.5805390539783,1355.5805390539783,0.999886516660115,0.0002746776121768962
1355.5874835541267,1355.5874835541267,1.0002307057166182,0.00027471495037358654
1355.5944280542776,1355.5944280542776,1.0002338220733984,0.00027470130725504446
1355.6013725544349,1355.6013725544349,0.9998826117316165,0.00027466922976220146
1355.6083170546012,1355.6083170546012,1.000089450447332,0.0002746967832823248
1355.6152615547694,1355.6152615547694,0.9997065764005841,0.00027463034248973036
1355.6222060549455,1355.6222060549455,1.0000219680213946,0.0002746318254296364
1355.6291505551264,1355.6291505551264,1.0000832368609882,0.0002746910477664674
1355.6360950553135,1355.6360950553135,1.00012215144048,0.00027469465628727536
1355.6430395555028,1355.6430395555028,0.9998559091002749,0.0002746877154402544
1355.6499840557,1355.6499840557,1.0002220299706386,0.0002747497322009513
1355.6569285558983,1355.6569285558983,0.9997044727368202,0.0002746706889328289
1355.6638730561037,1355.6638730561037,1.000372860280774,0.00027472349456746385
1355.670817556314,1355.670817556314,0.9997455401415445,0.0002747008990587097
1355.6777620565265,1355.6777620565265,0.9997790655328673,0.00027464746833704855
1355.6847065567424,1355.6847065567424,0.9999414944807519,0.0002746997992610276
1355.6916510569645,1355.6916510569645,1.0001221387697006,0.00027472422012981055
1355.6985955571902,1355.6985955571902,1.0000966605496744,0.0002747422838829267
1355.705540057419,1355.705540057419,0.9997279040933217,0.00027469342942403757
1355.7124845576514,1355.7124845576514,1.000273301947533,0.00027470716544832237
1355.7194290578857,1355.7194290578857,1.0001455620685686,0.00027472234600613745
1355.726373558125,1355.726373558125,0.9994227410942249,0.00027463255241147347
1355.7333180583653,1355.7333180583653,1.0003644276753663,0.0002747496500621953
1355.7405403386206,1355.7405403386206,1.0003030442598606,0.0002747460721563514
1355.7485959589055,1355.7485959589055,1.0001074428699233,0.0002746916101546185
1355.7555404591544,1355.7555404591544,0.9999747802011653,0.00027473259639007434
1355.7624849594067,1355.7624849594067,0.9997477500301066,0.0002746559588932791
1355.7694294596622,1355.7694294596622,0.9995007861278102,0.0002746693894163282
1355.7763739599152,1355.7763739599152,1.0002997274183865,0.00027473794685262804
1355.7833184601736,1355.7833184601736,1.000077375266977,0.00027470339253330106
1355.7902629604375,1355.7902629604375,1.0000714294427222,0.0002747039875298049
1355.797207460697,1355.797207460697,0.9999809675891387,0.00027470631128386576
1355.8041519609621,1355.8041519609621,1.000209340916865,0.00027474292173804274
1355.811096461226,1355.811096461226,0.99997893571965,0.00027472415935495876
1355.8180409614918,1355.8180409614918,0.9997690308560949,0.0002746649711207214
1355.8249854617595,1355.8249854617595,0.9999134845327455,0.00027470418589741353
1355.831929962028,1355.831929962028,0.999880959285063,0.0002746629554813531
1355.8388744622962,1355.8388744622962,1.0001639099751596,0.00027472187607484864
1355.8458189625658,1355.8458189625658,0.999884452408222,0.00027469728672658075
1355.8527634628367,1355.8527634628367,0.999973737966722,0.00027472097769716856
1355.859707963108,1355.859707963108,1.0002283800483291,0.00027472113230443164
1355.866652463379,1355.866652463379,1.0000235020309458,0.00027465261748119905
1355.873596963652,1355.873596963652,1.0000359536713153,0.0002747016423474117
1355.8805414639232,1355.8805414639232,0.999888975911882,0.00027464983740968263
