time,time,flux,flux_err
1410.9101398179125,1410.9101398179125,0.9997857194883923,0.0002036805122072022
1410.9170845024269,1410.9170845024269,1.000137437553175,0.0002037584974407184
1410.9240291868496,1410.9240291868496,1.0000273826055723,0.00020371502873317722
1410.9309738709912,1410.9309738709912,0.9998988500616972,0.00020369898159429016
1410.937918555041,1410.937918555041,0.9997318841175762,0.0002036700301367356
1410.9448632389972,1410.9448632389972,1.0000676637654455,0.0002037028457806844
1410.9518079226734,1410.9518079226734,1.0001580490137911,0.0002036820265934478
1410.9587526063508,1410.9587526063508,1.0002615593160047,0.0002037150867907222
1410.9668084390503,1410.9668084390503,0.9997699479658968,0.00020362293653693455
1410.981253380077,1410.981253380077,0.9999392218989842,0.00020344927027595108
1410.9906981490096,1410.9906981490096,1.0000797995150283,0.00020364523593689125
1410.9993095554762,1410.9993095554762,1.0003201663043204,0.00020353524994295757
1411.0101432602685,1411.0101432602685,0.9998630594184255,0.00020356328428808374
1411.0170879426414,1411.0170879426414,0.9997747528346176,0.0002035764300566447
1411.0240326247347,1411.0240326247347,0.9999917848198538,0.0002036091015360523
1411.0309773067356,1411.0309773067356,1.0003026946810571,0.00020361595504086072
1411.0379219886422,1411.0379219886422,0.9998978787211857,0.00020352089627408729
1411.0448666702705,1411.0448666702705,0.9997929934139111,0.00020354643895297776
1411.052644713526,1411.052644713526,1.0002896113733517,0.00020358830934272195
1411.060144969479,1411.060144969479,1.0000572167178015,0.0002035238599912042
1411.0670896506413,1411.0670896506413,0.9999555054318019,0.00020358131257432096
1411.0740343316168,1411.0740343316168,1.0000781054362442,0.00020358671550390218
1411.0809790125002,1411.0809790125002,1.0000877719348027,0.00020356746793302573
1411.0879236931964,1411.0879236931964,0.999692655389914,0.00020354705539755627
1411.0948683737995,1411.0948683737995,1.0000204698505306,0.00020360046321788876
1411.1018130542175,1411.1018130542175,0.9999466788069598,0.00020367542755137915
1411.1087577344479,1411.1087577344479,1.0000850375893624,0.00020358954832289076
1411.1157024144,1411.1157024144,1.000051878432205,0.00020357331998640052
1411.1226470942577,1411.1226470942577,0.9998845997221562,0.00020361876214229478
1411.1295917740226,1411.1295917740226,0.999903747826582,0.0002035135012807414
1411.1365364535088,1411.1365364535088,1.0000958942708267,0.00020358230656486502
1411.143481132994,1411.143481132994,1.0001217741507262,0.00020354123702627825
1411.1504258122013,1411.1504258122013,0.9997433467362665,0.00020353870410608037
1411.157370491314,1411.157370491314,1.0000342870259273,0.00020353261324066238
1411.164315170148,1411.164315170148,1.0000299209073968,0.00020352418986768032
1411.1712598488891,1411.1712598488891,1.000120690365454,0.00020344232844744345
1411.178204527536,1411.178204527536,1.000187492190046,0.00020354413433228222
1411.185149205905,1411.185149205905,0.9999742759412678,0.00020347171901507832
1411.1920938841797,1411.1920938841797,0.9997267257947262,0.0002035092719281323
1411.1990385620823,1411.1990385620823,1.0002243462335985,0.00020352065281208946
1411.205983239985,1411.205983239985,1.0001319328604337,0.00020349943488939863
1411.2129279178869,1411.2129279178869,0.9994296436051494,0.00020345891647316136
1411.2198725955109,1411.2198725955109,1.0002994264236542,0.0002034581746344747
1411.226817272947,1411.226817272947,1.0000353703413563,0.0002035028709556135
1411.2337619501982,1411.2337619501982,0.9998599967782222,0.0002034316325948794
1411.2407066272626,1411.2407066272626,1.0001227409200015,0.00020351688323087884
1411.2476513041404,1411.2476513041404,0.9999298790940008,0.0002035311258587177
1411.254595980926,1411.254595980926,1.0002104346755278,0.00020357871619985438
1411.2615406575242,1411.2615406575242,1.0002729714435752,0.00020353453423424425
1411.2684853339367,1411.2684853339367,0.9996224848248266,0.00020349521946783896
1411.27543001007,1411.27543001007,0.9997126763063455,0.0002035001640925069
1411.2823746862023,1411.2823746862023,0.9997618966879358,0.00020351474695802285
1411.2893193622428,1411.2893193622428,1.0004352066657103,0.00020353113675205663
1411.2962640378169,1411.2962640378169,1.0003899082829342,0.00020353916328560485
1411.303208713391,1411.303208713391,0.9997509198379575,0.0002035088467484731
1411.310153388966,1411.310153388966,1.0001861561061867,0.0002036035387966648
1411.3170980640737,1411.3170980640737,0.9997784137739647,0.00020359604019791816
1411.3240427392761,1411.3240427392761,0.9997487174408404,0.00020356270959020142
1411.330987414105,1411.330987414105,0.9997209396682909,0.00020355897198102622
1411.337932088841,1411.337932088841,1.0003894668270878,0.0002035143724728017
1411.344876763484,1411.344876763484,0.9999314469382931,0.0002035459127885462
1411.3518214378473,1411.3518214378473,1.0003109503545236,0.0002035996838021177
1411.3587661121182,1411.3587661121182,1.0000018098092913,0.00020353904002166223
1411.3657107861086,1411.3657107861086,0.9996609100808538,0.00020350738511331064
1411.3726554601003,1411.3726554601003,1.0002368014658316,0.00020349076827864192
1411.3796001338117,1411.3796001338117,1.000165904521145,0.0002035868907730084
1411.3865448073368,1411.3865448073368,1.0007251773615322,0.00020363630221766635
1411.3934894809559,1411.3934894809559,0.9997662113132225,0.00020349304278471822
1411.400434154201,1411.400434154201,0.9997259973729615,0.00020349011151945894
1411.407378827075,1411.407378827075,1.0003143671817096,0.00020354200146049505
1411.4143235000415,1411.4143235000415,1.0001007220979579,0.0002035409634549395
1411.4212681727283,1411.4212681727283,1.0000171598612657,0.0002034683480467856
1411.4282128453228,1411.4282128453228,0.9996215635566326,0.0002034697308269299
1411.4351575177302,1411.4351575177302,1.0000091561435598,0.000203483385127681
1411.4421021900453,1411.4421021900453,1.0000344350548536,0.00020345189046038783
1411.4490468620802,1411.4490468620802,1.0003631305539293,0.00020352995963650753
1411.4559915339291,1411.4559915339291,1.0001521310084163,0.00020354578951546263
1411.4629362056853,1411.4629362056853,0.999759510733155,0.00020353211033671457
1411.4698808772541,1411.4698808772541,0.9998029234374091,0.0002034584676709567
1411.4768255487315,1411.4768255487315,0.9999861458297051,0.0002035304521967735
1411.4837702200214,1411.4837702200214,0.9999043933381874,0.00020351694898293658
1411.490714891032,1411.490714891032,1.000209709022845,0.00020357496908963822
1411.49765956195,1411.49765956195,0.9998256272529507,0.00020356038046059617
1411.5046042326808,1411.5046042326808,0.9999679969964497,0.00020358520459092937
1411.5115489032264,1411.5115489032264,1.0003109838983435,0.0002035797167407026
1411.5184935735847,1411.5184935735847,1.0006617292021147,0.0002035706738632152
1411.5254382439437,1411.5254382439437,1.000447890372896,0.0002036145657315209
1411.5323829140236,1411.5323829140236,0.9993917109362386,0.00020355489949578438
1411.5393275838228,1411.5393275838228,0.9996694785244298,0.0002035367241666073
1411.546272253624,1411.546272253624,0.9997151440355255,0.00020351777570449563
1411.5532169232374,1411.5532169232374,1.0003799331087992,0.0002035752484034373
1411.560161592572,1411.560161592572,0.9998089741386046,0.000203569968486871
1411.5671062619992,1411.5671062619992,1.000488172162078,0.00020360459964528977
1411.574050931054,1411.574050931054,1.0001442758716983,0.0002035792716541052
1411.5809955999232,1411.5809955999232,0.9999628551446499,0.00020353630638144667
1411.5879402686983,1411.5879402686983,1.0001246330931295,0.00020360865383317925
1411.5948849373815,1411.5948849373815,0.9998423166370906,0.00020358250313021157
1411.6018296056907,1411.6018296056907,1.000152530252194,0.00020366051752806818
1411.6087742740942,1411.6087742740942,0.9998753186929494,0.00020360342964152416
1411.615718942125,1411.615718942125,0.9998504056905686,0.00020358508031001815
1411.6226636100616,1411.6226636100616,0.9999505968026371,0.00020360013218935673
1411.6296082779068,1411.6296082779068,1.0001888456857508,0.00020366130476346476
1411.636552945471,1411.636552945471,1.0001370637162823,0.0002036487416841207
1411.643497612943,1411.643497612943,0.9997905240849846,0.00020359093506599658
1411.6504422803216,1411.6504422803216,0.9995759908397996,0.0002035673285504972
1411.6573869474205,1411.6573869474205,1.0001996393319192,0.000203626554887705
1411.6643316144273,1411.6643316144273,0.999766198407492,0.00020360260491473383
1411.6712762812463,1411.6712762812463,1.000050977845158,0.00020359755192128387
1411.6782209478806,1411.6782209478806,1.0003662099393695,0.00020362282511051272
1411.6851656143276,1411.6851656143276,1.0002614290693752,0.00020356023924826544
1411.6921102805888,1411.6921102805888,0.9999072358929345,0.00020361754727198943
1411.6990549468503,1411.6990549468503,1.0002471108123685,0.0002036153362746507
1411.7059996129242,1411.7059996129242,0.9998687725904384,0.00020353167925451872
1411.7129442787204,1411.7129442787204,0.9997743049162849,0.0002035515979466655
1411.719888944422,1411.719888944422,1.0000937582984837,0.0002036161571852546
1411.7268336098448,1411.7268336098448,1.0000410868475849,0.00020363258099659158
1411.733778275268,1411.733778275268,0.9997274030334466,0.00020360959972449784
1411.7407229405976,1411.7407229405976,1.0002445005732052,0.00020360428966896557
1411.747667605555,1411.747667605555,1.0000229227275246,0.00020362641505803752
1411.754612270419,1411.754612270419,0.999852777364603,0.00020363061319372578
1411.761556935097,1411.761556935097,0.9998368993573085,0.000203650760267059
1411.7685015997745,1411.7685015997745,0.9999870968739849,0.0002036889459195148
1411.7754462641728,1411.7754462641728,0.9998500720227252,0.00020360445621036964
1411.7823909284784,1411.7823909284784,0.9999613001936346,0.00020368155802917941
1411.7893355924105,1411.7893355924105,1.0003513205004473,0.00020369211520310945
1411.796280256344,1411.796280256344,1.0004224243563173,0.00020369594718084417
1411.8032249202763,1411.8032249202763,0.9996958634995805,0.0002036589463822207
1411.8101695838366,1411.8101695838366,0.999956229628215,0.00020363699591553517
1411.817114247304,1411.817114247304,1.0000534798620992,0.00020366064142306843
1411.824058910584,1411.824058910584,0.9996294777168945,0.00020362349673769
1411.8310035737727,1411.8310035737727,1.0001235657970464,0.00020367952189460117
1411.8379482367734,1411.8379482367734,0.9999742787440843,0.00020363123858694451
1411.844892899589,1411.844892899589,1.0001120962968746,0.00020364906315326444
1411.851837562311,1411.851837562311,1.000389249962257,0.0002037203455329505
1411.8587822247532,1411.8587822247532,0.9998892611402368,0.00020368812495567
1411.8657268871034,1411.8657268871034,1.0000606470662698,0.00020367053076940012
1411.872671549359,1411.872671549359,0.9997643748230866,0.00020365030117944945
1411.8796162114295,1411.8796162114295,0.9996833848372331,0.0002036446899361834
1411.8865608733133,1411.8865608733133,0.9996228319320808,0.00020361484349037473
1411.8935055351042,1411.8935055351042,1.0007437900739007,0.00020375998094909254
1411.9004501967088,1411.9004501967088,0.9999390472559242,0.0002036941333857797
1411.9073948580335,1411.9073948580335,0.999913096700975,0.0002036466911915296
1411.9143395193587,1411.9143395193587,1.000141683463329,0.00020369449775609134
1411.9212841804042,1411.9212841804042,1.0001443899584537,0.0002036388661258119
1411.9282288414502,1411.9282288414502,1.0001417677930102,0.00020370876342536197
1411.935173502216,1411.935173502216,0.9998969772312574,0.00020368384788902962
1411.9421181628893,1411.9421181628893,0.9998894850179884,0.00020367208478060393
1411.9490628233762,1411.9490628233762,0.9997459849519303,0.00020365425644412342
1411.9560074837696,1411.9560074837696,1.0000751383102902,0.0002037326962701297
1411.9629521439776,1411.9629521439776,1.0001072910951398,0.00020373859310791892
1411.9698968040911,1411.9698968040911,1.0001761399151587,0.00020369708890473093
1411.9768414639268,1411.9768414639268,0.9998243842673773,0.0002036715404684058
1411.9837861236683,1411.9837861236683,1.0000863350594864,0.0002036837880148678
1411.9907307831306,1411.9907307831306,0.9998889090384925,0.00020367066890707028
1411.9976754427798,1411.9976754427798,0.9999975532174439,0.00020365077881510552
1412.0046201021482,1412.0046201021482,1.0005834595880163,0.00020376668455320416
1412.0115647609596,1412.0115647609596,1.0000241498787856,0.00020367864333887766
1412.018509420049,1412.018509420049,0.999985414105811,0.00020369122912989473
1412.0254540788596,1412.0254540788596,0.9998135983678719,0.000203679980864928
1412.0323987375768,1412.0323987375768,0.9997043267276876,0.00020366163899340886
1412.0393433960144,1412.0393433960144,0.999949253680982,0.00020362581397614715
1412.0462880544528,1412.0462880544528,1.000041860110109,0.00020363052667562333
1412.0532327127976,1412.0532327127976,0.9998076194578441,0.00020361076840138653
1412.0601773707701,1412.0601773707701,1.0001837887653948,0.000203669512855642
1412.067122028742,1412.067122028742,1.0005728895433597,0.00020373931274480034
1412.0740666865286,1412.0740666865286,0.9999056642905743,0.00020371252683387483
1412.081011344128,1412.081011344128,0.9998673738826289,0.0002036844851111602
1412.0879560016347,1412.0879560016347,0.999658964730585,0.00020359849782284746
1412.0949006588621,1412.0949006588621,1.0000113284459051,0.00020365350452260242
1412.1018453161817,1412.1018453161817,0.9999911389660243,0.0002036697527348857
1412.1087899731303,1412.1087899731303,1.000038777330902,0.0002036946631816234
1412.1157346300774,1412.1157346300774,0.999990173339028,0.00020368349835839903
1412.1226792867462,1412.1226792867462,1.0001222121966662,0.00020370549561670104
1412.1296239433213,1412.1296239433213,1.0002446887259837,0.00020366639762010185
1412.1365685998037,1412.1365685998037,0.9999348610730626,0.00020367001371995888
1412.1435132560068,1412.1435132560068,1.0006543355145403,0.0002036949154847777
1412.150457912209,1412.150457912209,0.9999937725571136,0.00020363800127272806
1412.157402568133,1412.157402568133,0.9999580893548359,0.00020365512294287093
1412.1643472239627,1412.1643472239627,0.9997530214847382,0.00020369188904171865
1412.1712918797,1412.1712918797,1.0001836340504422,0.00020369643367417977
1412.178236535344,1412.178236535344,0.9998651681618604,0.00020368956612341034
1412.1851811907086,1412.1851811907086,1.0003601760198686,0.00020375093604475626
1412.1921258459802,1412.1921258459802,1.000117196637834,0.00020374035292577736
1412.1990705010653,1412.1990705010653,0.9998562439357104,0.00020369565247560883
1412.2060151559647,1412.2060151559647,1.0003030336601162,0.0002037719228512088
1412.2129598109561,1412.2129598109561,0.9996346571129615,0.00020370680955573585
1412.2199044656693,1412.2199044656693,0.9997308582249449,0.00020369539696900798
1412.2268491201025,1412.2268491201025,0.9995759150215907,0.0002036763061018947
1412.2337937744426,1412.2337937744426,1.0003265955646856,0.00020377484939793455
1412.2407384286896,1412.2407384286896,1.0002889546059537,0.00020370615549676624
1412.247683082843,1412.247683082843,0.9995745792216197,0.00020364559290816827
1412.2551833090877,1412.2551833090877,1.0001549731903534,0.00020365235006198783
1412.2637946796979,1412.2637946796979,1.0003180004662497,0.0002034748875354582
1412.2735171946756,1412.2735171946756,1.0001180507514114,0.00020352782232602515
1412.284350853926,1412.284350853926,1.0000051610279055,0.00020350369127247438
1412.293517796254,1412.293517796254,1.0003244452601634,0.0002035201702985928
1412.3004624491973,1412.3004624491973,0.9997228988990312,0.00020363590862801728
1412.3074071020474,1412.3074071020474,0.9996628477631594,0.00020359980791119408
1412.314351754804,1412.314351754804,1.000173715908843,0.0002036443202078752
1412.321296407282,1412.321296407282,0.9997982618492317,0.0002036983840548279
1412.3282410595725,1412.3282410595725,0.9999690676342526,0.00020356149506691438
1412.3351857118644,1412.3351857118644,0.9999977451668192,0.0002036904286531198
1412.3421303641553,1412.3421303641553,1.0001781928260858,0.00020368329282311409
1412.3490750161675,1412.3490750161675,1.0000935871131185,0.0002036508936462462
1412.356019668086,1412.356019668086,1.000251078092948,0.00020358195277463196
1412.3629643198185,1412.3629643198185,1.0000517301112761,0.0002035831751989995
1412.3699089712713,1412.3699089712713,0.9999729007411895,0.0002036334251866722
1412.3768536228176,1412.3768536228176,0.999724456317011,0.00020369172607806948
1412.3837982740847,1412.3837982740847,1.0003565086843937,0.0002037201922077583
1412.3907429251647,1412.3907429251647,1.0003405796662284,0.00020374894059006912
1412.3976875762457,1412.3976875762457,1.000007897187746,0.00020371863300246504
1412.4046322271395,1412.4046322271395,0.9995612057934267,0.00020362230031046436
1412.411576877941,1412.411576877941,0.9997710257775527,0.00020366726364996613
1412.4185215284629,1412.4185215284629,1.0004683012327575,0.00020355354801935714
1412.4254661788907,1412.4254661788907,1.0001662780612224,0.00020369602931128724
1412.432410829227,1412.432410829227,0.9996524358842425,0.00020370539719303266
1412.4393554794688,1412.4393554794688,1.0005079316344454,0.00020373893085363494
1412.446300129432,1412.446300129432,1.0003572591071461,0.00020366944211606388
1412.453244779395,1412.453244779395,1.0000435648660524,0.00020365750467307353
1412.4601894290781,1412.4601894290781,0.999849946146935,0.00020359338218471664
1412.4671340786686,1412.4671340786686,0.9999057311188491,0.0002035493657954319
1412.4740787281658,1412.4740787281658,0.9998190228744483,0.00020354997567806698
1412.4810233775702,1412.4810233775702,1.0002498150967352,0.00020350757270300182
1412.4879680266945,1412.4879680266945,0.9998523698950941,0.00020365148585935162
1412.4949126758197,1412.4949126758197,0.9999105224824602,0.0002036696150073316
1412.5018573246646,1412.5018573246646,1.0002572779076995,0.0002036054540635719
1412.5088019734176,1412.5088019734176,1.000368532111851,0.00020370202252951202
1412.5157466221694,1412.5157466221694,0.9998109101424213,0.00020364638517039502
1412.522691270642,1412.522691270642,0.999860504790897,0.00020368944382556788
1412.529635919022,1412.529635919022,1.0000850997989466,0.00020373163753435332
1412.5365805672147,1412.5365805672147,0.9998085644497914,0.00020367150952824408
1412.5435252154089,1412.5435252154089,0.9999806395382198,0.00020369374262520562
1412.5504698634154,1412.5504698634154,0.9999560610284892,0.0002036858199732791
1412.557414511144,1412.557414511144,1.0002175874304666,0.00020373131919996314
1412.5643591587782,1412.5643591587782,0.9997696513344847,0.00020368782605690764
1412.5713038064127,1412.5713038064127,1.0001307012786032,0.00020371280362919503
1412.5782484538613,1412.5782484538613,0.9997785753805257,0.0002037150737185784
1412.5851931011234,1412.5851931011234,1.0001064931483383,0.0002037159973642427
1412.5921377481995,1412.5921377481995,0.999978090478978,0.0002037140890602836
1412.5990823952748,1412.5990823952748,1.000090280117289,0.00020370086660779452
1412.606027042072,1412.606027042072,1.0002230167423725,0.00020369690963359163
1412.6129716888677,1412.6129716888677,0.9999812609059674,0.00020370048194604467
1412.6199163355716,1412.6199163355716,0.9996850041460036,0.0002036496922009873
1412.626860981995,1412.626860981995,1.000026218398423,0.00020362340996956855
1412.6338056282325,1412.6338056282325,1.0000646708776337,0.00020360805478651382
1412.6407502745637,1412.6407502745637,1.0003732701950836,0.00020375832552129474
1412.6476949205214,1412.6476949205214,1.0000335564881557,0.0002037072044215989
1412.6546395664805,1412.6546395664805,0.9998297709900669,0.00020371587018178086
1412.661584212252,1412.661584212252,0.9999980915789198,0.00020370071085284484
1412.668528857931,1412.668528857931,0.9999747831390581,0.00020375010854991018
1412.6754735035167,1412.6754735035167,0.9996172349669766,0.00020368248584817637
1412.6824181490094,1412.6824181490094,1.000014123198321,0.0002035940997575742
1412.6893627943155,1412.6893627943155,1.0002369926558008,0.0002036541782912074
