time,time,flux,flux_err
1437.9964629240794,1437.9964629240794,1.000043252954778,0.00016693120506682994
1438.004796418005,1438.004796418005,0.9998824270665266,0.00016679465774101473
1438.0131299122993,1438.0131299122993,1.0001745698266478,0.00016669133604246624
1438.0207689490283,1438.0207689490283,0.9999130679830334,0.00015207779806783838
1438.0277135280255,1438.0277135280255,0.9997654392031998,0.00015199218644198326
1438.034658107325,1438.034658107325,1.000120494018455,0.00015192879219465873
1438.0416026868113,1438.0416026868113,1.0001461043260402,0.00015185692616339906
1438.0485472665534,1438.0485472665534,1.000395336684552,0.00015179488621390713
1438.0554918464582,1438.0554918464582,0.9999312446960802,0.00015169623038104423
1438.0624364265732,1438.0624364265732,0.9998124376394173,0.00015161820863421376
1438.0693810068972,1438.0693810068972,0.9999327574264416,0.00015154254643189253
1438.0763255874308,1438.0763255874308,0.9998136130991728,0.00015149819473179885
1438.0832701681509,1438.0832701681509,1.0001017708981785,0.0001514415106993788
1438.0902147491038,1438.0902147491038,0.999991024515127,0.00015136785177473054
1438.0971593301965,1438.0971593301965,1.0000733025856121,0.0001513275012048132
1438.1041039114984,1438.1041039114984,1.0001307747265262,0.0001512601490466741
1438.1110484929866,1438.1110484929866,1.0001514840543944,0.00015123681801374055
1438.1179930746614,1438.1179930746614,0.9999880057221479,0.00015115055866785868
1438.1249376564988,1438.1249376564988,0.9999597356054728,0.00015110938074074863
1438.1318822385228,1438.1318822385228,0.9999435591781543,0.00015105286053181198
1438.1388268207097,1438.1388268207097,0.9998834705204371,0.00015100081093142676
1438.1457714030826,1438.1457714030826,0.9999738259625023,0.00015095225405382747
1438.1527159855957,1438.1527159855957,1.000004900327762,0.00015088732859756763
1438.1596605682946,1438.1596605682946,1.0001012506406923,0.0001508535195555496
1438.1666051511563,1438.1666051511563,1.0001955633467055,0.00015083179926752205
1438.1735497341583,1438.1735497341583,0.9998926532205248,0.00015077520883618767
1438.1804943173233,1438.1804943173233,0.9998432218988713,0.00015070429511139123
1438.187438900651,1438.187438900651,0.9998363274781947,0.00015063970797094954
1438.1943834841418,1438.1943834841418,0.9997383712882717,0.00015061646990619797
1438.2013280677486,1438.2013280677486,1.0000646280994974,0.00015056721279359353
1438.2082726514723,1438.2082726514723,1.0002785799963658,0.0001505600382042645
1438.215217235382,1438.215217235382,1.0001214857794225,0.00015051984944354269
1438.2221618194078,1438.2221618194078,1.000289251166982,0.00015048421536368188
1438.2291064035744,1438.2291064035744,1.0001019433075307,0.00015043543391107903
1438.2360509878795,1438.2360509878795,0.9998502147839268,0.00015039960776392104
1438.242995572325,1438.242995572325,0.9999858612406808,0.00015036555205628398
1438.2499401568637,1438.2499401568637,0.9995433495505008,0.0001503219335170121
1438.2568847415182,1438.2568847415182,0.99991562345457,0.0001503020129595562
1438.2638293263594,1438.2638293263594,1.000112117512266,0.00015029637896436446
1438.2707739112705,1438.2707739112705,0.9999404951669773,0.00015027733024981237
1438.2777184963206,1438.2777184963206,1.000043002793495,0.00015026867779590074
1438.284663081465,1438.284663081465,1.000043182429822,0.00015025406754203132
1438.2916076667484,1438.2916076667484,1.000460708510061,0.00015026641491366156
1438.298552252125,1438.298552252125,0.999820240363033,0.00015019243514575735
1438.305496837618,1438.305496837618,0.9998208131223164,0.00015016790475779525
1438.3124414231809,1438.3124414231809,0.999965810077833,0.00015015069750638966
1438.319386008907,1438.319386008907,0.9998719415885031,0.00015016664190050237
1438.3263305947025,1438.3263305947025,0.9999603491780306,0.0001501429420917731
1438.3332751806142,1438.3332751806142,1.0002529838761145,0.00015011954999931843
1438.3402197665964,1438.3402197665964,1.0002059834870036,0.0001501454851663933
1438.3471643526716,1438.3471643526716,1.0000638114405922,0.00015009104253018373
1438.3541089388632,1438.3541089388632,0.9997634417950747,0.0001500690462700579
1438.3610535251246,1438.3610535251246,1.000465569504942,0.00015009566113379782
1438.3679981115024,1438.3679981115024,0.9998104005683774,0.00015001247649127904
1438.3749426979734,1438.3749426979734,0.999855256343251,0.00015005142533371305
1438.3818872844909,1438.3818872844909,1.0000736287353669,0.0001500272055228367
1438.3888318711013,1438.3888318711013,1.0000144057775033,0.00015000328556497353
1438.3957764578056,1438.3957764578056,0.9998673562486529,0.0001499735223406586
1438.402721044602,1438.402721044602,0.9999091969735868,0.0001499673416776246
1438.4096656314225,1438.4096656314225,1.0000438690399154,0.00014992369785935344
1438.4166102183588,1438.4166102183588,1.0000461520220674,0.00014992841958918763
1438.4235548053418,1438.4235548053418,1.0001501688220515,0.0001499425857784906
1438.4304993924416,1438.4304993924416,1.000062443177269,0.00014992671143675102
1438.4374439795643,1438.4374439795643,1.0002294146307453,0.00014995974364928407
1438.4443885668038,1438.4443885668038,0.9999661843882066,0.00014995809719472344
1438.4513331540898,1438.4513331540898,0.999609690118529,0.00014990309568438577
1438.458277741422,1438.458277741422,1.0000835688353016,0.00014992011541126342
1438.4652223288476,1438.4652223288476,0.9999195051086358,0.0001499024340995281
1438.472166916296,1438.472166916296,0.999833691383421,0.00014990996623302154
1438.4791115038383,1438.4791115038383,1.0001506526115487,0.00014991548711217317
1438.4860560914499,1438.4860560914499,0.9999597428198556,0.00014988685728010333
1438.4930006790385,1438.4930006790385,1.0003435410356245,0.00014990136692411932
1438.49994526679,1438.49994526679,1.0001089619814256,0.00014995787667403847
1438.5068898545182,1438.5068898545182,0.9999264801062132,0.00014991912346498684
1438.5138344423394,1438.5138344423394,0.9996862454734365,0.00014990801588612355
1438.5207790302074,1438.5207790302074,0.9997611968879347,0.00014988677352117244
1438.527723618099,1438.527723618099,1.000043125119546,0.0001499558605405066
1438.5346682060597,1438.5346682060597,1.0002351219757524,0.00014990141534966837
1438.5416127940673,1438.5416127940673,0.9998969006125019,0.00014989479215831244
1438.5485573821447,1438.5485573821447,0.9999976963484742,0.00014992951594304852
1438.5555019702222,1438.5555019702222,1.0009443249215533,0.00014996899442269363
1438.5624465583694,1438.5624465583694,1.0000256103163971,0.00014991966860302937
1438.56939114654,1438.56939114654,1.0002604037720393,0.00014993241796649225
1438.5763357348037,1438.5763357348037,0.9998209902548487,0.0001499109971832571
1438.5832803230674,1438.5832803230674,0.9998552810183305,0.000149905354524176
1438.5902249113315,1438.5902249113315,0.9998490850856534,0.00014991828055844618
1438.5971694996651,1438.5971694996651,0.9998975294134503,0.00014991926331741652
1438.6041140880218,1438.6041140880218,1.0000255764260841,0.00014992014122333882
1438.6110586764255,1438.6110586764255,1.000178648693411,0.00014991129092695377
1438.618003264852,1438.618003264852,1.0000297360791932,0.0001498605388679788
1438.6249478533487,1438.6249478533487,0.9998947734657475,0.0001499301836697523
1438.631892441845,1438.631892441845,1.000236370470085,0.00014995124392255745
1438.6388370303646,1438.6388370303646,0.9999589261725685,0.00014991665876538826
1438.6457816189313,1438.6457816189313,0.9998550420963636,0.0001499271292897091
1438.652726207521,1438.652726207521,0.9997273008318232,0.00014992523977800564
1438.6596707961342,1438.6596707961342,1.0001660602442533,0.00014994295337697998
1438.666615384747,1438.666615384747,1.0002968838325303,0.0001499536150411351
1438.6735599734534,1438.6735599734534,0.9998594488472907,0.00014988222052586596
1438.6805045621127,1438.6805045621127,0.9997968728418828,0.0001499073447351038
1438.687449150842,1438.687449150842,1.0000495587302778,0.0001499260528857034
1438.6943937395713,1438.6943937395713,1.000010049446335,0.00014991387237023703
1438.701338328324,1438.701338328324,1.0000868602383401,0.00014990583993983175
1438.7082829170768,1438.7082829170768,0.9997867629109983,0.00014989580722516625
1438.7152275058993,1438.7152275058993,1.0002668330011903,0.00014990947461423094
1438.7221720947218,1438.7221720947218,1.000053586854657,0.00014991302925491327
1438.7291166834746,1438.7291166834746,1.000050691671858,0.00014992782089685768
1438.73606127232,1438.73606127232,1.000037886464588,0.00014991860077151774
1438.7430058611894,1438.7430058611894,1.0000116121119127,0.00014991567325465014
1438.749950450128,1438.749950450128,0.9996970647137866,0.00014991651572595225
1438.756895038974,1438.756895038974,0.9999491736689204,0.0001498976475365554
1438.7638396278667,1438.7638396278667,0.9999507721723969,0.0001498558363027303
1438.7707842167822,1438.7707842167822,1.0001314483028394,0.00014979693680576615
1438.7777288057212,1438.7777288057212,1.0002760610090184,0.0001499169737557239
1438.7846733946367,1438.7846733946367,0.9999578391212879,0.0001499398489744415
1438.7916179835759,1438.7916179835759,1.0000633827600158,0.00014994361363061392
1438.7985625725146,1438.7985625725146,0.9999236562393872,0.0001499162028026334
1438.8055071614767,1438.8055071614767,0.9999067826800712,0.00014991688466916994
1438.812451750439,1438.812451750439,0.9996392853468408,0.0001499231092840377
1438.8193963394249,1438.8193963394249,1.0000850231412215,0.00014993018039734192
1438.8263409283868,1438.8263409283868,1.0001762506582608,0.00014993088237680291
1438.8332855173726,1438.8332855173726,0.9999587690392641,0.0001498636396940429
1438.840230106358,1438.840230106358,1.0001327194942198,0.0001498629624450439
1438.8471746953433,1438.8471746953433,1.0000258378537104,0.00014989420306582956
1438.8541192843525,1438.8541192843525,1.0001020054433785,0.00014992594760381326
1438.8610638733376,1438.8610638733376,0.9996796768988705,0.00014987421472979545
1438.8680084623234,1438.8680084623234,0.9999218784010212,0.00014990086508819827
1438.874953051332,1438.874953051332,1.0000531660615744,0.00014990299232926714
1438.8818976403409,1438.8818976403409,0.9998789467366551,0.0001498601150647916
1438.8888422293264,1438.8888422293264,1.0002771498504681,0.00014984914299179776
1438.8957868183118,1438.8957868183118,0.9999838337956403,0.0001497930332891817
1438.9027314073205,1438.9027314073205,1.000150837880411,0.0001498880135124329
1438.9096759963063,1438.9096759963063,1.0001062566957537,0.00014989590073550318
1438.9166205852916,1438.9166205852916,1.0000381914836742,0.00014986370486728303
1438.9235651742772,1438.9235651742772,0.9998129905885422,0.00014988581130740404
1438.9305097632864,1438.9305097632864,1.0000163075985344,0.00014987981512001153
1438.937454352248,1438.937454352248,0.9998160931842758,0.00014989679929473153
1438.944398941234,1438.944398941234,0.9999481112371139,0.0001498816689888817
1438.9513435301958,1438.9513435301958,1.0000146265737366,0.00014990249650333374
1438.9582881191582,1438.9582881191582,0.9999667284448165,0.0001498160221182179
1438.9652327080971,1438.9652327080971,1.000139438163623,0.00014991355438532514
1438.9721772970595,1438.9721772970595,1.0000186916968432,0.00014991208936569674
1438.9791218859987,1438.9791218859987,1.0002592043707486,0.0001499357998249823
1438.9860664749372,1438.9860664749372,0.9998873536202805,0.00014990679441485714
1438.993011063853,1438.993011063853,0.9997926439031589,0.0001499024684964879
1438.9999556527687,1438.9999556527687,1.0000216004283327,0.00014990744685798918
1439.0069002416612,1439.0069002416612,0.9999631423365056,0.00014991561082640742
1439.0138448305765,1439.0138448305765,0.9998978539155537,0.0001498533778951387
1439.0207894194227,1439.0207894194227,1.0000156756804055,0.00014989530993076745
1439.027734008315,1439.027734008315,1.0000273097080976,0.00014990361933417282
1439.0346785972308,1439.0346785972308,1.0003304835496223,0.00014990408455975955
1439.0416231860768,1439.0416231860768,0.9998551952400435,0.0001498908296323873
1439.048567774922,1439.048567774922,1.0001287816556044,0.00014989663866191947
1439.0555123636518,1439.0555123636518,0.9998635930114812,0.00014991626941779796
1439.0624569524975,1439.0624569524975,1.0000108707136164,0.00014989713230898678
1439.06940154132,1439.06940154132,1.000127195870505,0.0001499305199134985
1439.0763461300726,1439.0763461300726,0.9998122129126722,0.00014989001832126434
1439.0832907188487,1439.0832907188487,0.9998885788259182,0.00014990584408495244
1439.0902353076249,1439.0902353076249,1.000092910231214,0.00014990679580628876
1439.0971798963542,1439.0971798963542,0.9997495552666354,0.00014990256650393782
1439.1041244850835,1439.1041244850835,1.0001712964895446,0.00014990437924802016
1439.11106907379,1439.11106907379,1.0000791255319457,0.0001499176194664341
1439.1180136624723,1439.1180136624723,1.0001171009786003,0.00014986792546972135
1439.1249582511323,1439.1249582511323,0.9999529651293286,0.00014986590207170363
1439.1319028397916,1439.1319028397916,1.0000842712873077,0.00014988505001442104
1439.1388474284513,1439.1388474284513,0.9999237748635033,0.00014991551229809224
1439.1457920170647,1439.1457920170647,0.9999870429203852,0.00014991593123418837
1439.152736605654,1439.152736605654,0.9999918867157916,0.00014985974524770932
1439.1596811942668,1439.1596811942668,1.0000831490619224,0.00014991250371342564
1439.1666257828333,1439.1666257828333,0.9997617378424952,0.00014985976111294404
1439.1735703713764,1439.1735703713764,1.0001073725470628,0.00014986930511376199
1439.1805149598729,1439.1805149598729,0.9998719788598562,0.00014990646879808263
1439.1874595483928,1439.1874595483928,1.0000565230482892,0.00014984206758213397
1439.1944041368895,1439.1944041368895,1.0001399288178467,0.0001498753685268438
1439.2013487253398,1439.2013487253398,1.0001080444468908,0.0001499250298969556
1439.2082933137895,1439.2082933137895,0.9998931965616163,0.0001499098641255478
1439.2152379021927,1439.2152379021927,0.9998555132939249,0.00014991211237694289
1439.2221824906198,1439.2221824906198,1.000123102341655,0.0001499086954324156
1439.2291270789767,1439.2291270789767,0.9999774339890346,0.00014988848840186483
1439.2360716673568,1439.2360716673568,0.9998096793092504,0.00014986001352252563
1439.2430162556907,1439.2430162556907,1.0001029249707019,0.0001499215701308871
1439.2499608440007,1439.2499608440007,1.000146315983656,0.00014992091534027265
1439.2569054322646,1439.2569054322646,1.0000204108191095,0.00014992801196693834
1439.2638500205283,1439.2638500205283,1.0000773676733423,0.00014991885982770087
1439.2707946087917,1439.2707946087917,0.9999886982783842,0.0001498897644218438
1439.2777391970092,1439.2777391970092,0.9998078579442324,0.00014988602869651582
1439.2846837852028,1439.2846837852028,1.0001209516741565,0.000149900580208555
1439.2916283733737,1439.2916283733737,0.9998042261577433,0.00014990395381070458
1439.2985729615207,1439.2985729615207,0.9999160726623071,0.00014988344484358917
1439.3055175496215,1439.3055175496215,1.0001162704384583,0.0001498719766193319
1439.3124621377226,1439.3124621377226,1.0001571372274989,0.0001499200961673915
1439.3194067257768,1439.3194067257768,0.9999842633207201,0.00014986381084872182
1439.3263513138309,1439.3263513138309,1.0000796047821674,0.00014987450787008397
1439.3332959018621,1439.3332959018621,0.9999222468900637,0.00014989485297909596
1439.340240489823,1439.340240489823,0.9998389032026684,0.00014987946842833562
1439.3471850778074,1439.3471850778074,0.9999844181059668,0.00014990760514991882
1439.354129665745,1439.354129665745,0.9999567719192368,0.00014988815633653967
1439.3610742536596,1439.3610742536596,1.0004646772238281,0.0001498697757062682
1439.3680188415278,1439.3680188415278,0.9999351681077024,0.00014988598191193722
1439.3749634294188,1439.3749634294188,0.9998108653407968,0.00014991473172016722
1439.38190801724,1439.38190801724,0.9998433766614564,0.0001499088526054216
1439.3888526050382,1439.3888526050382,0.9998185278708013,0.000149897121968756
1439.395797192813,1439.395797192813,1.0003153764928072,0.00014992550514386828
1439.4027417805646,1439.4027417805646,0.9999410181271754,0.00014987282779291544
1439.4096863682462,1439.4096863682462,1.0000440073010528,0.00014993887481887274
1439.416630955928,1439.416630955928,1.0000418982432282,0.00014990325424015907
1439.4235755436098,1439.4235755436098,1.0000605210991338,0.00014988278380423218
1439.4305201312682,1439.4305201312682,0.9999531032920774,0.00014989050690505232
1439.4374647188565,1439.4374647188565,0.9999594159720561,0.00014988971876188608
1439.4444093064217,1439.4444093064217,0.9998617058232782,0.00014991509530945944
1439.4513538939639,1439.4513538939639,1.000047237024512,0.0001499044683312727
1439.4582984814826,1439.4582984814826,1.0000255023675633,0.00014991518808315786
1439.4652430689546,1439.4652430689546,1.0000613165343721,0.0001499453803704625
1439.4721876564267,1439.4721876564267,1.0000339786627606,0.00014992042185211138
1439.479132243806,1439.479132243806,0.9998375616070202,0.00014987621290770884
1439.4860768312083,1439.4860768312083,1.0000262534296145,0.00014989454134560178
1439.493021418587,1439.493021418587,0.9998995599787112,0.00014990597449322717
1439.4999660059195,1439.4999660059195,1.0000238291417174,0.0001499057176588073
1439.5069105932287,1439.5069105932287,1.0001954934725021,0.00014993857115030713
1439.513855180491,1439.513855180491,1.0001213395287278,0.00014990612010594792
1439.5207997677305,1439.5207997677305,0.9999358231160963,0.00014990177186313761
1439.5277443549232,1439.5277443549232,0.9999484727873403,0.0001498893329587601
1439.5346889420928,1439.5346889420928,1.0000115172862822,0.0001499069462368286
1439.5416335291925,1439.5416335291925,1.0000683296989992,0.00014991480293419365
1439.5485781163618,1439.5485781163618,1.0000265163076816,0.00014993546565892225
1439.5555227033915,1439.5555227033915,0.9998798993254694,0.00014989132022082791
1439.5624672904912,1439.5624672904912,0.9998871729310927,0.00014989977414654455
1439.5694118774745,1439.5694118774745,1.0000589817785268,0.0001499102614986724
1439.5763564644808,1439.5763564644808,0.9999202371877323,0.0001498834394028817
1439.583301051394,1439.583301051394,0.9998937619304392,0.00014989378156098093
1439.5902456383076,1439.5902456383076,0.9998447873905695,0.00014991472475293092
1439.597190225198,1439.597190225198,1.0004066140658057,0.00014993033749910312
1439.6041348120643,1439.6041348120643,0.9998809767383781,0.00014988442116988594
1439.6110793988846,1439.6110793988846,1.000045262949324,0.00014995803036178316
1439.618023985635,1439.618023985635,0.9999899153941516,0.0001498827336072971
1439.6249685724088,1439.6249685724088,1.000241257645993,0.00014990222018480685
1439.6319131591124,1439.6319131591124,0.9999181131281734,0.00014990658887538243
1439.6388577457697,1439.6388577457697,1.0000401166718753,0.0001499147238324823
1439.645802332427,1439.645802332427,0.9998354085018738,0.0001498957969641844
1439.652746919061,1439.652746919061,1.000089629241425,0.00014991279614753417
1439.6596915055784,1439.6596915055784,1.0000563667619755,0.0001499035121390214
1439.6666360922127,1439.6666360922127,0.9999874803399796,0.0001498887036790318
1439.67358067866,1439.67358067866,0.9998427933590612,0.00014991164651674346
1439.680525265131,1439.680525265131,0.9999104468328952,0.00014986416215971693
1439.6874698515787,1439.6874698515787,0.9999130348725304,0.00014991380380462827
1439.6944144379797,1439.6944144379797,0.9999881495916908,0.00014990855192445018
1439.7013590243575,1439.7013590243575,1.00032565812926,0.0001499608338421629
1439.708303610689,1439.708303610689,1.0000803095287927,0.00014993028296945312
1439.7152481969738,1439.7152481969738,0.9998669281505181,0.00014988837532149576
1439.7221927832354,1439.7221927832354,0.9997283872931652,0.00014988225959154336
1439.7291373694732,1439.7291373694732,1.0000532891189908,0.00014989340031326004
1439.7360819556648,1439.7360819556648,0.9999335371587692,0.00014990271814313975
1439.7430265418097,1439.7430265418097,1.0002213821416859,0.00014994057511420872
