time,time,flux,flux_err
1325.2984137238602,1325.2984137238602,0.9994065218419287,0.0013633071458173133
1325.3067470863514,1325.3067470863514,0.999203483316572,0.0013653700993693427
1325.3150804491536,1325.3150804491536,1.000306226130606,0.001368436679683733
1325.3234138122464,1325.3234138122464,1.0010511414780578,0.001370877355736281
1325.331052728655,1325.331052728655,0.9998628185324335,0.0012538779347617795
1325.337997198347,1325.337997198347,1.0022244188021616,0.0012573407125744342
1325.3449416682256,1325.3449416682256,1.000310511967058,0.0012592879390086035
1325.3518861383013,1325.3518861383013,1.0007714203857494,0.0012631453394933352
1325.3588306085871,1325.3588306085871,0.9993218110503148,0.0012649992656668053
1325.3657750790476,1325.3657750790476,0.9975422312555304,0.0012681237398164062
1325.3727195497054,1325.3727195497054,0.9989966833385123,0.0012712598806504396
1325.37966402055,1325.37966402055,1.0012672297386331,0.0012753523936589188
1325.3866084915692,1325.3866084915692,0.9992679698828214,0.001278038306635873
1325.3935529627975,1325.3935529627975,1.0005823423205737,0.0012813124864658244
1325.4004974341776,1325.4004974341776,0.9974026060298875,0.0012829249644120972
1325.4074419057438,1325.4074419057438,1.002095453096008,0.001286964028984068
1325.4143863774964,1325.4143863774964,0.9995362403805835,0.0012889798172938225
1325.4213308494232,1325.4213308494232,1.0006517007792088,0.001291041670806485
1325.4282753215252,1325.4282753215252,1.0001348849005665,0.0012931869067453615
1325.4352197938015,1325.4352197938015,0.9994667714118493,0.0012952890642766825
1325.4421642662408,1325.4421642662408,0.9997184464905089,0.001297236350069763
1325.4491087388546,1325.4491087388546,0.9993687390093331,0.0012996731785717172
1325.4560532116316,1325.4560532116316,1.000641862215999,0.0013016617512632222
1325.4629976845713,1325.4629976845713,0.9981800726914475,0.0013031111409383368
1325.469942157663,1325.469942157663,0.9985226164187283,0.001305174602748962
1325.4768866309403,1325.4768866309403,1.002964497879839,0.0013087809844621893
1325.4838311043459,1325.4838311043459,0.9993803322157391,0.0013099452249447064
1325.4907755779145,1325.4907755779145,1.0000615876498744,0.001312498619900138
1325.497720051646,1325.497720051646,1.0003662419696788,0.0013150843794447788
1325.5046645255406,1325.5046645255406,1.001978398961701,0.0013184976315823466
1325.5116089995631,1325.5116089995631,0.9985289851640866,0.001319560739198516
1325.518553473772,1325.518553473772,0.9998889049185667,0.0013224784988686378
1325.5254979480856,1325.5254979480856,1.0011927629911537,0.0013258435590351178
1325.5324424225737,1325.5324424225737,0.9993166571842774,0.0013269075891092395
1325.53938689719,1325.53938689719,1.0000773484408583,0.001330445731621708
1325.5463313719463,1325.5463313719463,0.9995199116984473,0.00133348168828187
1325.5532758468648,1325.5532758468648,0.9990935261524363,0.001335495238985009
1325.5602203219005,1325.5602203219005,0.9999013858815307,0.0013389960180450206
1325.567164797099,1325.567164797099,0.9997990813862028,0.0013411924035440768
1325.574109272402,1325.574109272402,1.0023686232826485,0.0013443168867162255
1325.5810537478683,1325.5810537478683,0.9995562377031586,0.0013459801010847743
1325.5879982234503,1325.5879982234503,0.9995491319313757,0.0013472557859292396
1325.594942699173,1325.594942699173,0.9980266046336558,0.0013491495760693973
1325.6018871750116,1325.6018871750116,0.9997172712612821,0.001350878210133916
1325.60883165099,1325.60883165099,0.9998536311680082,0.0013518494635856725
1325.6157761270963,1325.6157761270963,1.0022531276981086,0.00135391180154073
1325.6227206033193,1325.6227206033193,1.0006743173956967,0.0013541821640874938
1325.6296650796935,1325.6296650796935,0.998974025435053,0.00135415424306817
1325.636609556149,1325.636609556149,1.0004184586702332,0.0013546767363693407
1325.6435540327443,1325.6435540327443,0.9975994665236939,0.0013544939945390297
1325.6504985094678,1325.6504985094678,1.0019112259654652,0.0013558311635196686
1325.6574429863074,1325.6574429863074,1.000435525918575,0.0013562288002703508
1325.6643874632523,1325.6643874632523,1.0001533871090837,0.0013562526228107206
1325.671331940313,1325.671331940313,0.9988949595392953,0.0013566024937871173
1325.6782764175023,1325.6782764175023,1.0000657301866667,0.0013572083062717356
1325.6852208947846,1325.6852208947846,1.001262840032131,0.0013585445480063765
1325.6921653721831,1325.6921653721831,0.9999947435505178,0.0013590692319190526
1325.6991098496987,1325.6991098496987,0.9984455810191694,0.001358622286948326
1325.706054327318,1325.706054327318,0.9981084291354598,0.0013599849411419956
1325.7129988050542,1325.7129988050542,1.0012147431547944,0.001362134161676498
1325.7199432828952,1325.7199432828952,1.001008578141231,0.0013632950627694303
1325.7268877608178,1325.7268877608178,1.002311641061774,0.0013652139425923808
1325.7338322388564,1325.7338322388564,0.9988167427294457,0.0013656605881240363
1325.7407767170118,1325.7407767170118,0.9999524022575761,0.001367348802354724
1325.7477211952603,1325.7477211952603,1.0002232854782824,0.0013692074712343793
1325.7546656735904,1325.7546656735904,1.0011747367933215,0.0013715311595839687
1325.7616101520366,1325.7616101520366,0.9976391710968133,0.00137223023830296
1325.768554630588,1325.768554630588,0.9994135309326116,0.0013751619408992103
1325.7754991092086,1325.7754991092086,1.0013644220939293,0.001377565209893377
1325.782443587946,1325.782443587946,0.999230674771602,0.0013790921009725723
1325.7893880667884,1325.7893880667884,0.9990392655527371,0.001380160144887775
1325.7963325456888,1325.7963325456888,1.0005358593383114,0.0013829517501370973
1325.803277024706,1325.803277024706,1.0009414294047285,0.001383681452081374
1325.8102215038039,1325.8102215038039,1.0001208511796256,0.0013844691149364687
1325.8171659829954,1325.8171659829954,0.9996578763671946,0.001386020888648009
1325.8241104622682,1325.8241104622682,1.0004771505370014,0.0013869768963892018
1325.8310549416342,1325.8310549416342,0.9975435700421549,0.0013865054737554378
1325.8379994211052,1325.8379994211052,1.0026589771553853,0.0013884404977826657
1325.8449439006224,1325.8449439006224,0.9992837696734318,0.0013873720691513728
1325.8518883802444,1325.8518883802444,0.9995102094775099,0.001387350563783306
1325.8588328599367,1325.8588328599367,0.998586281716609,0.001386062402340606
1325.8657773397335,1325.8657773397335,1.0011897788953226,0.0013862237624953483
1325.8727218196116,1325.8727218196116,1.0002892372734533,0.0013840520463340694
1325.8796662995599,1325.8796662995599,0.9995183069213726,0.0013821225120835173
1325.8866107795661,1325.8866107795661,1.0007368639719254,0.0013814288488900807
1325.893555259689,1325.893555259689,1.0020572783108328,0.0013804552015241197
1325.9004997398815,1325.9004997398815,1.00003635661222,0.0013787588030886237
1325.9074442201322,1325.9074442201322,0.9973509872260481,0.0013769620027051324
1325.9143887004643,1325.9143887004643,1.0012434057133655,0.0013770506940239493
1325.92133318089,1325.92133318089,0.9978296598246171,0.001375568474650209
1325.9282776613622,1325.9282776613622,1.0017547334735684,0.001376075125197948
1325.9352221419153,1325.9352221419153,0.9989388536145443,0.0013752996130384349
1325.9421666225385,1325.9421666225385,0.9999319666884562,0.0013748750941974881
1325.9491111032555,1325.9491111032555,1.0001561153106733,0.0013746754888458864
1325.95605558403,1325.95605558403,1.0007796060974592,0.0013747959352497752
1325.9641111818112,1325.9641111818112,1.0007379242328855,0.0013747014251962824
1325.9713334419625,1325.9713334419625,1.001233599784419,0.0013743460835978273
1325.97827792297,1325.97827792297,0.9996968143257163,0.0013744266411821588
1325.9852224040123,1325.9852224040123,0.9994460776643663,0.0013742744628083047
1325.9921668851478,1325.9921668851478,0.9978257802558256,0.0013746104693912206
1325.9991113663186,1325.9991113663186,0.9992352656340854,0.0013759394601841348
1326.0060558475936,1326.0060558475936,1.0012001798833503,0.0013779205339378476
1326.013000328904,1326.013000328904,0.9989604407164648,0.0013791782700944232
1326.0199448102842,1326.0199448102842,1.0021055488381028,0.0013816248933592856
1326.0268892917338,1326.0268892917338,1.001453160876907,0.0013839444520695598
1326.033833773242,1326.033833773242,0.9991429330321802,0.0013838447246027213
1326.0407782548077,1326.0407782548077,1.000877093713933,0.0013832802383420232
1326.0477227364445,1326.0477227364445,0.9996714887443126,0.0013834553842485236
1326.054667218115,1326.054667218115,0.9977893174083757,0.0013837553142607237
1326.0616116998797,1326.0616116998797,0.9999898490385389,0.0013848638084622902
1326.0685561816786,1326.0685561816786,1.0001619526258576,0.0013859180948423422
1326.0755006635359,1326.0755006635359,0.9971847878354531,0.0013856028618689752
1326.08244514544,1326.08244514544,0.9999880058343809,0.001386990650496563
1326.0893896274254,1326.0893896274254,1.000880925989901,0.001387865814563639
1326.0963341094575,1326.0963341094575,0.9985851849505989,0.0013874397810453335
1326.103278591548,1326.103278591548,1.00005085704757,0.0013878700933158605
1326.1102230736724,1326.1102230736724,1.0006859749011254,0.0013881005349853754
1326.1171675558676,1326.1171675558676,0.9982573177018974,0.0013877894909079267
1326.1241120381205,1326.1241120381205,0.9995033991449199,0.001388196659710341
1326.1310565204208,1326.1310565204208,1.0002837129269408,0.001388857560025101
1326.1380010027547,1326.1380010027547,1.0022732269525436,0.001389324991170352
1326.1449454851713,1326.1449454851713,0.9973142960052339,0.001388414046977806
1326.1518899676107,1326.1518899676107,1.0003565628278026,0.0013890467699234697
1326.1588344501197,1326.1588344501197,1.0009921984199557,0.0013894044960672876
1326.1657789326641,1326.1657789326641,1.0011471572033988,0.0013892650087114794
1326.1727234152663,1326.1727234152663,0.9996604192252724,0.00138869208105482
1326.1796678979156,1326.1796678979156,1.0001693433466246,0.0013893469662337777
1326.1866123806108,1326.1866123806108,0.9984935751177784,0.0013885449298101965
1326.193556863353,1326.193556863353,1.0009335598748974,0.0013896016932144328
1326.2005013461535,1326.2005013461535,0.9997985110456421,0.0013893081065579893
1326.2074458289885,1326.2074458289885,1.0009669739584983,0.001390084404990284
1326.2143903118704,1326.2143903118704,1.000086708272547,0.0013902272709459174
1326.221334794787,1326.221334794787,0.999566444069193,0.0013907727341301722
1326.2282792777737,1326.2282792777737,1.0001009969370434,0.0013911431156179532
1326.2352237607715,1326.2352237607715,0.9996836278270738,0.0013912230034330447
1326.2421682438394,1326.2421682438394,1.000796881703685,0.0013915593385076036
1326.2491127269316,1326.2491127269316,0.9964106691685235,0.0013904630117770231
1326.2560572100806,1326.2560572100806,0.9988233699940208,0.0013912461454100872
1326.2630016932653,1326.2630016932653,0.9995731508214982,0.0013916202591703552
1326.2699461764964,1326.2699461764964,1.0007406432354045,0.0013921795949464564
1326.2768906597507,1326.2768906597507,1.0009613956502785,0.0013927509063893075
1326.283835143075,1326.283835143075,0.9994661417885972,0.0013923229369061164
1326.2907796264221,1326.2907796264221,1.0022382822802054,0.0013934647367227558
1326.2977241098165,1326.2977241098165,0.99932767224874,0.0013935283861389231
1326.3046685932334,1326.3046685932334,1.0002146512034271,0.0013944406825083307
1326.3116130766975,1326.3116130766975,0.9997452111560584,0.0013948318924093717
1326.3185575602079,1326.3185575602079,0.9988762022927918,0.0013956309832280237
1326.3255020437532,1326.3255020437532,0.9996534182006513,0.0013968646906345234
1326.3324465273336,1326.3324465273336,1.0004631583251395,0.0013985675752354997
1326.339391010937,1326.339391010937,0.9990525820078655,0.0013997738685710072
1326.3474466120012,1326.3474466120012,1.000788949159697,0.0014019618232468394
1326.3560577717833,1326.3560577717833,1.0008889215245085,0.0014045592916816533
1326.3630022555153,1326.3630022555153,1.0013133880580019,0.0014059230247932017
1326.3699467392933,1326.3699467392933,1.0006162046039475,0.0014077539088647297
1326.3768912230948,1326.3768912230948,0.9991537521644336,0.001408425990074704
1326.3838357069428,1326.3838357069428,0.9999828052069957,0.0014102347814725453
1326.3907801908258,1326.3907801908258,0.9986068229786392,0.0014116790075372134
1326.397724674744,1326.397724674744,0.9982792430000273,0.0014132036552462457
1326.4046691586848,1326.4046691586848,1.000442032981729,0.0014154974993696367
1326.4116136426733,1326.4116136426733,0.9993871131721157,0.0014170965352040448
1326.418558126672,1326.418558126672,1.000546100756101,0.0014183705092418522
1326.425502610718,1326.425502610718,1.001807399273406,0.0014207627221745679
1326.4324470947872,1326.4324470947872,1.0015358846276037,0.0014222267619515966
1326.439391578903,1326.439391578903,0.998100953020146,0.0014224759728044566
1326.4463360630305,1326.4463360630305,0.9999529488773315,0.0014249231213095985
1326.4532805472045,1326.4532805472045,1.0000165494556217,0.0014264977181679527
1326.460225031402,1326.460225031402,0.9995264400569871,0.0014280532649921121
1326.467169515634,1326.467169515634,1.001414271287759,0.0014302423386828623
1326.4741139998775,1326.4741139998775,0.9987019899776225,0.0014313164593941015
1326.4810584841803,1326.4810584841803,1.0007310643059235,0.0014338080196825758
1326.4880029684934,1326.4880029684934,1.0003725236441714,0.0014358415619081743
1326.4949474528426,1326.4949474528426,1.000233637475139,0.0014372048149848952
1326.5018919372137,1326.5018919372137,0.9983930778284605,0.0014385608508490635
1326.5088364216329,1326.5088364216329,0.9990616170146343,0.0014402991269178603
1326.515780906051,1326.515780906051,0.9998318279213507,0.0014422473549709062
1326.522725390493,1326.522725390493,1.0012161100464638,0.0014452410747295928
1326.5296698749812,1326.5296698749812,1.0011822488292772,0.0014478321908100516
1326.5366143595043,1326.5366143595043,0.9991934196513398,0.001449377691663406
1326.543558844028,1326.543558844028,1.0012100876496919,0.0014527696493607891
1326.5505033285976,1326.5505033285976,0.9998497925546095,0.0014549427714245261
1326.5574478131791,1326.5574478131791,0.9988397848677646,0.0014572423076656851
1326.5643922977954,1326.5643922977954,1.0002189326872435,0.0014578609349456411
1326.571336782435,1326.571336782435,0.9993793147108366,0.0014596583422025133
1326.5782812670982,1326.5782812670982,1.0007731518569638,0.0014612857276091755
1326.5852257518075,1326.5852257518075,1.0019693422600822,0.0014635632812032273
1326.5921702365172,1326.5921702365172,0.9992352690665441,0.0014649396773652283
1326.5991147212383,1326.5991147212383,0.9996385170910242,0.0014663467691181183
1326.606059206006,1326.606059206006,0.9972670352427631,0.0014670442379354145
1326.6130036907973,1326.6130036907973,0.9985877650369159,0.001468506790335032
1326.619948175611,1326.619948175611,1.0029427779932536,0.0014715059827552644
1326.6268926604257,1326.6268926604257,1.0012634589828533,0.001471735011976994
1326.6338371452862,1326.6338371452862,1.0005142794364221,0.0014731608702349085
1326.6407816301707,1326.6407816301707,0.9997355013505042,0.0014731106396131794
1326.6477261150665,1326.6477261150665,0.998891064835332,0.0014729552977935773
1326.6546705999972,1326.6546705999972,1.001234026661744,0.0014734322576326702
1326.6616150849395,1326.6616150849395,0.9993048748643686,0.00147276299738983
1326.6685595698932,1326.6685595698932,0.9991034075692771,0.0014718684262622003
1326.6755040548942,1326.6755040548942,0.9977241284946977,0.001471197751858448
1326.6824485398943,1326.6824485398943,0.9975652118693867,0.0014701036515166442
1326.6907819219418,1326.6907819219418,1.0020086972612874,0.0014707966818159174
1326.6977264069887,1326.6977264069887,0.9994402064728751,0.001469161153395747
1326.704670892071,1326.704670892071,1.0034104312047478,0.0014693985535002203
1326.7124487153765,1326.7124487153765,1.0020165685842033,0.0014678013467268232
1326.7199487592939,1326.7199487592939,0.9988170725533811,0.0014660495821172484
1326.7268932444335,1326.7268932444335,1.000455025785433,0.001465498646626096
1326.733837729597,1326.733837729597,0.9995611421052815,0.0014652712142135494
1326.7407822147727,1326.7407822147727,1.0005737297293529,0.0014646751300574318
1326.7477266999708,1326.7477266999708,0.9983637521978975,0.0014640289137774355
1326.7546711851924,1326.7546711851924,0.9991728208927533,0.0014639590741680772
1326.7616156704141,1326.7616156704141,1.0003763060456585,0.0014641127293549476
1326.7685601556593,1326.7685601556593,0.9998535353277991,0.0014644782951915988
1326.775504640939,1326.775504640939,1.001515042958594,0.001464572893839345
1326.7824491262309,1326.7824491262309,1.0005449027535662,0.001465009415003532
1326.7893936115227,1326.7893936115227,1.0004605937242315,0.0014659632210655843
1326.7963380968606,1326.7963380968606,0.9992021513300611,0.001466226977183311
1326.8032825821876,1326.8032825821876,1.000013090466004,0.0014675889466665866
1326.8102270675486,1326.8102270675486,1.0007680121564717,0.001468298176620287
1326.8171715529218,1326.8171715529218,0.9989739716564424,0.001468663222866895
1326.8241160383063,1326.8241160383063,0.9992712757584931,0.001469403420222814
1326.8310605237261,1326.8310605237261,1.0002427102688813,0.0014708378947218231
1326.8380050091457,1326.8380050091457,1.0012302320420223,0.001471002919031555
1326.8449494945885,1326.8449494945885,0.9983593093776146,0.0014706374434810623
1326.851893980043,1326.851893980043,0.9999910371220697,0.0014710071808989706
1326.8588384655093,1326.8588384655093,1.0003731581239788,0.001470424581948844
1326.8657829509991,1326.8657829509991,0.999041141670127,0.0014693870591273898
1326.8727274365003,1326.8727274365003,1.0008702693081268,0.0014678394580283625
1326.8796719220245,1326.8796719220245,1.00050761925867,0.0014668288006220507
1326.8866164075491,1326.8866164075491,1.0004928241941076,0.0014655553482800683
1326.893560893108,1326.893560893108,1.0005925459769727,0.0014630664661400216
1326.9005053786682,1326.9005053786682,1.0020783454475422,0.0014614318513023355
1326.9074498642153,1326.9074498642153,0.9990443341495705,0.001458313507095588
1326.9143943498445,1326.9143943498445,0.9991262016505216,0.0014558790170132447
1326.921338835439,1326.921338835439,1.0006470826438372,0.0014536834890457235
1326.9282833210566,1326.9282833210566,1.0001474512037467,0.001450815227264615
1326.9352278066974,1326.9352278066974,1.0006318654718012,0.0014486731332362718
1326.9421722923378,1326.9421722923378,1.0000006584721728,0.0014467909986658582
1326.9491167780025,1326.9491167780025,0.9987065361979474,0.001444443853362752
1326.9560612636778,1326.9560612636778,1.0011031874316043,0.0014435004475647133
1326.9630057493657,1326.9630057493657,0.9983445204226916,0.0014411672746863793
1326.9699502350645,1326.9699502350645,1.0002544243456166,0.001439653372556255
1326.9768947207867,1326.9768947207867,1.0015905698853438,0.0014384216917590878
1326.9838392065094,1326.9838392065094,1.0002125977893177,0.0014370400009677416
1326.9907836922434,1326.9907836922434,0.9991196644607927,0.001436024187974161
1326.9977281780004,1326.9977281780004,0.998656547959069,0.0014346804392511322
1327.004672663758,1327.004672663758,0.997886886960471,0.0014342010241193395
1327.011617149538,1327.011617149538,1.0020769355289616,0.0014349097971265651
1327.0185616353187,1327.0185616353187,1.0013445601326865,0.0014347094899833301
1327.0255061211226,1327.0255061211226,0.9994604720054046,0.001434369966993127
1327.0324506069383,1327.0324506069383,1.0002550610475773,0.001434966780278552
1327.0393950927532,1327.0393950927532,1.0000725822532837,0.0014347496141258148
1327.0463395786041,1327.0463395786041,0.9991149375811474,0.0014352079578869863
1327.053284064431,1327.053284064431,0.9993894042486806,0.001436055654396798
1327.0613396680333,1327.0613396680333,1.001814606154867,0.0014382308316250683
1327.0685619333415,1327.0685619333415,0.9999657870539067,0.0014383471141133583
1327.0755064192151,1327.0755064192151,1.0012361678543167,0.0014404054505019388
