time,time,flux,flux_err
1325.2980240281495,1325.2980240281495,0.9999165146090624,0.000168035511206611
1325.3063574182795,1325.3063574182795,0.9999509761316925,0.00016808512940493694
1325.3146908087401,1325.3146908087401,0.9998938343076572,0.00016808995429954012
1325.323024199491,1325.323024199491,1.0000798907063526,0.0001681213743378051
1325.3306631412765,1325.3306631412765,1.0002522740731845,0.00015349292376159047
1325.3376076340535,1325.3376076340535,1.0002471376176298,0.00015351436241926834
1325.344552126994,1325.344552126994,1.0000080463453271,0.00015350844118673695
1325.3514966201667,1325.3514966201667,1.0000669863003058,0.0001535305153807144
1325.3584411135257,1325.3584411135257,0.9999449232425066,0.00015354773053735145
1325.3653856070716,1325.3653856070716,0.9997996956036184,0.00015355881676352182
1325.3723301008492,1325.3723301008492,0.99989203889014,0.00015357468544346576
1325.3792745948142,1325.3792745948142,0.9998300651546776,0.00015358677893574725
1325.3862190889183,1325.3862190889183,1.000071018318731,0.00015364535852705914
1325.3931635832553,1325.3931635832553,0.9999426288183226,0.00015365497263296741
1325.400108077802,1325.400108077802,1.0000721428843862,0.00015367931020417104
1325.407052572488,1325.407052572488,1.000328799175863,0.00015369600452041794
1325.413997067361,1325.413997067361,0.9998509774996375,0.0001536880222508501
1325.4209415624427,1325.4209415624427,1.0001251769837936,0.00015371911455248552
1325.4278860576646,1325.4278860576646,0.9997959492058801,0.00015371141594094096
1325.4348305530727,1325.4348305530727,1.000013957677837,0.00015374945125973648
1325.4417750487137,1325.4417750487137,0.9998728670824585,0.00015374476021357111
1325.4487195444708,1325.4487195444708,1.000005338917012,0.00015377403678771504
1325.4556640404378,1325.4556640404378,1.0000270329175975,0.00015378934581089185
1325.462608536521,1325.462608536521,1.0000765727748095,0.0001537978787116828
1325.4695530327674,1325.4695530327674,0.9999792818991267,0.00015381336902331894
1325.4764975292233,1325.4764975292233,1.000105284053733,0.00015384521334490888
1325.483442025842,1325.483442025842,1.0001920954476007,0.00015386119630060482
1325.490386522554,1325.490386522554,0.9998710932340623,0.00015385815280826787
1325.4973310194753,1325.4973310194753,0.9998754461043653,0.00015387574882663355
1325.5042755165366,1325.5042755165366,1.0000212158469128,0.00015390381499576577
1325.5112200137842,1325.5112200137842,1.0001139277516593,0.0001539337372023632
1325.518164511148,1325.518164511148,0.9998714210818742,0.0001539444190335686
1325.5251090086745,1325.5251090086745,0.9998319409999417,0.0001539659305142477
1325.532053506341,1325.532053506341,1.000005435441213,0.00015400158768360406
1325.5389980041705,1325.5389980041705,1.0001458313494163,0.00015403097746968138
1325.5459425021402,1325.5459425021402,1.0000665274148848,0.0001540474789319492
1325.5528870002486,1325.5528870002486,1.0001692819884276,0.00015406513159123676
1325.5598314984975,1325.5598314984975,0.9997292118184923,0.000154067971596788
1325.566775996886,1325.566775996886,0.9999074372001079,0.00015409950812581642
1325.573720495437,1325.573720495437,1.0002093178398663,0.00015413908859056113
1325.5806649941048,1325.5806649941048,1.0000261184778645,0.00015414201563699784
1325.5876094929117,1325.5876094929117,0.9999304417583813,0.00015415582573642667
1325.5945539918127,1325.5945539918127,0.9999742229826751,0.0001541677461935649
1325.6014984908993,1325.6014984908993,1.000017000742524,0.00015418776237098412
1325.6084429901025,1325.6084429901025,1.000094757564209,0.00015420243998906565
1325.6153874894221,1325.6153874894221,0.999793640589718,0.00015418794792294122
1325.6223319888584,1325.6223319888584,1.0002026018470485,0.00015422059630185406
1325.6292764884574,1325.6292764884574,0.9999441690907407,0.00015420790792113073
1325.6362209881495,1325.6362209881495,0.9999567342701863,0.00015422675923930398
1325.6431654879812,1325.6431654879812,0.9998165060575142,0.00015422646648159943
1325.6501099879065,1325.6501099879065,0.9999580345752619,0.00015422941959271168
1325.6570544879942,1325.6570544879942,1.000150226904915,0.00015424881585573145
1325.6639989881521,1325.6639989881521,1.0001855969963414,0.0001542596304310751
1325.6709434884494,1325.6709434884494,0.9998193516783163,0.00015422289622341723
1325.6778879888636,1325.6778879888636,1.0000800058909376,0.00015424324828324472
1325.684832489394,1325.684832489394,1.0002101729989457,0.00015427405753972644
1325.691776990064,1325.691776990064,0.9996353050369269,0.00015425109396579256
1325.698721490781,1325.698721490781,1.0002330992782886,0.00015428799307299577
1325.7056659916138,1325.7056659916138,0.9999749165342479,0.00015429633753905937
1325.7126104925865,1325.7126104925865,1.0000605789549417,0.00015430393673036217
1325.719554993652,1325.719554993652,0.9999436518603547,0.00015431698220618465
1325.7264994948114,1325.7264994948114,1.0001010019172387,0.00015434867726959285
1325.7334439961098,1325.7334439961098,0.9999225563253556,0.00015433656100912314
1325.7403884974783,1325.7403884974783,0.9998744189890957,0.0001543527896780093
1325.7473329989632,1325.7473329989632,0.9998512158625393,0.00015436698148977971
1325.7542775005647,1325.7542775005647,1.0001578246874656,0.00015440780493149045
1325.7612220022127,1325.7612220022127,0.9998739188227121,0.00015439859461563102
1325.7681665040004,1325.7681665040004,1.0000369866216359,0.00015443703067653726
1325.775111005881,1325.775111005881,1.0003479708357175,0.00015446407308153273
1325.7820555078317,1325.7820555078317,1.0000205434757514,0.00015445859481763585
1325.789000009899,1325.789000009899,0.9996388906621446,0.00015444156565716486
1325.795944512059,1325.795944512059,0.99999504045476,0.00015447929999251757
1325.8028890142891,1325.8028890142891,1.0000966100885764,0.00015449238596496165
1325.8098335166353,1325.8098335166353,1.0001776704750376,0.00015450917641205526
1325.8167780190283,1325.8167780190283,0.9997775956456181,0.0001544865098564954
1325.8237225215844,1325.8237225215844,1.0001282132779772,0.00015451597321541853
1325.8306670241868,1325.8306670241868,0.9997198814211166,0.00015450426079934113
1325.8376115268595,1325.8376115268595,1.000156995233223,0.00015454001004930963
1325.8445560296248,1325.8445560296248,1.0001800989006508,0.000154528948514432
1325.8515005324832,1325.8515005324832,1.000139378157165,0.00015452279067160554
1325.8584450354351,1325.8584450354351,0.9997466815068983,0.00015449688006630814
1325.8653895384803,1325.8653895384803,0.9999222185060518,0.0001545142419433503
1325.8723340415484,1325.8723340415484,1.00013378187661,0.00015451607299506298
1325.879278544733,1325.879278544733,1.0000208276157856,0.00015448769785555305
1325.8862230479876,1325.8862230479876,1.000013484155267,0.00015448364569092663
1325.8931675513352,1325.8931675513352,0.999896859425446,0.00015447137544684505
1325.9001120547525,1325.9001120547525,0.9999920709790322,0.0001544643342118687
1325.90705655824,1325.90705655824,1.0001384049053428,0.0001544631060921504
1325.9140010617734,1325.9140010617734,0.999837407807328,0.00015442291290910124
1325.920945565424,1325.920945565424,0.999812682913196,0.00015444010487149996
1325.9278900691675,1325.9278900691675,1.0000966094135602,0.00015444439453512454
1325.934834572934,1325.934834572934,1.0001413168350317,0.0001544545047180804
1325.9417790767936,1325.9417790767936,1.0000656999229676,0.0001544467583256976
1325.948723580724,1325.948723580724,1.0000266086154237,0.00015443778185789386
1325.9556680847231,1325.9556680847231,0.9998460941393652,0.00015442739640490522
1325.9637237094662,1325.9637237094662,0.9999549596407402,0.00015444557524688958
1325.9709459937271,1325.9709459937271,1.000193514203978,0.0001544500398688332
1325.9778904979362,1325.9778904979362,1.0000081898051856,0.00015445166893823329
1325.9848350022617,1325.9848350022617,1.0002091105633657,0.00015446357787156692
1325.99177950661,1325.99177950661,0.9996504328694729,0.00015444024765166002
1325.9987240110058,1325.9987240110058,1.0000682332527269,0.00015447787271271517
1326.005668515494,1326.005668515494,0.9999978538949772,0.00015447952870669502
1326.0126130200292,1326.0126130200292,1.0000602452115628,0.00015449930353883336
1326.0195575246344,1326.0195575246344,0.9997462103330411,0.00015448157478745406
1326.0265020292857,1326.0265020292857,1.0000999654854978,0.00015452701302702478
1326.0334465340534,1326.0334465340534,0.9996634666327393,0.00015449879903766146
1326.0403910388443,1326.0403910388443,1.000024914499923,0.00015451227115507567
1326.0473355436359,1326.0473355436359,1.0001866383042455,0.00015452563041894025
1326.0542800485662,1326.0542800485662,1.0003048823737966,0.00015453100863371607
1326.0612245534976,1326.0612245534976,1.0000044458845363,0.00015452264327535343
1326.0681690585213,1326.0681690585213,0.9999266586153075,0.00015452636354810212
1326.0751135635917,1326.0751135635917,1.0000324545414236,0.00015452733978559143
1326.0820580687325,1326.0820580687325,0.9999629198661829,0.00015451887863945256
1326.0890025739195,1326.0890025739195,1.000202053122336,0.00015456029993264148
1326.0959470791531,1326.0959470791531,0.9998148915449157,0.00015452540783201233
1326.1028915844333,1326.1028915844333,0.9999377554570692,0.00015454454557150508
1326.1098360897827,1326.1098360897827,0.9999017900519455,0.0001545434128730131
1326.1167805951795,1326.1167805951795,1.0000849771738047,0.00015456814676447538
1326.1237251006455,1326.1237251006455,1.0000151040973702,0.00015455634199600633
1326.130669606159,1326.130669606159,0.9999576500502213,0.00015455912432268411
1326.1376141116948,1326.1376141116948,0.9998957352212876,0.00015454437293494562
1326.1445586173245,1326.1445586173245,0.9999301110745689,0.00015457567186929114
1326.151503122977,1326.151503122977,1.0000472280291928,0.00015456714297475897
1326.1584476286528,1326.1584476286528,1.000283537392842,0.00015459779611493962
1326.165392134422,1326.165392134422,0.9999482053563199,0.00015457828030196198
1326.172336640214,1326.172336640214,1.0001472411967114,0.00015458034108701977
1326.1792811460766,1326.1792811460766,0.9999440703334036,0.00015457738490518735
1326.1862256519153,1326.1862256519153,1.0000713201221587,0.00015458593415168355
1326.1931701578706,1326.1931701578706,0.999771901209433,0.00015456024203193696
1326.2001146638727,1326.2001146638727,0.999708598542222,0.00015456260622474178
1326.2070591698978,1326.2070591698978,1.0001492500146911,0.00015460284299409268
1326.2140036759927,1326.2140036759927,1.0001566904407817,0.00015460487950264717
1326.220948182111,1326.220948182111,1.000170781097653,0.0001546000381114631
1326.227892688276,1326.227892688276,0.9999610778998915,0.0001545950320095864
1326.2348371944638,1326.2348371944638,1.0003483878642823,0.0001546159141883326
1326.2417817007215,1326.2417817007215,0.9997617798092545,0.00015457276386174026
1326.2487262070035,1326.2487262070035,0.9997863996160431,0.00015458090214738493
1326.2556707133542,1326.2556707133542,1.0002592123284324,0.0001546155468050891
1326.2626152197056,1326.2626152197056,0.9997259360068226,0.00015458197009316052
1326.2695597261268,1326.2695597261268,1.0001432334113156,0.00015460336919757015
1326.276504232594,1326.276504232594,0.999997533263671,0.0001545939125557997
1326.2834487391315,1326.2834487391315,0.9999817300118965,0.00015459489103708052
1326.2903932456454,1326.2903932456454,1.0001667537007186,0.00015460772114916091
1326.2973377522062,1326.2973377522062,1.0000212284715069,0.00015460344439050666
1326.30428225879,1326.30428225879,0.999936362179492,0.00015460029088207571
1326.311226765444,1326.311226765444,0.9998684331163931,0.00015460370908760247
1326.3181712721212,1326.3181712721212,0.9998566625241336,0.0001546167411037279
1326.3251157788677,1326.3251157788677,1.0001290835939796,0.00015464400034258946
1326.332060285615,1326.332060285615,1.000214999473248,0.0001546655878841265
1326.3390047923851,1326.3390047923851,1.0002384693729476,0.00015467519690803825
1326.3470604203412,1326.3470604203412,0.9998641683367462,0.00015466027702841208
1326.3556716088663,1326.3556716088663,0.9997679225916457,0.00015467013952826325
1326.3626161157997,1326.3626161157997,1.0000441589749456,0.00015471628210141439
1326.3695606227095,1326.3695606227095,0.9999858253184218,0.00015470530309340323
1326.3765051297128,1326.3765051297128,0.9999848006350793,0.00015472693976075272
1326.3834496367388,1326.3834496367388,0.999904254324006,0.00015471939113117857
1326.3903941437652,1326.3903941437652,0.9998383596506649,0.0001547271637177816
1326.3973386508849,1326.3973386508849,1.0001202958845201,0.00015476409173981935
1326.404283158004,1326.404283158004,1.0001457241477099,0.00015476566958357496
1326.4112276651242,1326.4112276651242,1.0000394580263534,0.00015476675704402364
1326.418172172313,1326.418172172313,1.0001178196769938,0.00015478697313647013
1326.4251166795257,1326.4251166795257,0.9998577186436647,0.0001547780171133917
1326.4320611867613,1326.4320611867613,1.0000646129235062,0.00015480546526357118
1326.4390056940206,1326.4390056940206,0.9997808641261671,0.00015479557744093442
1326.4459502013497,1326.4459502013497,1.0000809458610769,0.00015481915988315402
1326.4528947086787,1326.4528947086787,0.9999552946295012,0.00015482908102608105
1326.459839216031,1326.459839216031,0.9999952164580123,0.00015483805440756244
1326.466783723453,1326.466783723453,1.0001011008320906,0.00015484945614175483
1326.4737282308517,1326.4737282308517,1.000130428221907,0.00015487011276253297
1326.4806727382977,1326.4806727382977,0.9999269758585472,0.00015486451460254753
1326.487617245766,1326.487617245766,1.00005520072049,0.00015488035404919782
1326.4945617532817,1326.4945617532817,0.9999927764194443,0.00015488391020621577
1326.5015062607963,1326.5015062607963,0.9996811844261287,0.00015488064146442586
1326.5084507683587,1326.5084507683587,1.0001034565802869,0.00015492040435533861
1326.515395275967,1326.515395275967,1.0000498289994042,0.00015491698283812567
1326.5223397835755,1326.5223397835755,1.0000317288461376,0.00015494203170396832
1326.5292842912072,1326.5292842912072,1.0001734658555972,0.0001549738397160204
1326.5362287988617,1326.5362287988617,1.0000049359474092,0.0001549594128708539
1326.5431733065639,1326.5431733065639,0.9999887556428362,0.0001549845913381101
1326.5501178142651,1326.5501178142651,0.9998513838344394,0.0001550002212573216
1326.55706232206,1326.55706232206,0.999927705696687,0.00015500445775871403
1326.5640068298078,1326.5640068298078,0.999902991335604,0.0001550003783589436
1326.5709513376025,1326.5709513376025,1.00002237039087,0.00015501685964873334
1326.5778958454207,1326.5778958454207,1.0000784307285433,0.00015503187225479983
1326.5848403532616,1326.5848403532616,1.000260344668007,0.0001550529116484851
1326.5917848611266,1326.5917848611266,0.9997875282082799,0.00015503445668493208
1326.5987293690373,1326.5987293690373,1.0000323858600546,0.00015505190993354894
1326.6056738769253,1326.6056738769253,1.0001479814237249,0.0001550574016346704
1326.6126183848833,1326.6126183848833,0.9999121541573184,0.00015505394554399252
1326.619562892817,1326.619562892817,0.9999013220089411,0.00015505497937265796
1326.6265074008215,1326.6265074008215,0.9998474544409331,0.00015505119852421634
1326.633451908802,1326.633451908802,1.000114417780773,0.00015508592887034602
1326.6403964168535,1326.6403964168535,0.9999552461640644,0.00015507666122200519
1326.6473409249043,1326.6473409249043,1.0000897884923936,0.00015509616313724917
1326.6542854329782,1326.6542854329782,1.0001813505196941,0.00015508616659792087
1326.6612299410522,1326.6612299410522,0.9999765726473386,0.00015506595868665498
1326.6681744491725,1326.6681744491725,0.9997367731521217,0.00015505098693357824
1326.6751189572938,1326.6751189572938,1.000256685847377,0.00015508461987094022
1326.6820634654605,1326.6820634654605,0.9998605117725875,0.0001550328392832658
1326.6903968752845,1326.6903968752845,0.9998204808819576,0.0001550266399006167
1326.697341383475,1326.697341383475,1.0001503467089559,0.00015504270702152004
1326.7042858916654,1326.7042858916654,1.0000170128019765,0.0001550223092700072
1326.71206374092,1326.71206374092,1.0000830107538952,0.0001550329249788188
1326.7195638098667,1326.7195638098667,0.9999274136311346,0.00015500595030388568
1326.7265083181496,1326.7265083181496,1.0000626195069384,0.00015501260410667733
1326.7334528264334,1326.7334528264334,0.9998342644170188,0.00015498456240782438
1326.7403973347175,1326.7403973347175,0.9997941857009902,0.00015496023337181137
1326.7473418430939,1326.7473418430939,1.0002339944412886,0.0001549950396624184
1326.754286351424,1326.754286351424,1.0001545289795473,0.00015498690391940989
1326.7612308598007,1326.7612308598007,0.9999008395779697,0.000154962231440698
1326.768175368201,1326.768175368201,1.0001124984059293,0.00015498835283004526
1326.775119876624,1326.775119876624,1.0001657174750558,0.00015497796836782177
1326.7820643850475,1326.7820643850475,1.0000128727715267,0.00015497239290278918
1326.789008893471,1326.789008893471,0.9998930881620396,0.00015497468977162854
1326.795953401964,1326.795953401964,0.999402906798864,0.00015494482486172971
1326.8028979104342,1326.8028979104342,1.0001213389921464,0.00015499363481396767
1326.809842418927,1326.809842418927,1.0002197930288304,0.00015501195497627935
1326.8167869274434,1326.8167869274434,1.000079728588169,0.00015500718284405657
1326.8237314359599,1326.8237314359599,1.0000496207287188,0.0001550045996746787
1326.830675944523,1326.830675944523,0.9999924420002007,0.0001549945407300915
1326.8376204531091,1326.8376204531091,1.0002998011073512,0.00015502381917816626
1326.8445649616722,1326.8445649616722,0.9999857799856009,0.00015499575795783262
1326.8515094702584,1326.8515094702584,0.9997984121291852,0.00015498940684807359
1326.858453978868,1326.858453978868,0.9995389227381344,0.00015494801238219192
1326.8653984875014,1326.8653984875014,0.999916367435066,0.00015498603610884586
1326.8723429961342,1326.8723429961342,1.0002397684074733,0.00015500101354456452
1326.8792875047668,1326.8792875047668,1.0001413744895558,0.00015496900912814903
1326.8862320134463,1326.8862320134463,1.000052885754887,0.00015494226281349775
1326.8931765221487,1326.8931765221487,1.0000235402866715,0.00015494664576766167
1326.900121030852,1326.900121030852,1.000171388418519,0.00015491370255492682
1326.9070655395544,1326.9070655395544,0.9999456479249377,0.00015489585675448726
1326.9140100482805,1326.9140100482805,1.0000379988119084,0.00015488056975110123
1326.9209545570297,1326.9209545570297,0.9999655033445778,0.00015485103227383528
1326.9278990658024,1326.9278990658024,0.999888945739318,0.0001548316488884288
1326.9348435745749,1326.9348435745749,0.9998273626542573,0.0001548050864481455
1326.941788083324,1326.941788083324,0.99998872156763,0.00015480164828311237
1326.9487325921668,1326.9487325921668,1.0001232793216008,0.0001547975882519502
1326.9556771009388,1326.9556771009388,1.0000547259962322,0.00015478678945302326
1326.9626216098052,1326.9626216098052,0.9997986777315528,0.00015475306231344383
1326.9695661186474,1326.9695661186474,1.0001175106136575,0.00015475955434073735
1326.9765106274197,1326.9765106274197,1.0001387516737483,0.00015473735209390834
1326.9834551362858,1326.9834551362858,0.999967086586342,0.0001547193561577625
1326.9903996452213,1326.9903996452213,1.000142885174061,0.0001547223667129063
1326.9973441541333,1326.9973441541333,0.9999565268094074,0.00015468554555248746
1327.0042886629992,1327.0042886629992,0.999766066242378,0.00015468371236659515
1327.0112331719113,1327.0112331719113,1.0001314715731857,0.00015471367376312326
1327.018177680847,1327.018177680847,0.9999873520435983,0.0001546952290985238
1327.0251221897825,1327.0251221897825,1.0000097986625334,0.0001547043591552248
1327.0320666987182,1327.0320666987182,0.9998734192545988,0.0001546954276473159
1327.0390112076766,1327.0390112076766,0.9999403999993604,0.00015470018124014214
1327.0459557166591,1327.0459557166591,1.0000909606433823,0.0001546918649757641
1327.052900225641,1327.052900225641,1.0001553273170911,0.00015470919912140589
