time,time,flux,flux_err
1624.9674594593168,1624.9674594593168,0.9998951903274683,0.0007021689076646433
1624.9757929565258,1624.9757929565258,1.0003044698376289,0.0007086819573861109
1624.9841264539398,1624.9841264539398,0.9999486200472513,0.0007159371288335413
1624.9924599515707,1624.9924599515707,1.0000143174031495,0.0007227085731299949
1625.0000989912296,1625.0000989912296,0.9993319730932134,0.0006651183207831999
1625.0070435728915,1625.0070435728915,1.0003827205980464,0.0006697434541394744
1625.0139881546922,1625.0139881546922,0.9997560746377662,0.0006741938002626117
1625.0209327366326,1625.0209327366326,0.9999605161911831,0.0006785130824597462
1625.0278773187133,1625.0278773187133,1.000359106580273,0.0006827727167201512
1625.0348219009215,1625.0348219009215,1.0004272026810375,0.0006868733471194659
1625.0417664832755,1625.0417664832755,1.0000321871692255,0.0006908076795498809
1625.0487110657693,1625.0487110657693,1.000616157083979,0.0006948205000500495
1625.055655648391,1625.055655648391,0.9990569322794356,0.0006978881747371493
1625.0626002311467,1625.0626002311467,0.9990886216938639,0.0007010855311525777
1625.069544814042,1625.069544814042,1.0008759214770897,0.0007039090369649403
1625.0764893970652,1625.0764893970652,1.0004365178306975,0.0007071590750670967
1625.0834339802282,1625.0834339802282,0.9999975042310002,0.000708786831395868
1625.0903785635135,1625.0903785635135,0.9995475643527975,0.0007103249213679491
1625.097323146921,1625.097323146921,0.9991920700009402,0.0007123908335650992
1625.1042677304736,1625.1042677304736,0.9990890936397934,0.0007143197904592544
1625.1112123141434,1625.1112123141434,1.000613602934995,0.0007168657188735372
1625.1181568979412,1625.1181568979412,1.0003092571705987,0.0007176392585032765
1625.1251014818667,1625.1251014818667,1.0013347967173416,0.0007198088105898868
1625.132046065903,1625.132046065903,0.9994581365752486,0.0007209326660548856
1625.1389906500785,1625.1389906500785,0.9998890756841632,0.0007227983720061476
1625.145935234371,1625.145935234371,0.9994229497531085,0.0007240819484572073
1625.1528798187794,1625.1528798187794,0.9993778731038552,0.0007256339909023425
1625.1598244033164,1625.1598244033164,0.9988908107597061,0.0007269528481650893
1625.1667689879575,1625.1667689879575,0.9996029731288016,0.0007291696135772318
1625.1737135727278,1625.1737135727278,1.0004653426593255,0.000729455465731428
1625.1820470746022,1625.1820470746022,1.0007104556124051,0.0007306449631352405
1625.1889916596278,1625.1889916596278,1.0005065230066394,0.00073147874834969
1625.195936244764,1625.195936244764,1.0002201046020034,0.0007320252116579148
1625.2028808299997,1625.2028808299997,0.9998231611328963,0.0007323973394586545
1625.2098254153627,1625.2098254153627,0.9993012889057062,0.0007338588971801229
1625.218436701358,1625.218436701358,0.999510344907286,0.0007340975469307024
1625.226492420655,1625.226492420655,0.9991413196364455,0.0007354861275031528
1625.233437006385,1625.233437006385,0.9998949160800219,0.0007360682280568667
1625.241770509389,1625.241770509389,1.0007247877881438,0.0007367618024523077
1625.248715095346,1625.248715095346,0.9999231483849151,0.0007373242613203164
1625.2556596814018,1625.2556596814018,0.9996015068141905,0.0007375182647491192
1625.2626042675513,1625.2626042675513,1.0017040260290213,0.0007384938876508583
1625.2709377710732,1625.2709377710732,0.9996891388593688,0.0007401479183507877
1625.2778823574433,1625.2778823574433,0.9998603634935895,0.0007414462808390716
1625.2848269439128,1625.2848269439128,1.0004271741725739,0.0007418667399828397
1625.2917715304866,1625.2917715304866,0.9992177728107683,0.0007424781537815431
1625.2995494675542,1625.2995494675542,1.0009843356168782,0.0007451662920744563
1625.308438538631,1625.308438538631,0.9996111107452267,0.0007460107624050314
1625.3153831255192,1625.3153831255192,1.000351000320706,0.0007473779375737528
1625.3237166298914,1625.3237166298914,0.9994999594178516,0.0007494095443686371
1625.3306612169833,1625.3306612169833,0.9995568435493405,0.000750887144472046
1625.337605804151,1625.337605804151,1.0002998537522547,0.0007521445539247813
1625.3445503914063,1625.3445503914063,0.9995760842798417,0.0007529468767380059
1625.3514949787482,1625.3514949787482,1.0000592284841838,0.0007539978563161482
1625.3584395661837,1625.3584395661837,0.9998656926123732,0.0007549184134204848
1625.365384153695,1625.365384153695,0.9997776440757343,0.0007560445362693031
1625.3723287412874,1625.3723287412874,0.9991183740268503,0.000756198004595335
1625.3792733289617,1625.3792733289617,1.000466742712794,0.0007571728611025645
1625.3862179167118,1625.3862179167118,0.9992714028151453,0.0007570855931827987
1625.3931625045545,1625.3931625045545,1.0009305824176693,0.0007579405614474273
1625.4001070924614,1625.4001070924614,1.0013654784318897,0.0007578987096202154
1625.4070516804502,1625.4070516804502,1.000364428009242,0.0007575051720679759
1625.41399626852,1625.41399626852,1.0002207338792326,0.000758129215595889
1625.4209408566537,1625.4209408566537,0.9995277282018998,0.0007572022752756172
1625.427885444869,1625.427885444869,0.9988764183318286,0.0007573299183154257
1625.4348300331603,1625.4348300331603,1.000333856527369,0.0007572663088333761
1625.44177462151,1625.44177462151,1.0002030697638993,0.0007566897088854686
1625.4487192099346,1625.4487192099346,1.000710810871127,0.0007568883272328689
1625.4556637984356,1625.4556637984356,0.9986532471734986,0.0007554933436820397
1625.462608387,1625.462608387,1.0002853439851624,0.0007553480074542659
1625.469552975635,1625.469552975635,0.9993582469076838,0.0007552353173479162
1625.4778864820848,1625.4778864820848,1.000703655903553,0.000754045058100529
1625.484831070859,1625.484831070859,1.000090965959664,0.0007543391361518463
1625.491775659697,1625.491775659697,1.0007280406769001,0.0007534850174264596
1625.4987202486057,1625.4987202486057,0.9989771603860286,0.0007528180373767896
1625.5056648375717,1625.5056648375717,1.0016462751596094,0.0007532659479704863
1625.512609426602,1625.512609426602,1.0012695422083446,0.0007531615999717675
1625.5195540156903,1625.5195540156903,0.9985555916897411,0.0007520229508802591
1625.526498604843,1625.526498604843,0.9999169198854837,0.0007519008152427986
1625.5334431940482,1625.5334431940482,1.0001080296173166,0.0007509876418294163
1625.540387783317,1625.540387783317,0.9997747878674484,0.0007511116543703433
1625.5473323726387,1625.5473323726387,0.9991756527569067,0.0007495612490248972
1625.554276962018,1625.554276962018,1.0002593642655975,0.0007483845964844766
1625.5612215514561,1625.5612215514561,1.0005997741490327,0.0007480182050422804
1625.5681661409465,1625.5681661409465,1.0002651821937416,0.0007469016086583456
1625.5751107304889,1625.5751107304889,0.9992786018673783,0.0007458799164948791
1625.5820553200838,1625.5820553200838,1.0009525184755341,0.0007450480193226053
1625.5889999097424,1625.5889999097424,0.9997854137973958,0.0007436987078513928
1625.5959444994369,1625.5959444994369,0.9991622869015346,0.0007429029130867147
1625.6028890892005,1625.6028890892005,1.0014669309662543,0.0007419922552860301
1625.6098336789933,1625.6098336789933,0.9994836181045924,0.0007408095466492168
1625.6167782688444,1625.6167782688444,0.9993310904265125,0.0007396359916878536
1625.6237228587365,1625.6237228587365,0.9996212516065135,0.0007389467356625375
1625.6306674486923,1625.6306674486923,1.000479919136204,0.0007378010119877161
1625.637612038683,1625.637612038683,0.9993095094831721,0.0007372540269216558
1625.6445566287261,1625.6445566287261,1.000818065657985,0.0007366704891041431
1625.65150121881,1625.65150121881,0.9991545733230321,0.0007362970516529638
1625.6584458089405,1625.6584458089405,1.0006418470576275,0.000735512318301357
1625.6653903991119,1625.6653903991119,0.9996393721465118,0.0007353616478195887
1625.6723349893296,1625.6723349893296,0.9997307185002274,0.0007346966307552936
1625.679279579588,1625.679279579588,0.999950582411457,0.0007346955581265874
1625.6862241698932,1625.6862241698932,0.999721669812051,0.0007342747811769003
1625.693168760239,1625.693168760239,1.0003749666974548,0.000734277771886804
1625.7001133506258,1625.7001133506258,0.9998473828947564,0.0007341989086864528
1625.707057941053,1625.707057941053,1.0007773597631746,0.0007342745245038031
1625.7140025315152,1625.7140025315152,0.9990000501274826,0.0007342410119069565
1625.720947122018,1625.720947122018,0.9999138741010274,0.0007344676278837421
1625.7278917125618,1625.7278917125618,1.000028434105666,0.0007347567991750823
1625.7348363031408,1625.7348363031408,1.0008206840343254,0.0007347655255969242
1625.7417808937603,1625.7417808937603,0.9993825399818703,0.0007351216771955511
1625.7487254844086,1625.7487254844086,1.000768517954738,0.0007353904676888357
1625.755670075098,1625.755670075098,1.0000084511946379,0.0007359407856597268
1625.7626146658224,1625.7626146658224,0.9996897370002046,0.0007358553349437917
1625.7695592565872,1625.7695592565872,0.9994475728327332,0.0007359405644981597
1625.7765038473815,1625.7765038473815,0.9997986356054012,0.0007362007140479466
1625.7834484382042,1625.7834484382042,1.0006027976836527,0.0007369146002272629
1625.7903930290627,1625.7903930290627,1.0000227494222602,0.0007367340693619047
1625.7973376199552,1625.7973376199552,1.0000626255635185,0.0007367400751557216
1625.8042822108775,1625.8042822108775,0.9995844660357168,0.0007363784245955753
1625.8112268018344,1625.8112268018344,0.9989895129408554,0.0007365274329115222
1625.8181713928263,1625.8181713928263,1.000550240900763,0.0007369591542068217
1625.8251159838474,1625.8251159838474,1.0002821209143957,0.0007365861083349268
1625.832060574898,1625.832060574898,1.0008736486050025,0.0007359819158794092
1625.8390051659826,1625.8390051659826,0.999291309097148,0.0007367288191212631
1625.8459497570796,1625.8459497570796,1.0002672597299056,0.0007357034218536385
1625.8528943482168,1625.8528943482168,1.0004655723797762,0.0007356115128277038
1625.8598389393833,1625.8598389393833,0.9998166668307256,0.00073536725279142
1625.8667835305791,1625.8667835305791,0.9996900649955144,0.0007346659551572411
1625.8737281217866,1625.8737281217866,0.9988197303521901,0.0007335909022696893
1625.8806727130464,1625.8806727130464,0.9992504736403747,0.0007329212683407101
1625.887617304318,1625.887617304318,0.9999503266076675,0.0007327666210857956
1625.894561895618,1625.894561895618,1.00027220206919,0.0007312406846730822
1625.9015064869477,1625.9015064869477,1.0015643351231458,0.0007312951481197129
1625.908451078289,1625.908451078289,1.0007159341219103,0.0007300949851131595
1625.915395669665,1625.915395669665,0.999960963715805,0.0007293264581426776
1625.9223402610646,1625.9223402610646,1.0003863819267909,0.0007282437256706131
1625.9292848524926,1625.9292848524926,0.999383412900712,0.0007268855554617181
1625.936229443939,1625.936229443939,0.9996370680938714,0.0007259668131352456
1625.943174035414,1625.943174035414,0.9998315637127277,0.0007248426756373539
1625.950118626901,1625.950118626901,1.0007232191534394,0.0007248616880841019
1625.9570632184168,1625.9570632184168,0.9995362955728068,0.0007231481268049608
1625.9640078099553,1625.9640078099553,0.9997312827298666,0.0007219153471083338
1625.9709524015177,1625.9709524015177,0.9998671108196137,0.000720735469512601
1625.9778969930917,1625.9778969930917,0.9994855207689456,0.0007191709156031894
1625.984841584695,1625.984841584695,1.0006520915665165,0.0007183141574802083
1625.9917861763217,1625.9917861763217,1.0007187558200117,0.0007181427685128354
1625.9987307679535,1625.9987307679535,0.9998382430927741,0.000716996491173868
1626.005675359621,1626.005675359621,0.999242810197402,0.0007160944424953208
1626.0126199513056,1626.0126199513056,1.00036729063561,0.0007150605156947569
1626.0195645430022,1626.0195645430022,0.9996966631721513,0.0007142610503735138
1626.0265091347214,1626.0265091347214,0.9994900149108457,0.0007134047673963805
1626.0334537264584,1626.0334537264584,0.9995721281951496,0.0007124814909964133
1626.0403983182182,1626.0403983182182,0.9997366408031316,0.0007118840158276031
1626.0473429099904,1626.0473429099904,1.0005013438832289,0.000711909140747323
1626.0542875017861,1626.0542875017861,0.9991116406638696,0.0007108485811316988
1626.0612320935986,1626.0612320935986,0.9996069394082994,0.0007104582691835969
1626.0681766854173,1626.0681766854173,1.0007205363501297,0.0007100936706165973
1626.0751212772643,1626.0751212772643,1.00050620532718,0.0007104380702222015
1626.082065869118,1626.082065869118,1.000603743244442,0.0007098940418539318
1626.089010460995,1626.089010460995,1.0006317025342848,0.0007092666456891011
1626.0959550528892,1626.0959550528892,0.9990101949365077,0.0007087419690437865
1626.102899644795,1626.102899644795,0.9994849929111421,0.0007081146950042853
1626.1098442367122,1626.1098442367122,0.9996955039194179,0.0007080699623289827
1626.1167888286527,1626.1167888286527,0.9999701634001988,0.0007074783889355882
1626.1237334206112,1626.1237334206112,1.0001626368503873,0.0007072389848859954
1626.1306780125694,1626.1306780125694,0.9998574759779464,0.0007064834650072219
1626.1376226045452,1626.1376226045452,1.0004324225648902,0.0007066879694355572
1626.144567196538,1626.144567196538,0.9995365131609495,0.0007062706236601669
1626.1515117885428,1626.1515117885428,0.9999925967043563,0.0007054871870912145
1626.158456380571,1626.158456380571,1.0003957174757097,0.0007051039041526699
1626.165400972599,1626.165400972599,0.9995007208786311,0.0007050523296805416
1626.1723455646504,1626.1723455646504,1.0007147057333305,0.0007044738839548835
1626.1792901567017,1626.1792901567017,1.0003506479759845,0.0007035626445323855
1626.1862347487702,1626.1862347487702,0.9998134164559203,0.0007034283359902997
1626.1931793408626,1626.1931793408626,0.9995735270070577,0.0007026115923261301
1626.2001239329425,1626.2001239329425,0.9998873574869969,0.0007014967215314197
1626.2070685250585,1626.2070685250585,0.9998298514940028,0.0007011787571153472
1626.2140131171739,1626.2140131171739,0.9994665405087165,0.0007003513632174764
1626.2209577093006,1626.2209577093006,1.0007294329048553,0.0007000147741759774
1626.2279023014453,1626.2279023014453,1.0012080089279578,0.0006989018793917239
1626.2348468935893,1626.2348468935893,0.9991258953657649,0.0006983172066326883
1626.2417914857574,1626.2417914857574,1.00032741279318,0.000697531465593478
1626.248736077931,1626.248736077931,0.9996734173688765,0.0006967994758312943
1626.2556806701105,1626.2556806701105,0.9993094500505757,0.0006958307826317942
1626.2626252622954,1626.2626252622954,1.000274038638847,0.0006951709373647593
1626.2695698544978,1626.2695698544978,0.9997790735265191,0.0006944195360714795
1626.2765144467064,1626.2765144467064,1.0003882272953069,0.0006936355281419267
1626.2834590389266,1626.2834590389266,1.0001584805254518,0.0006921896553275854
1626.2904036311581,1626.2904036311581,0.9994602766637277,0.0006916219046449363
1626.2973482233906,1626.2973482233906,1.0006423185806819,0.0006915331852212047
1626.3042928156278,1626.3042928156278,1.000050951638939,0.0006902491217964045
1626.3112374078887,1626.3112374078887,0.9999453721763392,0.0006896147191006768
1626.318182000155,1626.318182000155,0.9999471358603487,0.0006885588229153219
1626.325126592422,1626.325126592422,1.000010955431042,0.0006880392291499008
1626.3320711847118,1626.3320711847118,0.9998114830492268,0.0006871321102749968
1626.339015777002,1626.339015777002,0.9999969924342345,0.0006867962812342143
1626.3459603692977,1626.3459603692977,0.9995239475493278,0.0006858368148697979
1626.3529049615936,1626.3529049615936,1.0000857223597577,0.0006859238809675684
1626.3598495539013,1626.3598495539013,1.0000786606222443,0.000685242281042184
1626.366794146214,1626.366794146214,1.0005929866849497,0.0006845057268357295
1626.3737387385331,1626.3737387385331,1.0000819722837897,0.0006842758348221631
1626.380683330864,1626.380683330864,0.9996537763409499,0.0006840974545260514
1626.3876279232009,1626.3876279232009,1.001165641804689,0.0006836194926196652
1626.3945725155372,1626.3945725155372,0.9988189947187832,0.0006829622470963059
1626.4015171078852,1626.4015171078852,0.9998808079259283,0.0006826846332014441
1626.4084617002393,1626.4084617002393,1.0005412313116697,0.0006824791359472075
1626.4154062925988,1626.4154062925988,0.9989907183640799,0.0006819192659753911
1626.4223508849586,1626.4223508849586,0.9998244159641223,0.0006820345878004599
1626.4292954773366,1626.4292954773366,1.0009668916222334,0.0006815855324911922
1626.4362400697019,1626.4362400697019,1.0003525786290637,0.0006809782131729059
1626.4431846620905,1626.4431846620905,0.9991044095884212,0.000680731261915834
1626.4501292544621,1626.4501292544621,1.0009355769679114,0.0006803902231222232
1626.457073846857,1626.457073846857,0.9989957857913649,0.0006796043865691115
1626.4640184392515,1626.4640184392515,0.9996851083531842,0.0006796647277398542
1626.4709630316465,1626.4709630316465,1.0001032286228617,0.0006799635735368869
1626.4779076240586,1626.4779076240586,0.9997490174476041,0.0006791303404442414
1626.4848522164648,1626.4848522164648,1.000117543852379,0.0006786942870793647
1626.491796808877,1626.491796808877,1.0015820980607966,0.0006791498325912484
1626.4987414012896,1626.4987414012896,0.9998520387763941,0.0006785423096046497
1626.5056859937133,1626.5056859937133,0.999457220864044,0.0006774234340971245
1626.512630586137,1626.512630586137,1.0002634843133456,0.0006784055770910485
1626.5195751785614,1626.5195751785614,1.0005454178554625,0.0006779965958579505
1626.526519770991,1626.526519770991,0.9989771160405934,0.0006781807384615578
1626.533464363426,1626.533464363426,0.9996234106493704,0.0006777679832731594
1626.5404089558674,1626.5404089558674,1.0003991288438905,0.000677169312878688
1626.5473535482972,1626.5473535482972,1.000305098796091,0.0006776708345889857
1626.554298140744,1626.554298140744,0.99960816549828,0.0006773867713897793
1626.5612427331914,1626.5612427331914,0.9994996468635936,0.0006770752484207377
1626.5681873256385,1626.5681873256385,1.0005038652258078,0.0006769692529899091
1626.5751319180915,1626.5751319180915,0.9996561852297658,0.0006771485118341518
1626.5820765105443,1626.5820765105443,1.0008593492411655,0.0006767535009260208
1626.5890211029975,1626.5890211029975,0.9989078899891679,0.000676342255869383
1626.5959656954558,1626.5959656954558,1.0009174943086754,0.0006769847207561082
1626.6029102879088,1626.6029102879088,0.9998159265239434,0.0006765490176733839
1626.6098548803793,1626.6098548803793,1.0001503343984623,0.0006764349390098732
1626.6167994728444,1626.6167994728444,0.9996686576753578,0.0006761570061122281
1626.6237440653028,1626.6237440653028,1.0006109040245723,0.0006756186309136176
1626.6306886577677,1626.6306886577677,0.9995073980779813,0.0006753821123071051
1626.6376332502375,1626.6376332502375,1.0002987283661786,0.0006754436618352018
1626.6445778427137,1626.6445778427137,0.9998557112519922,0.0006751823733237383
1626.6515224351847,1626.6515224351847,0.9997606959332594,0.000674623252964421
1626.6584670276488,1626.6584670276488,0.999865810295276,0.0006748816248161324
1626.6654116201312,1626.6654116201312,1.0004441801625492,0.0006742698472921862
1626.6723562126015,1626.6723562126015,0.9995483641433924,0.0006738352886869912
1626.6793008050781,1626.6793008050781,0.9995683479418449,0.0006740063576990296
1626.6862453975477,1626.6862453975477,1.0007788553328498,0.0006746256854353183
1626.6931899900305,1626.6931899900305,1.000169043588399,0.0006735945087552449
1626.700134582506,1626.700134582506,0.9995711374998114,0.0006739721338826671
1626.7070791749825,1626.7070791749825,0.9999781362545608,0.0006746502273509371
1626.7140237674646,1626.7140237674646,1.0000494995880005,0.0006741167366622099
1626.7209683599413,1626.7209683599413,0.9992918526403034,0.000673504528379568
1626.7279129524172,1626.7279129524172,1.0001856840012358,0.0006745623028200007
1626.7348575448934,1626.7348575448934,1.000311903976541,0.0006739993866949292
1626.7418021373753,1626.7418021373753,1.0001419691007805,0.0006739296279974708
1626.7487467298517,1626.7487467298517,0.9999515062145898,0.0006744287838314818
