time,time,flux,flux_err
1385.9532530901859,1385.9532530901859,0.9999924413075414,0.0003736702632440378
1385.9615865983317,1385.9615865983317,1.0000052549598328,0.0003736680744203717
1385.9699201063995,1385.9699201063995,0.999878548252818,0.00037360474870964803
1385.9782536144864,1385.9782536144864,1.0000952136274923,0.00037364839890316405
1385.9858926633792,1385.9858926633792,0.9999971643149548,0.00034106357429446253
1385.9928372533636,1385.9928372533636,1.000161777797708,0.0003410930669618991
1385.9997818432553,1385.9997818432553,0.9999653333449887,0.0003410901198260221
1386.0067264331237,1386.0067264331237,0.9997052984286745,0.0003410367747295342
1386.0136710229456,1386.0136710229456,0.9999560375199271,0.0003410206952082792
1386.0206156127201,1386.0206156127201,1.000314029446633,0.0003411154305398831
1386.0275602024726,1386.0275602024726,0.9998732538370323,0.0003410639857423715
1386.0345047921778,1386.0345047921778,0.9999095278625804,0.000341072840243814
1386.0414493818594,1386.0414493818594,1.0002812518277282,0.00034113077468677966
1386.0483939714723,1386.0483939714723,0.9999931513723836,0.00034105490677611945
1386.0553385610845,1386.0553385610845,0.9997385656700508,0.000341038639458864
1386.0622831506494,1386.0622831506494,1.0000417627956044,0.0003410819366659629
1386.069227740169,1386.069227740169,0.999906804973769,0.0003411096268662807
1386.0761723296418,1386.0761723296418,1.0004273124312622,0.0003411640110816297
1386.0831169190672,1386.0831169190672,1.000057401157122,0.0003410605486041236
1386.0900615084931,1386.0900615084931,0.9999091094061177,0.000341058749820461
1386.097006097896,1386.097006097896,0.9995649609519587,0.0003410659936887234
1386.1039506872053,1386.1039506872053,1.0001834825323892,0.00034120089043710133
1386.1108952764914,1386.1108952764914,0.9997073635441511,0.0003410800247613553
1386.117839865778,1386.117839865778,1.000331712953253,0.00034119950259676606
1386.1247844549712,1386.1247844549712,1.0000294688931435,0.0003411511420105751
1386.1317290441402,1386.1317290441402,0.9996999875074051,0.00034112815616349425
1386.1386736332875,1386.1386736332875,1.000294571088012,0.0003411718657778304
1386.1456182224108,1386.1456182224108,1.0002194400081859,0.00034118017148892306
1386.1525628114637,1386.1525628114637,1.0000988338115864,0.00034118868633708317
1386.1595074004945,1386.1595074004945,0.9994187051660226,0.0003410120228420438
1386.1664519895014,1386.1664519895014,1.0003135186196208,0.00034122166340952735
1386.1733965784608,1386.1733965784608,0.9994562441174984,0.0003410211904837777
1386.180341167375,1386.180341167375,1.0003206835817737,0.00034121707927147295
1386.1872857562657,1386.1872857562657,1.0000960406255603,0.0003411392560460846
1386.194230345109,1386.194230345109,1.000142426636638,0.0003411276942503249
1386.2011749339065,1386.2011749339065,1.0002519150426914,0.00034116259789025683
1386.2081195226572,1386.2081195226572,0.9998338855241983,0.0003411343849234954
1386.2150641113847,1386.2150641113847,1.000131975620197,0.00034109911541253243
1386.2220087000885,1386.2220087000885,0.9995829751137005,0.0003410405472901097
1386.2289532887235,1386.2289532887235,0.9998162514006971,0.0003411223280063721
1386.2358978773343,1386.2358978773343,0.9994519183632603,0.0003410056136843103
1386.2428424659447,1386.2428424659447,1.0000882064655094,0.0003411428339939679
1386.2497870544632,1386.2497870544632,1.0004527575654363,0.0003412287532941042
1386.2567316429581,1386.2567316429581,1.0002457762565655,0.0003412263765038879
1386.2636762314053,1386.2636762314053,0.9995742802042955,0.0003411121873327363
1386.270620819854,1386.270620819854,1.0003636190199257,0.00034120384939313324
1386.2775654082322,1386.2775654082322,0.9998687258652218,0.0003411110374590521
1386.2845099965866,1386.2845099965866,0.9992384833631085,0.00034106661721794885
1386.2914545848719,1386.2914545848719,1.0005696955543966,0.0003412151265172831
1386.298399173204,1386.298399173204,0.9999674982046927,0.0003411734424608466
1386.3053437613726,1386.3053437613726,0.9998315113079135,0.0003411563205793841
1386.3122883496103,1386.3122883496103,1.0005472329579783,0.0003412738215795455
1386.319232937756,1386.319232937756,0.9999124155060792,0.0003411911661128577
1386.3261775258784,1386.3261775258784,0.9995314297901322,0.0003411292504921382
1386.333122114,1386.333122114,1.000129194003222,0.0003411617875507558
1386.3400667020294,1386.3400667020294,0.99969964846496,0.0003411153327457221
1386.3470112900354,1386.3470112900354,1.0003486806226576,0.0003411664847085994
1386.3539558780171,1386.3539558780171,0.9998343899098201,0.0003411013939271405
1386.3609004659534,1386.3609004659534,1.0001884998336268,0.0003411853966181051
1386.368956187895,1386.368956187895,1.0000489691998453,0.00034113909588024267
1386.3761785592671,1386.3761785592671,1.0002869885410326,0.0003411834552654554
1386.3831231470872,1386.3831231470872,0.9998411221959937,0.0003410961379219377
1386.3900677348602,1386.3900677348602,1.0000836743868304,0.00034116871471335174
1386.3970123225863,1386.3970123225863,0.9998196248800563,0.00034109364705764704
1386.4039569102656,1386.4039569102656,0.999416770158361,0.0003410264360044518
1386.4109014979458,1386.4109014979458,1.000503138892944,0.00034119704741021465
1386.4178460856022,1386.4178460856022,0.9999638243138648,0.00034111357363386945
1386.424790673165,1386.424790673165,1.0000136467262712,0.0003411571740351443
1386.4317352607054,1386.4317352607054,1.0000383032544495,0.0003411308830235173
1386.438679848246,1386.438679848246,1.0001719360360828,0.0003411959386222551
1386.4456244357152,1386.4456244357152,0.9998703811023635,0.0003411242808148022
1386.452569023139,1386.452569023139,0.9998628295061407,0.00034113000154470917
1386.4595136105634,1386.4595136105634,0.9999267844747939,0.0003411847089177075
1386.4664581978932,1386.4664581978932,1.0001991162367925,0.00034118109831934954
1386.4734027852235,1386.4734027852235,0.99974771337,0.000341101615076394
1386.4803473725078,1386.4803473725078,1.0001558801170791,0.00034120436213795147
1386.4872919597683,1386.4872919597683,0.9998682027254793,0.0003411279958382157
1386.4942365469587,1386.4942365469587,0.9999502588441962,0.0003411471200120021
1386.501181134173,1386.501181134173,0.9998278769589689,0.0003411288767665699
1386.508125721271,1386.508125721271,1.0004774426280265,0.0003412445097068119
1386.5150703083677,1386.5150703083677,0.9999464073092424,0.00034116065203962696
1386.5220148954427,1386.5220148954427,0.9997773313434678,0.0003410673140939535
1386.5289594824476,1386.5289594824476,0.9998338186492269,0.0003411335149032618
1386.5359040694516,1386.5359040694516,1.0003375863956308,0.00034115067046035284
1386.5428486563628,1386.5428486563628,1.0004719540992266,0.0003412158260482858
1386.5497932432982,1386.5497932432982,0.9996636079501358,0.00034105876027281203
1386.5567378301628,1386.5567378301628,0.9997810272537254,0.0003411257657822223
1386.5645157673857,1386.5645157673857,1.0000160924772756,0.00034119543824145764
1386.5720159211492,1386.5720159211492,1.0001119748435463,0.00034117279176437015
1386.5789605078976,1386.5789605078976,0.999994396103627,0.00034119530117292284
1386.5859050945987,1386.5859050945987,0.9995201615138407,0.0003411176035079969
1386.5928496812774,1386.5928496812774,1.0005045215536126,0.00034125453243925044
1386.5997942679332,1386.5997942679332,0.9997761597739601,0.0003411081621303144
1386.6067388545414,1386.6067388545414,1.0000640126193003,0.00034119100195719495
1386.6136834410804,1386.6136834410804,1.0000332534548755,0.00034123482283667216
1386.620628027596,1386.620628027596,0.9999842399658891,0.00034123060812823287
1386.6275726141116,1386.6275726141116,1.0004394141703996,0.00034128729605937175
1386.6345172005335,1386.6345172005335,0.9998349527953474,0.0003411689246871405
1386.6414617869564,1386.6414617869564,1.0000935380778986,0.00034123375469187315
1386.6484063733328,1386.6484063733328,0.9991747637783842,0.0003410172067900622
1386.655350959661,1386.655350959661,0.9999966012249686,0.000341162830340998
1386.6622955459675,1386.6622955459675,1.0004858373462933,0.00034124742313524183
1386.6692401322275,1386.6692401322275,1.00038322234512,0.00034123376839463777
1386.6761847184396,1386.6761847184396,1.0002793523371796,0.00034123165964004734
1386.6831293046293,1386.6831293046293,1.0001761706430308,0.0003412189437605775
1386.6900738907727,1386.6900738907727,0.9998998454773588,0.0003411919597160906
1386.6970184768923,1386.6970184768923,0.9998949704786355,0.00034116001484095655
1386.7039630629417,1386.7039630629417,0.9999891096056388,0.0003411025782739011
1386.7109076489921,1386.7109076489921,0.999838148867312,0.00034112243850563666
1386.7178522349727,1386.7178522349727,0.9998722577944417,0.00034111663308809966
1386.7247968209053,1386.7247968209053,1.0001326470982268,0.00034109350326526447
1386.7317414068389,1386.7317414068389,0.999965697008015,0.00034114092530822943
1386.738685992773,1386.738685992773,0.999870669180287,0.00034111287787542
1386.7456305785897,1386.7456305785897,0.9997339856478848,0.00034102658395858025
1386.7525751643832,1386.7525751643832,1.0006304615900843,0.000341171468636338
1386.7595197501778,1386.7595197501778,1.0000987705562738,0.00034111836670227527
1386.7664643359017,1386.7664643359017,1.0003934700745196,0.00034114196370478415
1386.774242271867,1386.774242271867,0.9997001611856178,0.00034106607459978187
1386.7817424243729,1386.7817424243729,0.9998973222835547,0.0003410932698087242
1386.7886870100042,1386.7886870100042,0.9999411882638525,0.00034110854584920385
1386.7956315955646,1386.7956315955646,0.9999612856455549,0.00034107302312332693
1386.8025761811023,1386.8025761811023,1.0002150936510577,0.00034111843117330036
1386.8095207665936,1386.8095207665936,0.9998492982846434,0.0003411340848885847
1386.8164653520848,1386.8164653520848,0.9995537315577081,0.00034109851938480694
1386.8234099375054,1386.8234099375054,1.000077919702184,0.0003411943469389225
1386.8303545229041,1386.8303545229041,1.0005134169230736,0.00034126207429820143
1386.8372991082556,1386.8372991082556,0.9995360888997894,0.00034112030358189377
1386.8442436935368,1386.8442436935368,1.0001429430826243,0.0003411316797464429
1386.8511882788184,1386.8511882788184,1.000150599110506,0.0003411935633001521
1386.858132864054,1386.858132864054,0.9997572391018963,0.00034108897407680383
1386.8650774492419,1386.8650774492419,0.9995372295389263,0.00034107322249256946
1386.872022034407,1386.872022034407,0.9995163724300514,0.0003410847807334913
1386.8789666195257,1386.8789666195257,1.0008152107509587,0.0003412354709920425
1386.8859112046443,1386.8859112046443,1.0008595353807204,0.0003413085536580334
1386.8928557896693,1386.8928557896693,1.0001198187325067,0.00034115807039142374
1386.899800374672,1386.899800374672,0.999955682803698,0.0003411411511407689
1386.9067449596278,1386.9067449596278,0.9999096005167847,0.0003412068530610765
1386.9136895445833,1386.9136895445833,0.9991659314954118,0.0003410649142086073
1386.9206341294916,1386.9206341294916,0.9998483381148425,0.00034113317030599953
1386.9275787143317,1386.9275787143317,1.0002505945646492,0.00034122058389039425
1386.9345232991711,1386.9345232991711,0.9994755644522082,0.0003410718894601112
1386.9414678839862,1386.9414678839862,1.0001929049304834,0.00034119962507192096
1386.9484124686862,1386.9484124686862,1.0007195055615974,0.000341238639080942
1386.955357053409,1386.955357053409,0.999272839583927,0.00034105155971184337
1386.9623016380847,1386.9623016380847,0.9997540708059616,0.00034114485047428164
1386.9692462226913,1386.9692462226913,1.0001684004725948,0.0003411785548230665
1386.976190807298,1386.976190807298,0.9999894654477313,0.0003411717760171969
1386.9845243087652,1386.9845243087652,1.0001684494818952,0.000341181603425955
1386.991468893301,1386.991468893301,1.0003381491955856,0.000341178214298228
1386.998413477768,1386.998413477768,0.9997722910883047,0.0003410542589957809
1387.0053580621889,1387.0053580621889,0.9997405828468745,0.00034109617363798316
1387.0123026466078,1387.0123026466078,0.999848293234713,0.0003411053742895837
1387.0192472309584,1387.0192472309584,1.0000444560459023,0.0003411411842359715
1387.0261918152858,1387.0261918152858,0.9995852834286735,0.00034103104521095645
1387.033136399566,1387.033136399566,0.9997226367236264,0.0003410807877917977
1387.0400809838459,1387.0400809838459,1.0004532834230284,0.00034115120274045413
1387.047025568057,1387.047025568057,1.0003512934251977,0.00034120686004802226
1387.0539701522448,1387.0539701522448,1.0005812455590697,0.00034118434345149215
1387.0609147363382,1387.0609147363382,0.9994349706151727,0.00034102814163741783
1387.0678593204555,1387.0678593204555,1.00000626889944,0.0003411330863647281
1387.0748039045268,1387.0748039045268,1.0001104089397679,0.0003411119076204644
1387.0817484885279,1387.0817484885279,1.0001405319161518,0.00034113910636421395
1387.0886930725285,1387.0886930725285,0.9995416546200518,0.00034106901624346534
1387.0956376564598,1387.0956376564598,1.0002395562417745,0.00034125503128511263
1387.102582240368,1387.102582240368,0.9996642516168389,0.0003411209499278169
1387.109526824252,1387.109526824252,1.0007233326515632,0.0003413171251846991
1387.1164714081137,1387.1164714081137,1.0000629990277137,0.0003412176213063049
1387.1234159919054,1387.1234159919054,0.9999642525792529,0.0003411198415998451
1387.1303605756734,1387.1303605756734,0.9992315476029716,0.00034109734507587104
1387.1373051593714,1387.1373051593714,0.9999413427888223,0.0003411928681540637
1387.1442497430698,1387.1442497430698,1.0000620417708608,0.00034122768366355653
1387.1511943266757,1387.1511943266757,0.9996103243450222,0.00034113321038824976
1387.1581389102803,1387.1581389102803,1.0006847232701912,0.000341349265031442
1387.1650834938855,1387.1650834938855,1.0002337970846669,0.00034129382325870253
1387.1720280774446,1387.1720280774446,0.9998817001004638,0.00034119060015808925
1387.1789726609336,1387.1789726609336,0.9999069348804792,0.00034116853553074603
1387.1859172443978,1387.1859172443978,0.9998656293194752,0.00034119209076457726
1387.1928618278175,1387.1928618278175,1.000227539907716,0.00034124700054220504
1387.1998064112133,1387.1998064112133,0.9999889744126123,0.0003412217618921691
1387.2067509945623,1387.2067509945623,0.999932486951159,0.00034122595133426507
1387.2136955778647,1387.2136955778647,0.999898631862745,0.00034116264763567626
1387.2206401611443,1387.2206401611443,1.0004134582101973,0.00034125553369848314
1387.2275847443773,1387.2275847443773,0.9996731136548842,0.0003411324517506934
1387.2345293275625,1387.2345293275625,0.9999909062713153,0.00034117576932697245
1387.2414739107255,1387.2414739107255,0.9996748367691455,0.00034113757555906724
1387.2484184938655,1387.2484184938655,1.0000162533443853,0.00034118192625348176
1387.255363076912,1387.255363076912,1.0001709488356005,0.0003412403653942105
1387.2623076599345,1387.2623076599345,0.9999556544039127,0.0003412192313689093
1387.2692522429581,1387.2692522429581,1.0002159061796676,0.00034123815343221415
1387.2761968259815,1387.2761968259815,0.9999238085983808,0.0003412001511649528
1387.2831414088873,1387.2831414088873,1.0005699447276772,0.0003413020294228961
1387.2900859918177,1387.2900859918177,1.0002659392998972,0.0003412382553621608
1387.2970305746549,1387.2970305746549,0.9999775217677478,0.0003412498565783492
1387.3039751574918,1387.3039751574918,0.9992082866927984,0.00034102829567512783
1387.312586440114,1387.312586440114,0.9995359180597367,0.0003412050312477093
1387.3206421560717,1387.3206421560717,0.9996804966987183,0.0003411681110304221
1387.327586738793,1387.327586738793,1.000675205793247,0.00034132678230025645
1387.3359202379538,1387.3359202379538,1.0003243721601234,0.00034122033817610603
1387.3428648205816,1387.3428648205816,1.0001866881084738,0.0003413032323700111
1387.3506427530792,1387.3506427530792,0.9996532090692203,0.00034114834152561567
1387.3581429021847,1387.3581429021847,0.9998409140606416,0.00034121108024064335
1387.365087484719,1387.365087484719,0.9999830949325474,0.0003412170876213482
1387.3720320671605,1387.3720320671605,0.9995531027206738,0.00034114060169105866
1387.3789766495784,1387.3789766495784,1.0002886997648646,0.0003412298135028346
1387.3859212319253,1387.3859212319253,1.0003899627099084,0.0003412367940768387
1387.3928658142738,1387.3928658142738,0.9997875976602021,0.0003411826466162858
1387.3998103965753,1387.3998103965753,1.0002531676454187,0.0003412214856927876
1387.406754978853,1387.406754978853,1.000391137335297,0.0003412578150260096
1387.413699561061,1387.413699561061,0.9994538206978278,0.0003411135890392076
1387.4206441432698,1387.4206441432698,0.9997698539315876,0.0003411578318028507
1387.4275887254319,1387.4275887254319,1.0001781779865806,0.000341206424005634
1387.434533307523,1387.434533307523,1.000210375110297,0.00034119249335986694
1387.4414778895912,1387.4414778895912,0.9997220544951215,0.0003411373502264361
1387.4484224716373,1387.4484224716373,1.0000816704099207,0.0003411842882536667
1387.4553670536359,1387.4553670536359,0.9996003983008711,0.00034110522936431413
1387.4623116356108,1387.4623116356108,1.0001368328178566,0.00034123223726666277
1387.4692562175167,1387.4692562175167,1.0003046411179255,0.00034119356885561544
1387.476200799469,1387.476200799469,1.0003266341307053,0.0003411931394737582
1387.4831453813044,1387.4831453813044,0.9999115723856378,0.0003411001371120378
1387.49008996307,1387.49008996307,0.9997420728713535,0.0003411114221417643
1387.4970345448828,1387.4970345448828,1.000244490819449,0.0003411840888288377
1387.5039791266024,1387.5039791266024,0.999295572580501,0.00034096881665779866
1387.5109237082975,1387.5109237082975,1.000005935349495,0.00034115723509592854
1387.5178682899705,1387.5178682899705,1.0002623934274137,0.0003411292804175756
1387.524812871597,1387.524812871597,1.0002321161297472,0.0003411255721096682
1387.5317574532,1387.5317574532,1.000369772156852,0.00034116237363120995
1387.5387020347328,1387.5387020347328,0.9996150248343177,0.00034108219040156505
1387.5456466162425,1387.5456466162425,1.00021267303507,0.0003411943156930452
1387.5525911977525,1387.5525911977525,1.0002779503319221,0.0003411640902938887
1387.559535779169,1387.559535779169,0.9995632674703634,0.00034109711592390476
1387.566480360562,1387.566480360562,0.9998970595788679,0.0003411232862727051
1387.5734249419324,1387.5734249419324,0.9995312294165046,0.00034103051098086453
1387.5803695232794,1387.5803695232794,1.0005130112295624,0.00034118834287946384
1387.5873141045556,1387.5873141045556,0.9996621607524085,0.0003411069723662924
1387.5942586858096,1387.5942586858096,1.000186038953624,0.00034120354711228304
1387.6012032669937,1387.6012032669937,1.0002091995591016,0.0003412239986730865
1387.6081478481774,1387.6081478481774,1.000000761732967,0.0003410918524433365
1387.6150924293138,1387.6150924293138,0.9999922366942,0.00034114961770456334
1387.6220370104281,1387.6220370104281,0.9999010509897461,0.00034109788985634893
1387.628981591473,1387.628981591473,1.0003352865882917,0.00034116569438678363
1387.6359261725167,1387.6359261725167,0.9997452284416861,0.00034109867083758006
1387.6428707534906,1387.6428707534906,0.999990789807811,0.00034115248261275787
1387.6498153344419,1387.6498153344419,1.0003746553141963,0.0003412099188208245
1387.6567599153466,1387.6567599153466,0.9996956563511624,0.0003410884127052382
1387.6637044962267,1387.6637044962267,0.9996709015171248,0.0003410978157215008
1387.6706490770616,1387.6706490770616,1.0001241937879526,0.00034119389847857127
1387.6775936578729,1387.6775936578729,1.0001001258972844,0.00034119025720553953
1387.6845382385916,1387.6845382385916,0.999940085174582,0.0003411518895088624
1387.6914828193553,1387.6914828193553,0.9997679287455883,0.0003411110112158804
1387.6984274000038,1387.6984274000038,0.9998315743644044,0.0003411424684150059
1387.7053719806759,1387.7053719806759,1.0000654977416643,0.00034121410338608865
1387.7123165612777,1387.7123165612777,1.0004333436094006,0.0003412264955987057
1387.7192611418782,1387.7192611418782,1.0004673501232142,0.00034122721755153196
