time,time,flux,flux_err
1517.3666784312293,1517.3666784312293,0.9999701485274869,0.0011460332705194982
1517.375289808158,1517.375289808158,0.9995302899166745,0.0011014801102515923
1517.3825122538465,1517.3825122538465,0.9995310463732323,0.0010670509041458506
1517.389456913492,1517.389456913492,1.0015432745427724,0.0010370251551923794
1517.3964015736033,1517.3964015736033,1.0007064035357425,0.0010099156287796313
1517.404735166072,1517.404735166072,0.9997925181443602,0.000982631183401713
1517.4116798267419,1517.4116798267419,1.0009885802979415,0.0009601972057568889
1517.4186244878779,1517.4186244878779,1.0003543618620736,0.0009399612802857338
1517.4255691492924,1517.4255691492924,1.0000155058522802,0.0009216224805586717
1517.4325138110803,1517.4325138110803,1.0009353008507695,0.0009055552039742622
1517.4394584732404,1517.4394584732404,0.9990538147046039,0.0008906552045827322
1517.4464031354935,1517.4464031354935,1.0000510391078659,0.0008778303711744588
1517.4533477981192,1517.4533477981192,0.9986685324903721,0.0008655469731666674
1517.4602924613039,1517.4602924613039,0.9996738051528965,0.0008546089754397475
1517.4672371245815,1517.4672371245815,0.9997897040366045,0.0008446618081340177
1517.4741817880454,1517.4741817880454,0.9995363311667379,0.0008357554023101954
1517.4811264518821,1517.4811264518821,1.0017027640127956,0.000827666865673369
1517.488071116091,1517.488071116091,0.9998316564877634,0.0008197480637726573
1517.4950157803935,1517.4950157803935,0.9997767532420749,0.0008127980626700894
1517.5019604450677,1517.5019604450677,1.0015771714898847,0.0008069870964146209
1517.5089051097427,1517.5089051097427,1.0004626970212325,0.0008009266470340975
1517.515849774976,1517.515849774976,1.0001402193348194,0.0007963310465288177
1517.5227944403027,1517.5227944403027,0.9991741482354628,0.0007912064818541094
1517.529739105909,1517.529739105909,0.9998022186326636,0.0007871933335748497
1517.5366837716076,1517.5366837716076,0.999954192143694,0.000783743995856661
1517.543628437586,1517.543628437586,0.9997457458175758,0.0007801874689125835
1517.550573103844,1517.550573103844,1.0004151841148368,0.0007780078567215356
1517.5575177702885,1517.5575177702885,1.0005140732387805,0.0007750100476007115
1517.5644624368258,1517.5644624368258,0.999298129239923,0.000773047076119082
1517.5714071037357,1517.5714071037357,1.0009254458876606,0.0007713365221023281
1517.5783517708314,1517.5783517708314,1.0000383984410541,0.0007696639018336816
1517.5852964377418,1517.5852964377418,0.9993380521065172,0.0007681377693008655
1517.5922411051172,1517.5922411051172,0.9999440304981503,0.0007673081942440573
1517.5991857729582,1517.5991857729582,0.9998420885306849,0.000766166472153513
1517.6061304405205,1517.6061304405205,0.9992982388335371,0.0007658034623896006
1517.613075108454,1517.613075108454,1.0000142232335163,0.0007654169811203035
1517.620019776482,1517.620019776482,1.0013564723468638,0.0007647135824101952
1517.626964444696,1517.626964444696,0.9998338980435522,0.000764185702968155
1517.6339091130023,1517.6339091130023,0.9999935895830298,0.0007641749112963769
1517.6408537814955,1517.6408537814955,0.9999224000569393,0.0007635602371606432
1517.6477984502678,1517.6477984502678,0.999941102547462,0.0007630497995389106
1517.6547431190406,1517.6547431190406,1.0009345100443472,0.0007629236387204329
1517.6616877879062,1517.6616877879062,1.0006555680079372,0.0007628026286833935
1517.668632457051,1517.668632457051,0.9990587003306223,0.0007615439556369265
1517.675577126196,1517.675577126196,0.9988546607585329,0.0007606742643899546
1517.6825217954342,1517.6825217954342,0.9999435720523759,0.0007600475518484822
1517.6894664649517,1517.6894664649517,1.000840119339268,0.0007590526450259373
1517.6964111343764,1517.6964111343764,1.0003152149029044,0.0007575052882723877
1517.7033558040798,1517.7033558040798,0.9990844162707588,0.0007554872816041891
1517.7103004737837,1517.7103004737837,0.998947812859677,0.0007534828574232114
1517.7172451439533,1517.7172451439533,0.9995804561743796,0.0007513356050965262
1517.7241898137502,1517.7241898137502,0.9995489020158841,0.0007489163094593837
1517.7311344839197,1517.7311344839197,0.9997585992398506,0.0007460754372665423
1517.7380791540893,1517.7380791540893,0.9984808481454692,0.0007429599412867563
1517.7450238243516,1517.7450238243516,0.9997281169954177,0.0007406268543424055
1517.7519684946142,1517.7519684946142,1.0089046842595772,0.000739321000167581
1517.7589131651564,1517.7589131651564,0.9998400185071405,0.0007341616312621319
1517.7658578356982,1517.7658578356982,1.0012167270740242,0.0007311159126292017
1517.7728025063338,1517.7728025063338,0.999644228902539,0.0007273669246880188
1517.7797471769686,1517.7797471769686,1.0001058960638947,0.0007233286396606987
1517.7866918477903,1517.7866918477903,0.9994145240256735,0.0007197787664148769
1517.7936365185183,1517.7936365185183,0.9997109830865373,0.0007156468191580533
1517.8005811896192,1517.8005811896192,0.9993587654440736,0.0007120190600805804
1517.8075258604404,1517.8075258604404,0.9998130779496618,0.0007082784571604374
1517.8144705315415,1517.8144705315415,1.0000216539355586,0.0007046261693479135
1517.8214152026424,1517.8214152026424,1.0011260826207744,0.0007014327355593159
1517.8283598738362,1517.8283598738362,0.9988721377410584,0.0006975708513548564
1517.8353045450299,1517.8353045450299,1.000519490209594,0.000695193960446505
1517.8422492163172,1517.8422492163172,1.0017381658137023,0.0006916071497878151
1517.849193887604,1517.849193887604,0.9996562674622238,0.0006886986457076315
1517.8561385590774,1517.8561385590774,1.0001308237249988,0.000685721858912305
1517.8630832303647,1517.8630832303647,1.0000473538671302,0.0006827684645033955
1517.8700279019308,1517.8700279019308,1.0003021458709562,0.0006807409559986897
1517.8769725734046,1517.8769725734046,0.9999104153012632,0.0006783085204412796
1517.8839172449705,1517.8839172449705,0.9995432466589514,0.0006759784008410433
1517.890861916537,1517.890861916537,0.9996532350466726,0.000674050237933256
1517.897806588197,1517.897806588197,0.9998955327416734,0.0006724635192852692
1517.9047512598565,1517.9047512598565,0.999696307925807,0.0006712821935073862
1517.911695931516,1517.911695931516,0.999358277487192,0.0006695701855331063
1517.9186406032688,1517.9186406032688,1.0007966095001264,0.0006686588808552164
1517.9255852751146,1517.9255852751146,0.9991258494745047,0.0006676430911075051
1517.9325299466807,1517.9325299466807,1.0015502754349366,0.000667405631641454
1517.9394746187131,1517.9394746187131,1.0009909863782978,0.0006672788804309117
1517.9475304378977,1517.9475304378977,0.9996432089335059,0.0006658915150081776
1517.9547528967182,1517.9547528967182,1.000926630513192,0.0006663510182644976
1517.9616975686572,1517.9616975686572,1.0001462850934733,0.0006667301196905917
1517.9686422403167,1517.9686422403167,0.9992404081790738,0.000666370830680582
1517.9755869123487,1517.9755869123487,1.0004637926187057,0.0006673545520035964
1517.982531584381,1517.982531584381,1.0009779547204094,0.0006678035448449081
1517.9894762564131,1517.9894762564131,0.9996094411952736,0.0006680958023948891
1517.99642092798,1517.99642092798,0.9999319937027012,0.0006692248122380855
1518.0033656000114,1518.0033656000114,0.9993808590059695,0.0006696299348569677
1518.0103102720436,1518.0103102720436,0.999804146535704,0.0006707482920422236
1518.0172549440758,1518.0172549440758,0.9988941769030081,0.0006713754490790498
1518.0241996161078,1518.0241996161078,1.0001942298121922,0.0006732358263543722
1518.0311442881402,1518.0311442881402,1.0001743894073443,0.0006742631289189171
1518.0380889601722,1518.0380889601722,1.0013660361514207,0.0006753114284340875
1518.0450336321112,1518.0450336321112,1.000219499207726,0.0006766897426368407
1518.0519783037707,1518.0519783037707,1.0006432887043026,0.0006778256811145261
1518.0589229758032,1518.0589229758032,0.9987467294243613,0.0006787402862113431
1518.0658676478347,1518.0658676478347,1.000050130803561,0.0006800234597945085
1518.0728123198674,1518.0728123198674,0.9998850113373704,0.0006806159459877896
1518.079756991899,1518.079756991899,0.9998562745420114,0.0006818692189690613
1518.0867016639313,1518.0867016639313,0.9994246015657826,0.0006833094727585743
1518.0936463359635,1518.0936463359635,1.0007377389148353,0.0006835036165673869
1518.1005910075298,1518.1005910075298,0.9988841882257156,0.0006841698281518804
1518.107535679562,1518.107535679562,1.0002525870699006,0.0006853620177813635
1518.114480351594,1518.114480351594,0.9997021729082063,0.0006855659544111097
1518.1214250236262,1518.1214250236262,1.0000731383349295,0.0006860341621202214
1518.1283696951928,1518.1283696951928,0.9993780427172319,0.0006860382213778735
1518.1353143672247,1518.1353143672247,1.0024444991245751,0.000687203716820211
1518.1422590391637,1518.1422590391637,1.0002220466163787,0.0006866503573449218
1518.1492037108233,1518.1492037108233,1.0007862182918141,0.0006858720047229427
1518.1561483828555,1518.1561483828555,0.9989531592181173,0.0006854991548226606
1518.1630930544218,1518.1630930544218,0.9974827888455733,0.0006843636941567118
1518.170037726454,1518.170037726454,1.0000790951782248,0.0006843022025637538
1518.1769823980208,1518.1769823980208,0.9999703360852724,0.0006827835960595333
1518.1839270698663,1518.1839270698663,0.9996158073893925,0.0006819437898406206
1518.190871741619,1518.190871741619,1.0002734242406182,0.0006810120669919939
1518.1978164131856,1518.1978164131856,0.9997749798517145,0.000679460851493891
1518.2047610848447,1518.2047610848447,0.9993073431069537,0.0006773198626692668
1518.2117057565047,1518.2117057565047,1.0001117109450068,0.0006759009318471256
1518.2186504281642,1518.2186504281642,0.9998884127966965,0.0006736777431080366
1518.2255950997308,1518.2255950997308,1.000475659033831,0.0006717197752843318
1518.2325397712973,1518.2325397712973,0.9991396301609011,0.0006692199853176344
1518.2394844427704,1518.2394844427704,1.0000204708377953,0.0006670419434088057
1518.246429114337,1518.246429114337,0.99946385763637,0.0006652491459220036
1518.2533737858103,1518.2533737858103,0.9997900904134521,0.0006634937697433849
1518.2603184570976,1518.2603184570976,0.9996272974945908,0.0006607956647092294
1518.2675409154515,1518.2675409154515,0.9989018485594681,0.000659036120779285
1518.2755967341711,1518.2755967341711,1.001153052086313,0.0006570787521597437
1518.282541405458,1518.282541405458,1.0025183696629494,0.0006555248380678599
1518.289486076745,1518.289486076745,1.001877732769112,0.0006536039580204634
1518.296430747939,1518.296430747939,1.0008872698853934,0.0006517947105682076
1518.303375419226,1518.303375419226,0.9985704242136393,0.000649974163150276
1518.31032009042,1518.31032009042,0.9998914170578763,0.0006484421850891257
1518.318653695741,1518.318653695741,0.9991280206494901,0.0006474070314070661
1518.3255983668416,1518.3255983668416,0.9986455205977028,0.0006457637708370736
1518.3325430379427,1518.3325430379427,1.0004084429021998,0.0006449726510608911
1518.339487708857,1518.339487708857,0.9997085571129807,0.0006437344783172377
1518.3464323798646,1518.3464323798646,0.9995034484659691,0.0006432207098367637
1518.3533770507793,1518.3533770507793,1.0011602113411904,0.0006421639530307608
1518.3603217216005,1518.3603217216005,1.0007726868765547,0.0006418140387088276
1518.367266392515,1518.367266392515,0.9996187678634328,0.0006408398414396808
1518.3742110632434,1518.3742110632434,0.9990937831672552,0.0006401858367671846
1518.3811557339711,1518.3811557339711,1.0005621449595012,0.00064032293556869
1518.3881004046066,1518.3881004046066,1.0000723779415648,0.0006404876737888254
1518.395045075335,1518.395045075335,1.000639030181413,0.0006402080586744592
1518.401989745877,1518.401989745877,0.9991428063995847,0.0006404515064512363
1518.408934416419,1518.408934416419,1.001548167464576,0.0006411718932220713
1518.4167124473254,1518.4167124473254,1.0010681680520297,0.0006419342100672358
1518.4242126914437,1518.4242126914437,1.0014152255526727,0.0006434507138413798
1518.431157361893,1518.431157361893,1.0005327744726729,0.0006441618259675171
1518.4381020322483,1518.4381020322483,0.9990708306785884,0.0006447429369380595
1518.4450467025106,1518.4450467025106,0.9989618395854583,0.0006460944591958539
1518.4519913727734,1518.4519913727734,1.00054089101058,0.0006473512141556222
1518.4589360429432,1518.4589360429432,0.998967552092591,0.000648867373306937
1518.4672696471466,1518.4672696471466,0.9968068866346389,0.0006494419677331912
1518.4742143172225,1518.4742143172225,1.0001596486631317,0.0006523815344317186
1518.4811589872993,1518.4811589872993,0.9997115636944158,0.0006534045940727728
1518.488103657096,1518.488103657096,1.000746784665171,0.0006549439616438105
1518.4950483272655,1518.4950483272655,0.9998902664090104,0.000656185556058164
1518.501992996969,1518.501992996969,1.000120953307657,0.0006574146544384403
1518.5089376666729,1518.5089376666729,0.9993136669236128,0.0006588049721067921
1518.5158823363768,1518.5158823363768,0.9992193201578174,0.0006601728543308351
1518.5228270060802,1518.5228270060802,1.0005229182030446,0.0006617907886341253
1518.5297716757843,1518.5297716757843,1.003132672463651,0.0006637809839478201
1518.536716345488,1518.536716345488,1.0014564552874217,0.0006645275315657981
1518.5436610150055,1518.5436610150055,0.9987504098237354,0.0006659171698557403
1518.5506056844301,1518.5506056844301,0.9990567716480822,0.0006672115289354593
1518.5575503538546,1518.5575503538546,1.0005006511105405,0.0006683798489520185
1518.564495023186,1518.564495023186,0.998555714395799,0.0006695279398418932
1518.571439692517,1518.571439692517,0.9996210585276641,0.0006702682756415353
1518.578384361755,1518.578384361755,0.9993196343705988,0.0006707787325502809
1518.5853290309,1518.5853290309,0.9992468049515473,0.000671322131032771
1518.5922737000456,1518.5922737000456,1.000806937189692,0.0006720756854041046
1518.599218369097,1518.599218369097,1.0011340323014108,0.000671980259084892
1518.606163038056,1518.606163038056,1.0000368125433063,0.0006714445382179767
1518.6131077069215,1518.6131077069215,0.9994661707471943,0.0006708948304325172
1518.6200523758798,1518.6200523758798,0.9988315580005631,0.0006705011113238017
1518.6269970446524,1518.6269970446524,0.9990805983023302,0.0006692512089821819
1518.6339417134252,1518.6339417134252,1.0004063800548533,0.000668765483105503
1518.6408863821046,1518.6408863821046,0.9999459551936907,0.0006675374831128384
1518.6478310505977,1518.6478310505977,0.9991150201993108,0.0006660503626963255
1518.6547757191838,1518.6547757191838,0.9998279580244258,0.0006645328851177152
1518.6617203876767,1518.6617203876767,1.000397157339901,0.0006631906177478888
1518.66866505617,1518.66866505617,0.9990489943155367,0.0006609915438743866
1518.6756097244768,1518.6756097244768,1.0011830672321063,0.000659342388889261
1518.6825543927832,1518.6825543927832,0.9991696835903923,0.0006579920673464177
1518.689499060997,1518.689499060997,1.0004803483896663,0.0006562505683962639
1518.6964437291176,1518.6964437291176,1.0000721986749768,0.0006544386095414763
1518.7033883972385,1518.7033883972385,1.0016634188115625,0.0006528476213470328
1518.7103330653586,1518.7103330653586,0.9993105247981415,0.0006501571824434115
1518.717277733293,1518.717277733293,1.000660229269992,0.0006490904125218042
1518.724222401134,1518.724222401134,0.9987865479358569,0.000646909342047664
1518.7311670689753,1518.7311670689753,1.0003638808492175,0.0006451971079255703
1518.7381117367236,1518.7381117367236,0.9993620281707388,0.0006439334895434655
1518.7450564044714,1518.7450564044714,0.9996939719481748,0.0006430471426342726
1518.7520010721262,1518.7520010721262,1.0008308366145828,0.0006427237461296561
1518.758945739688,1518.758945739688,1.0034914407559234,0.0006418307933323246
1518.7658904070638,1518.7658904070638,0.9999620079232473,0.0006396630135009873
1518.7728350744387,1518.7728350744387,0.9999194089994511,0.0006387482792738685
1518.7797797418148,1518.7797797418148,0.9983172326654923,0.0006376585827453883
1518.78672440919,1518.78672440919,0.9979860169990269,0.0006376440729776737
1518.793669076472,1518.793669076472,0.9995957863129883,0.0006371282416125872
1518.8006137434754,1518.8006137434754,0.9981693782681192,0.0006361802215590463
1518.8075584105713,1518.8075584105713,1.0002871481166704,0.0006366950887912594
1518.814503077574,1518.814503077574,1.0022671981062712,0.0006372137086729482
1518.821447744484,1518.821447744484,1.000529089102519,0.0006367909437816063
1518.8283924113941,1518.8283924113941,1.001179089165011,0.0006368273278363956
1518.8353370782104,1518.8353370782104,1.0008256360654335,0.0006368338448980159
1518.8422817448413,1518.8422817448413,1.000762388304962,0.0006368634560101068
1518.8492264115648,1518.8492264115648,1.0002854662068732,0.0006385932267908765
1518.856171078102,1518.856171078102,1.0008282838666658,0.0006394761941500898
1518.8631157445463,1518.8631157445463,0.9987373757655555,0.0006401901568684893
1518.8700604109902,1518.8700604109902,0.9983639431768099,0.0006405033593876576
1518.8770050773414,1518.8770050773414,1.0007012596321765,0.0006424974681480979
1518.8839497436925,1518.8839497436925,1.0002811617944176,0.0006436313853548871
1518.89089440995,1518.89089440995,1.0005255867146114,0.0006448248202106155
1518.8978390759287,1518.8978390759287,0.9985240007545524,0.0006463844251825346
1518.9047837420003,1518.9047837420003,0.9997355146183604,0.0006479600200562819
1518.9117284079784,1518.9117284079784,0.9996562767956367,0.0006493526114438438
1518.918673073957,1518.918673073957,1.0007913374317876,0.0006514907995944853
1518.9256177397497,1518.9256177397497,1.0001442691836817,0.0006528403565888143
1518.9325624055416,1518.9325624055416,1.0007766255068833,0.0006544458831350764
1518.9395070712408,1518.9395070712408,1.0000273681504044,0.0006557375303615574
1518.946451736847,1518.946451736847,1.000070812022614,0.0006573873311015708
1518.9533964023597,1518.9533964023597,1.0000067321197956,0.0006584788874906526
1518.960341067873,1518.960341067873,1.0004920743186478,0.0006601485831024821
1518.9672857331993,1518.9672857331993,0.9993076091895375,0.0006615063312909155
1518.9742303985258,1518.9742303985258,0.9993919246993007,0.0006634315661750707
1518.9811750635731,1518.9811750635731,0.9989701772708889,0.0006641514142542639
1518.9881197290858,1518.9881197290858,0.9998682951942621,0.0006652407116951732
1518.9950643941324,1518.9950643941324,0.99820018006617,0.0006656066591653306
1519.0020090590872,1519.0020090590872,1.0016275636527205,0.0006682727161834305
1519.0089537237618,1519.0089537237618,1.0058342986599136,0.0006692797708995263
1519.0158983888086,1519.0158983888086,1.0008514033178095,0.0006691295460830909
1519.0228430534833,1519.0228430534833,1.0008597103407895,0.0006701669255574207
1519.029787718251,1519.029787718251,0.999973562684833,0.0006700557890920632
1519.0367323828327,1519.0367323828327,0.9991357014472946,0.0006700045310209837
1519.0436770474141,1519.0436770474141,0.9989094416458965,0.0006700192380110772
1519.0506217119025,1519.0506217119025,0.9989985005128823,0.00066980492479315
1519.057566376205,1519.057566376205,0.9987345744767131,0.0006696929629494455
1519.0645110405999,1519.0645110405999,0.9999781971799406,0.0006695948941346193
1519.0714557047156,1519.0714557047156,1.0004711669894246,0.0006696261506967522
1519.0784003689248,1519.0784003689248,1.0006887371836817,0.000668481786839798
1519.0853450329473,1519.0853450329473,1.0004286202336654,0.0006668326503478717
1519.09228969697,1519.09228969697,0.9998158321931822,0.0006654146922721628
1519.0992343608996,1519.0992343608996,0.9994736750677531,0.0006636605028628713
1519.1061790247363,1519.1061790247363,0.9988825546011212,0.0006614858764745939
1519.1131236883862,1519.1131236883862,0.9977427941280761,0.00065950340113635
1519.12006835213,1519.12006835213,0.997524948587953,0.0006571068265139147
1519.1270130157795,1519.1270130157795,0.9981465941126151,0.0006548732562393842
1519.1339576792438,1519.1339576792438,0.9996507164328889,0.0006538452859523164
1519.1409023427072,1519.1409023427072,1.0079777572719169,0.0006536800321057779
