time,time,flux,flux_err
1354.1119780042818,1354.1119780042818,1.0105444,0.0043859053
1354.1133669121555,1354.1133669121555,1.0045987,0.004379468
1354.1161447276681,1354.1161447276681,1.0072333,0.0043758573
1354.117533635309,1354.117533635309,1.0068231,0.0043860185
1354.1189225431822,1354.1189225431822,1.0071973,0.00438719
1354.1203114508223,1354.1203114508223,1.003413,0.0043772766
1354.1217003586953,1354.1217003586953,1.0037023,0.0043778433
1354.1230892663361,1354.1230892663361,1.0064042,0.0043807593
1354.12447817421,1354.12447817421,1.0060664,0.004379928
1354.1258670818502,1354.1258670818502,1.0055462,0.0043777362
1354.1272559897234,1354.1272559897234,1.0083073,0.0043817624
1354.1286448973633,1354.1286448973633,1.007087,0.0043777134
1354.1300338052365,1354.1300338052365,1.0037037,0.0043767565
1354.1314227128773,1354.1314227128773,1.0009693,0.004375854
1354.1328116207505,1354.1328116207505,1.00441,0.0043809097
1354.1342005283905,1354.1342005283905,1.0083884,0.0043822317
1354.1355894362644,1354.1355894362644,1.0034922,0.004379338
1354.1369783439045,1354.1369783439045,1.0057045,0.0043800105
1354.1383672517782,1354.1383672517782,1.0067677,0.0043777297
1354.1397561594185,1354.1397561594185,1.0009084,0.0043765656
1354.1411450672908,1354.1411450672908,1.0077302,0.0043764166
1354.1425339749317,1354.1425339749317,1.0142658,0.004389316
1354.1439228828053,1354.1439228828053,1.0059716,0.0043807076
1354.1453117904457,1354.1453117904457,1.0147605,0.004387612
1354.1467006983187,1354.1467006983187,1.006192,0.004381302
1354.1480896059588,1354.1480896059588,1.0061771,0.0043823468
1354.1494785138325,1354.1494785138325,1.0007204,0.0043780473
1354.1508674214735,1354.1508674214735,1.0093946,0.0043844786
1354.152256329346,1354.152256329346,1.003705,0.004377301
1354.153645236986,1354.153645236986,0.99774635,0.0043710354
1354.1550341448597,1354.1550341448597,1.0022309,0.0043742075
1354.1564230525007,1354.1564230525007,1.0068957,0.0043794294
1354.1578119603737,1354.1578119603737,1.00496,0.004382687
1354.1592008680132,1354.1592008680132,1.0027052,0.0043785544
1354.1605897758868,1354.1605897758868,1.0116105,0.0043856134
1354.1619786835279,1354.1619786835279,1.0102336,0.004387419
1354.1633675914009,1354.1633675914009,1.0104489,0.0043838653
1354.1647564990412,1354.1647564990412,1.0042787,0.0043805637
1354.166145406914,1354.166145406914,1.0025418,0.0043750317
1354.167534314555,1354.167534314555,1.0062078,0.004381889
1354.168923222196,1354.168923222196,1.0045094,0.0043810117
1354.1703121300684,1354.1703121300684,1.0061796,0.0043819933
1354.1717010377085,1354.1717010377085,1.0086876,0.004382022
1354.1730899455824,1354.1730899455824,1.003857,0.004377662
1354.1744788532224,1354.1744788532224,1.0016646,0.004375532
1354.175867761096,1354.175867761096,0.99695706,0.004369582
1354.1772566687364,1354.1772566687364,1.0067366,0.0043798606
1354.1786455766096,1354.1786455766096,1.0107431,0.004384024
1354.1800344842504,1354.1800344842504,1.0098982,0.0043825293
1354.1814233921232,1354.1814233921232,1.0029694,0.004372899
1354.1828122997642,1354.1828122997642,1.009933,0.0043815984
1354.1842012076372,1354.1842012076372,0.9983567,0.004374123
1354.1855901152767,1354.1855901152767,1.0073209,0.004377386
1354.1869790231506,1354.1869790231506,1.0068642,0.0043782103
1354.1883679307916,1354.1883679307916,1.0030818,0.004374212
1354.1897568386644,1354.1897568386644,1.0006312,0.0043733483
1354.1911457463048,1354.1911457463048,1.0028512,0.004376459
1354.1925346541777,1354.1925346541777,1.0006536,0.004376834
1354.1939235618188,1354.1939235618188,1.0033897,0.0043787444
1354.1953124696925,1354.1953124696925,1.003177,0.0043754424
1354.196701377332,1354.196701377332,1.010005,0.0043814504
1354.198090285205,1354.198090285205,1.0098431,0.0043815165
1354.199479192846,1354.199479192846,0.9995733,0.004377201
1354.2008681007196,1354.2008681007196,1.0081109,0.0043799803
1354.2022570083595,1354.2022570083595,1.009314,0.004381701
1354.203645916232,1354.203645916232,1.0025223,0.004375235
1354.2050348238731,1354.2050348238731,1.0078838,0.004383314
1354.2064237317468,1354.2064237317468,0.9927913,0.004367946
1354.2078126393867,1354.2078126393867,0.998851,0.0043725315
1354.20920154726,1354.20920154726,1.0078274,0.0043775053
1354.2105904549003,1354.2105904549003,1.007083,0.004377414
1354.211979362774,1354.211979362774,1.0043092,0.0043814876
1354.2133682704148,1354.2133682704148,1.0070843,0.004380381
1354.214757178287,1354.214757178287,1.002855,0.0043782117
1354.2161460859274,1354.2161460859274,0.999243,0.0043730508
1354.217534993801,1354.217534993801,1.0000522,0.004376665
1354.2189239014413,1354.2189239014413,1.0044806,0.0043758377
1354.2203128093151,1354.2203128093151,1.0019671,0.0043750294
1354.221701716955,1354.221701716955,1.0007229,0.0043754256
1354.2230906248283,1354.2230906248283,1.0039655,0.0043785083
1354.224479532469,1354.224479532469,1.0020926,0.0043700202
1354.2258684403423,1354.2258684403423,1.0018629,0.0043755923
1354.2272573479822,1354.2272573479822,1.0001005,0.0043738093
1354.2286462556226,1354.2286462556226,0.99924415,0.004371367
1354.2300351634956,1354.2300351634956,1.0022902,0.004377177
1354.2314240711366,1354.2314240711366,1.0020633,0.0043779043
1354.2328129790103,1354.2328129790103,1.0078391,0.0043801405
1354.2342018866505,1354.2342018866505,1.0046452,0.004379918
1354.2355907945234,1354.2355907945234,1.0046175,0.004383539
1354.2369797021638,1354.2369797021638,1.0052038,0.0043774187
1354.2383686100375,1354.2383686100375,0.9977294,0.0043729865
1354.2397575176783,1354.2397575176783,1.0139235,0.0043848674
1354.2411464255506,1354.2411464255506,1.0038539,0.004378068
1354.242535333191,1354.242535333191,1.0033233,0.004379007
1354.2439242410646,1354.2439242410646,1.003476,0.0043790643
1354.2453131487055,1354.2453131487055,1.0048437,0.004374801
1354.2467020565787,1354.2467020565787,1.0017136,0.004378644
1354.2480909642181,1354.2480909642181,0.9976072,0.0043700067
1354.249479871859,1354.249479871859,1.0068958,0.004381475
1354.2508687797326,1354.2508687797326,1.0038347,0.0043751304
1354.252257687373,1354.252257687373,1.002854,0.0043807304
1354.2536465952458,1354.2536465952458,1.0023203,0.004374773
1354.2550355028861,1354.2550355028861,1.0077218,0.004379379
1354.2564244107598,1354.2564244107598,1.0037863,0.0043723797
1354.2578133184006,1354.2578133184006,0.99984825,0.004373931
1354.259202226273,1354.259202226273,1.0039406,0.0043787137
1354.2605911339133,1354.2605911339133,1.0026574,0.0043723066
1354.261980041787,1354.261980041787,1.0007658,0.0043762806
1354.2633689494273,1354.2633689494273,1.0069342,0.004377484
1354.2647578570682,1354.2647578570682,0.9968045,0.004368111
1354.2661467649411,1354.2661467649411,1.0039442,0.004376517
1354.2675356725813,1354.2675356725813,1.004592,0.004378924
1354.268924580455,1354.268924580455,1.0001348,0.004369937
1354.2703134880953,1354.2703134880953,0.997075,0.0043739467
1354.2717023959685,1354.2717023959685,0.9991307,0.0043682377
1354.2730913036085,1354.2730913036085,1.0026519,0.0043765763
1354.2744802114817,1354.2744802114817,1.0127605,0.004385736
1354.2758691191225,1354.2758691191225,1.0085386,0.004382495
1354.2772580267633,1354.2772580267633,1.0039669,0.00437434
1354.2786469346365,1354.2786469346365,0.9994125,0.0043762834
1354.2800358422764,1354.2800358422764,0.99453384,0.0043665706
1354.2814247501497,1354.2814247501497,0.9999877,0.0043749637
1354.2828136577905,1354.2828136577905,0.99813396,0.0043736417
1354.2842025656637,1354.2842025656637,1.0030347,0.00437512
1354.2855914733032,1354.2855914733032,1.0085151,0.004381285
1354.286980380944,1354.286980380944,1.0054183,0.004375815
1354.2883692888176,1354.2883692888176,0.9982176,0.004370917
1354.2897581964585,1354.2897581964585,1.0004941,0.004373244
1354.2911471043317,1354.2911471043317,1.0070622,0.004378316
1354.2925360119712,1354.2925360119712,1.0059321,0.0043762564
1354.2939249198448,1354.2939249198448,0.9983125,0.004369467
1354.2953138274856,1354.2953138274856,1.0122555,0.004382815
1354.2967027351253,1354.2967027351253,1.008004,0.004380534
1354.2980916429983,1354.2980916429983,0.9998266,0.0043720407
1354.2994805506391,1354.2994805506391,1.0053809,0.0043763462
1354.3008694585128,1354.3008694585128,1.0027975,0.0043742317
1354.3022583661539,1354.3022583661539,1.0006859,0.0043732296
1354.3036472737936,1354.3036472737936,0.99522924,0.0043677604
1354.3050361816663,1354.3050361816663,0.9986798,0.004371772
1354.3064250893071,1354.3064250893071,1.0018442,0.004373778
1354.3078139971803,1354.3078139971803,1.0118861,0.00438506
1354.3092029048212,1354.3092029048212,0.99551094,0.004368668
1354.3105918124616,1354.3105918124616,1.002349,0.004378065
1354.3119807203345,1354.3119807203345,0.9992613,0.0043689692
1354.3133696279756,1354.3133696279756,1.0058826,0.004380434
1354.3147585358483,1354.3147585358483,0.9994261,0.0043690205
1354.3161474434887,1354.3161474434887,1.0061514,0.004376598
1354.3175363511289,1354.3175363511289,1.005562,0.0043778005
1354.3189252590018,1354.3189252590018,1.0100795,0.0043810685
1354.3203141666427,1354.3203141666427,1.0069891,0.0043762904
1354.3217030745163,1354.3217030745163,1.010842,0.00438381
1354.3230919821567,1354.3230919821567,1.0020511,0.004374801
1354.324480889797,1354.324480889797,1.0032977,0.0043766703
1354.3258697976698,1354.3258697976698,0.99858505,0.0043717045
1354.3272587053107,1354.3272587053107,0.9996253,0.0043732165
1354.3286476131839,1354.3286476131839,0.99265325,0.0043693003
1354.3300365208233,1354.3300365208233,0.9978905,0.004366352
1354.3314254284642,1354.3314254284642,1.0054928,0.0043775667
1354.332814336338,1354.332814336338,1.0026758,0.0043757986
1354.3342032439791,1354.3342032439791,0.99801,0.004369278
1354.335592151619,1354.335592151619,1.0016526,0.0043729944
1354.3369810594913,1354.3369810594913,1.0115117,0.004381643
1354.3383699671324,1354.3383699671324,0.99993044,0.004374754
1354.3397588747735,1354.3397588747735,0.99737084,0.0043683066
1354.3411477826457,1354.3411477826457,1.0077547,0.0043793307
1354.3425366902857,1354.3425366902857,1.0036907,0.0043733427
1354.3439255981596,1354.3439255981596,0.9999137,0.0043694996
1354.3453145058006,1354.3453145058006,1.0018592,0.0043761223
1354.3467034134414,1354.3467034134414,1.005333,0.0043786536
1354.3480923213137,1354.3480923213137,0.996038,0.0043688403
1354.349481228954,1354.349481228954,0.99877906,0.0043726885
1354.350870136595,1354.350870136595,1.0014138,0.0043727676
1354.3522590444677,1354.3522590444677,0.9927864,0.0043673315
1354.353647952108,1354.353647952108,0.99668497,0.004369547
1354.3550368597482,1354.3550368597482,1.0034254,0.0043741316
1354.356425767622,1354.356425767622,0.9974235,0.0043682754
1354.357814675263,1354.357814675263,1.0028597,0.004375701
1354.359203582903,1354.359203582903,1.0044138,0.0043783947
1354.360592490776,1354.360592490776,0.99967086,0.0043702284
1354.3619813984164,1354.3619813984164,1.0055922,0.0043789344
1354.3633703060564,1354.3633703060564,0.99928004,0.004368575
1354.3647592139303,1354.3647592139303,1.000366,0.004373137
1354.3661481215713,1354.3661481215713,0.9941232,0.00436517
1354.3675370292112,1354.3675370292112,1.0051732,0.0043771896
1354.3689259370844,1354.3689259370844,1.0035224,0.004380335
1354.3703148447246,1354.3703148447246,1.0049567,0.004378737
1354.3717037523656,1354.3717037523656,1.0069286,0.004376179
1354.3730926600056,1354.3730926600056,1.0058461,0.004373408
1354.3744815678779,1354.3744815678779,1.001247,0.0043701334
1354.375870475519,1354.375870475519,0.99916476,0.0043709585
1354.37725938316,1354.37725938316,1.0006832,0.004364602
1354.3786482910336,1354.3786482910336,1.001987,0.0043725814
1354.3800371986738,1354.3800371986738,1.0075572,0.004379511
1354.3814261063135,1354.3814261063135,0.99600387,0.004369448
1354.3828150141871,1354.3828150141871,0.99334276,0.0043635615
1354.384203921828,1354.384203921828,1.005472,0.004377572
1354.3855928294674,1354.3855928294674,0.9998782,0.004371317
1354.3869817371078,1354.3869817371078,1.0026314,0.0043745306
1354.3883706449815,1354.3883706449815,0.9970645,0.004371746
1354.3897595526223,1354.3897595526223,0.9957848,0.0043692607
1354.3911484602631,1354.3911484602631,1.0022249,0.0043713194
1354.3925373679026,1354.3925373679026,1.003988,0.004376913
1354.3939262757758,1354.3939262757758,1.0017961,0.004372524
1354.3953151834166,1354.3953151834166,0.9992227,0.004371518
1354.396704091057,1354.396704091057,1.0051471,0.0043780496
1354.3980929989298,1354.3980929989298,1.0023445,0.004374944
1354.3994819065701,1354.3994819065701,1.001076,0.004372135
1354.400870814211,1354.400870814211,1.0002905,0.004371731
1354.4022597218518,1354.4022597218518,0.99349445,0.004364302
1354.403648629725,1354.403648629725,1.0068246,0.004376375
1354.405037537365,1354.405037537365,1.0047139,0.00437196
1354.4064264450053,1354.4064264450053,1.0054306,0.0043747383
1354.4078153526457,1354.4078153526457,1.0039772,0.004375477
1354.4092042605193,1354.4092042605193,1.0073141,0.004378642
1354.4105931681602,1354.4105931681602,1.0028838,0.0043717762
1354.4119820758003,1354.4119820758003,1.004342,0.0043747956
1354.4133709834405,1354.4133709834405,0.9986688,0.004373152
1354.4147598910808,1354.4147598910808,0.99646467,0.004369512
1354.4161487989545,1354.4161487989545,1.0020313,0.004373381
1354.4175377065949,1354.4175377065949,1.0003034,0.004372983
1354.4189266142344,1354.4189266142344,1.0058138,0.0043814457
1354.4203155218752,1354.4203155218752,1.0035919,0.004374575
1354.4217044297488,1354.4217044297488,1.0002464,0.004372699
1354.4230933373897,1354.4230933373897,1.003815,0.0043804636
1354.42448224503,1354.42448224503,1.002145,0.0043749358
1354.4258711526695,1354.4258711526695,1.0023715,0.0043735066
1354.4272600603103,1354.4272600603103,1.0021585,0.004370765
1354.428648968184,1354.428648968184,1.0007651,0.004372026
1354.4300378758235,1354.4300378758235,1.006276,0.0043766075
1354.4314267834638,1354.4314267834638,1.0034404,0.004371841
1354.4328156911047,1354.4328156911047,1.0030434,0.004377207
1354.4342045987455,1354.4342045987455,1.0029784,0.004373566
1354.4355935066192,1354.4355935066192,0.9996972,0.0043711825
1354.4369824142586,1354.4369824142586,1.0040816,0.0043742945
1354.438371321899,1354.438371321899,1.0053082,0.004372853
1354.4397602295398,1354.4397602295398,0.99810034,0.0043677716
1354.4411491371802,1354.4411491371802,0.9996813,0.0043701585
1354.4425380450532,1354.4425380450532,1.0122187,0.004384315
1354.4439269526933,1354.4439269526933,0.9997167,0.0043687774
1354.4453158603342,1354.4453158603342,1.0011064,0.004370895
1354.446704767975,1354.446704767975,0.9979827,0.0043654954
1354.4480936756154,1354.4480936756154,1.0029821,0.0043712147
1354.4494825832558,1354.4494825832558,0.9984134,0.004369239
1354.4508714908957,1354.4508714908957,1.0090803,0.004381117
1354.4522603987689,1354.4522603987689,0.99781656,0.004369167
1354.4536493064097,1354.4536493064097,1.0059068,0.0043786806
1354.4550382140505,1354.4550382140505,1.0016729,0.004372644
1354.456427121691,1354.456427121691,1.0052783,0.004380315
1354.457816029331,1354.457816029331,1.0066063,0.0043754717
1354.4592049369712,1354.4592049369712,0.99739766,0.004367845
1354.460593844612,1354.460593844612,0.99848026,0.0043680086
1354.4619827524853,1354.4619827524853,1.0030459,0.004377461
1354.4633716601247,1354.4633716601247,1.0074058,0.0043812757
1354.4647605677656,1354.4647605677656,1.0034342,0.0043725893
1354.4661494754064,1354.4661494754064,1.0124422,0.004385168
1354.4675383830472,1354.4675383830472,1.0153115,0.004389199
1354.4689272906876,1354.4689272906876,0.9994377,0.0043720896
1354.470316198327,1354.470316198327,1.0108854,0.0043813246
1354.4717051059679,1354.4717051059679,1.0099508,0.0043837717
1354.4730940138415,1354.4730940138415,1.0089104,0.004381943
1354.4744829214812,1354.4744829214812,1.0088805,0.004384166
1354.4758718291214,1354.4758718291214,1.001203,0.004372889
1354.4772607367622,1354.4772607367622,1.0042806,0.0043791374
1354.4786496444033,1354.4786496444033,1.0023252,0.0043766303
1354.4800385520443,1354.4800385520443,0.99914813,0.0043738317
1354.4814274596838,1354.4814274596838,1.0082886,0.0043809717
1354.4828163673237,1354.4828163673237,1.004906,0.0043791076
1354.4842052749648,1354.4842052749648,1.0049824,0.0043753544
1354.485594182605,1354.485594182605,1.0095875,0.0043795714
1354.4869830902453,1354.4869830902453,1.000382,0.004372237
1354.488371998118,1354.488371998118,1.0053073,0.00437717
1354.489760905759,1354.489760905759,1.0090649,0.004381602
1354.4911498134002,1354.4911498134002,1.0026736,0.004371636
1354.49253872104,1354.49253872104,0.9979683,0.0043701273
1354.4939276286805,1354.4939276286805,1.0074108,0.0043792124
1354.4953165363206,1354.4953165363206,1.0021057,0.004374878
1354.4967054439608,1354.4967054439608,1.0010475,0.004376323
1354.4980943516016,1354.4980943516016,1.003625,0.0043734163
1354.4994832592427,1354.4994832592427,1.0113262,0.004381545
1354.5008721668828,1354.5008721668828,1.004443,0.004376314
1354.5022610745232,1354.5022610745232,1.0089352,0.0043820026
1354.503649982163,1354.503649982163,1.0047029,0.004373499
1354.5050388898042,1354.5050388898042,1.0015783,0.004373725
1354.5064277974443,1354.5064277974443,1.0041062,0.0043781814
1354.5078167050838,1354.5078167050838,0.99969804,0.004375497
1354.5092056127246,1354.5092056127246,1.0072513,0.0043768836
1354.5105945203657,1354.5105945203657,0.9987091,0.0043736226
1354.5119834280067,1354.5119834280067,0.99992454,0.0043720226
1354.5133723356466,1354.5133723356466,1.005721,0.004381927
1354.514761243286,1354.514761243286,1.0016971,0.004373096
1354.5161501509272,1354.5161501509272,1.0031164,0.0043752193
1354.5175390585682,1354.5175390585682,1.0046656,0.0043773153
1354.5189279662077,1354.5189279662077,1.0014441,0.00436991
1354.5203168738478,1354.5203168738478,1.0014615,0.0043723267
1354.521705781489,1354.521705781489,0.9975289,0.004365703
1354.5230946891297,1354.5230946891297,0.9977412,0.004369048
1354.5244835967706,1354.5244835967706,0.9969705,0.004368195
1354.52587250441,1354.52587250441,1.0005331,0.004371814
1354.5272614120504,1354.5272614120504,0.99988395,0.004369637
1354.5286503196912,1354.5286503196912,1.0072567,0.004379679
1354.5300392273311,1354.5300392273311,0.99255466,0.004355326
1354.5314281349715,1354.5314281349715,1.0053346,0.0043783938
1354.532817042612,1354.532817042612,1.0016162,0.0043733735
1354.5342059502527,1354.5342059502527,0.996985,0.004370969
1354.5355948578936,1354.5355948578936,0.99191564,0.004360185
1354.536983765534,1354.536983765534,1.0029241,0.0043745684
1354.5383726731739,1354.5383726731739,0.99729794,0.004375304
1354.5397615808142,1354.5397615808142,0.9966868,0.0043647443
1354.5411504884544,1354.5411504884544,1.0029012,0.004376604
1354.5425393960954,1354.5425393960954,1.0048195,0.0043734363
1354.5439283035034,1354.5439283035034,1.0125693,0.004381502
1354.5453172111434,1354.5453172111434,1.0003062,0.0043679453
1354.5467061187837,1354.5467061187837,1.0079124,0.004379073
1354.548095026424,1354.548095026424,1.0049554,0.0043749087
1354.549483934065,1354.549483934065,0.99468905,0.0043625426
1354.5508728417049,1354.5508728417049,0.994697,0.004366395
1354.5522617493446,1354.5522617493446,1.0069389,0.0043795183
1354.5536506569856,1354.5536506569856,1.0006888,0.00437077
1354.5550395646264,1354.5550395646264,0.9930327,0.004364561
1354.5564284722673,1354.5564284722673,0.99942285,0.0043707145
1354.5578173799076,1354.5578173799076,0.9967458,0.00436391
1354.5592062873143,1354.5592062873143,1.0070728,0.004376772
1354.560595194955,1354.560595194955,1.0110126,0.0043841037
1354.561984102596,1354.561984102596,1.0003672,0.004373637
1354.5633730102354,1354.5633730102354,0.9944834,0.0043637063
1354.5647619178758,1354.5647619178758,0.99600756,0.004366525
1354.5661508255166,1354.5661508255166,1.0023345,0.004372742
1354.5675397331574,1354.5675397331574,1.0014614,0.0043701227
1354.5689286407983,1354.5689286407983,0.99925977,0.0043666093
1354.570317548205,1354.570317548205,1.0040916,0.004373156
1354.5717064558453,1354.5717064558453,1.0011631,0.0043728584
1354.5730953634861,1354.5730953634861,0.99194616,0.0043662344
