time,time,flux,flux_err
1410.9084354304966,1410.9084354304966,1.0001404015621889,0.00021299522726082317
1410.9167687043962,1410.9167687043962,0.9995679776022471,0.00021291673867960726
1410.9251019782184,1410.9251019782184,1.0000620825263302,0.00021295903707435753
1410.9327408126003,1410.9327408126003,1.0003649307143496,0.00019440959551358784
1410.9396852074747,1410.9396852074747,0.9998457402339037,0.00019437598008715683
1410.9466296023013,1410.9466296023013,0.9998922603691043,0.00019434642072310357
1410.9535739971748,1410.9535739971748,1.000140944436298,0.000194392106919241
1410.9610739436032,1410.9610739436032,1.0000146397039988,0.00019434216231351014
1410.9721849752982,1410.9721849752982,1.0000909968425353,0.00019423584312202582
1410.985518213351,1410.985518213351,0.9999804076940855,0.00019436806509781
1410.9924626081324,1410.9924626081324,1.0002248385843007,0.0001943280634405919
1411.0044069671355,1411.0044069671355,0.9999176228541635,0.00019422440984468722
1411.0119069134244,1411.0119069134244,0.9997040746685238,0.000194271196093782
1411.018851308158,1411.018851308158,0.9996980063722853,0.00019429091593707568
1411.0257957028925,1411.0257957028925,0.9995429357971766,0.00019426403006586064
1411.0327400975327,1411.0327400975327,0.999680289358241,0.00019420376354034474
1411.0396844922666,1411.0396844922666,1.0001025314330092,0.00019429444504309338
1411.0469066626617,1411.0469066626617,1.0002631347762156,0.00019430400211285255
1411.054962160411,1411.054962160411,1.0000323204289678,0.00019420663531935327
1411.0619065550527,1411.0619065550527,1.0000770942504744,0.00019431429062602944
1411.0688509496927,1411.0688509496927,0.9999687918614173,0.0001942278445819886
1411.0757953442403,1411.0757953442403,0.9999721693666928,0.0001942981298483186
1411.0827397387884,1411.0827397387884,0.9999782630173877,0.00019422113793742262
1411.089684133289,1411.089684133289,0.9999404821674294,0.00019424925901746293
1411.0966285278375,1411.0966285278375,1.0002027843570362,0.00019431637828262244
1411.1035729222913,1411.1035729222913,0.9997250098637472,0.00019424954688822616
1411.1105173166995,1411.1105173166995,1.0000491795821342,0.0001942672596030471
1411.1174617111544,1411.1174617111544,1.000049205172107,0.00019429643114916186
1411.1244061055618,1411.1244061055618,1.0001397792352902,0.0001942876306073767
1411.1313504999703,1411.1313504999703,1.0000982713963071,0.0001942533794560208
1411.1382948943312,1411.1382948943312,0.9995556430076944,0.0001942415969470331
1411.145239288646,1411.145239288646,0.9998127931242713,0.00019420609206473747
1411.1521836829147,1411.1521836829147,1.0001352615425243,0.00019428456291731936
1411.1591280772288,1411.1591280772288,1.0000446664560663,0.0001942393558652097
1411.166072471498,1411.166072471498,1.0000802615525117,0.00019421707159566
1411.1730168656727,1411.1730168656727,1.0003761341279138,0.0001942626917842511
1411.1799612598945,1411.1799612598945,0.9998897007872044,0.00019422669000434018
1411.1869056540231,1411.1869056540231,0.9997092652406927,0.0001942108098808062
1411.1938500481513,1411.1938500481513,0.9998703986049964,0.00019425388257018815
1411.2007944422803,1411.2007944422803,1.0000160779516896,0.00019423752378007432
1411.207738836362,1411.207738836362,0.9999008820289699,0.00019425312759381385
1411.2146832303974,1411.2146832303974,1.0002027458436555,0.00019421947089239244
1411.2216276243398,1411.2216276243398,0.999801819046995,0.0001941937918328533
1411.228572018375,1411.228572018375,0.9998901165508954,0.00019423983424832284
1411.2355164122248,1411.2355164122248,1.000372683685127,0.00019424820986054425
1411.2424608063063,1411.2424608063063,0.9997707763649262,0.00019421901954109704
1411.249405200156,1411.249405200156,0.9995972494473699,0.00019423465619721188
1411.256349594005,1411.256349594005,1.0000915742053054,0.000194273524530354
1411.2632939878074,1411.2632939878074,1.000067287267575,0.0001942730001454263
1411.2702383814708,1411.2702383814708,0.9999975781864204,0.00019423713904849938
1411.2771827753193,1411.2771827753193,0.9999692815784333,0.00019422702190548854
1411.2841271689824,1411.2841271689824,1.0001945630993574,0.00019428636407418766
1411.2910715626917,1411.2910715626917,0.9998594078456161,0.00019422161479842095
1411.298015956308,1411.298015956308,1.0005288985413456,0.0001943132650805836
1411.304960349925,1411.304960349925,0.99968767429142,0.00019420620274257524
1411.3119047434943,1411.3119047434943,0.9999099552585704,0.00019430096685370897
1411.3188491370179,1411.3188491370179,0.9997823246726,0.00019427775676514377
1411.325793530541,1411.325793530541,0.9999615446997676,0.0001943141359436711
1411.332737924017,1411.332737924017,1.0001692431571303,0.0001942687368298579
1411.3396823174014,1411.3396823174014,0.9996477531179186,0.0001942408130613919
1411.3466267107842,1411.3466267107842,0.9998465895348978,0.00019427874515690557
1411.3535711041216,1411.3535711041216,1.000033003570243,0.00019429433873910325
1411.3605154975053,1411.3605154975053,0.999973394435302,0.00019428453425855786
1411.3674598907487,1411.3674598907487,1.0002720552099273,0.00019424764129365299
1411.374404283993,1411.374404283993,0.999793784509799,0.00019425068944876824
1411.3813486771894,1411.3813486771894,1.0000662800299114,0.0001943085369696262
1411.3882930703408,1411.3882930703408,0.9999123947346444,0.00019423873511621246
1411.395237463445,1411.395237463445,1.0000540806395564,0.00019424785717881058
1411.4021818565484,1411.4021818565484,0.9999766078858323,0.0001942390710020155
1411.40912624956,1411.40912624956,1.000065974036757,0.00019424816916940556
1411.4160706425705,1411.4160706425705,0.9999837868332042,0.0001942248541199803
1411.4230150355356,1411.4230150355356,1.0000893381740408,0.00019421587477727947
1411.429959428453,1411.429959428453,0.9996429764551269,0.00019418868050946825
1411.4369038213242,1411.4369038213242,0.9993160534569562,0.00019415685776909833
1411.443848214196,1411.443848214196,1.0002953066319051,0.0001942296649480204
1411.4507926069268,1411.4507926069268,1.0000849234255342,0.0001942320605511356
1411.4577369997987,1411.4577369997987,1.000035344174513,0.00019423280728564824
1411.4646813924835,1411.4646813924835,0.9999604813286581,0.00019420602686872718
1411.4716257851687,1411.4716257851687,1.0001414143427005,0.00019423798130071478
1411.4785701777607,1411.4785701777607,0.999712390493889,0.00019417031551929815
1411.4855145703054,1411.4855145703054,0.9995967973273224,0.00019424035861153368
1411.4924589628984,1411.4924589628984,0.9997649167275806,0.00019423401376203301
1411.4994033553965,1411.4994033553965,1.0000992839806782,0.00019426562016220875
1411.5063477478488,1411.5063477478488,1.000202743429405,0.0001943001109849156
1411.5132921402544,1411.5132921402544,1.0000287808722776,0.0001942121281366725
1411.52023653266,1411.52023653266,0.9999482360665704,0.00019427640989440575
1411.5271809249264,1411.5271809249264,0.999894809294615,0.00019428187637607293
1411.5341253172382,1411.5341253172382,1.000336384264895,0.00019429333177812668
1411.5410697095047,1411.5410697095047,1.0000653239138173,0.00019423991107014212
1411.5480141017238,1411.5480141017238,0.9998096003226445,0.00019423346331110607
1411.5549584938499,1411.5549584938499,0.9997104977329542,0.00019424956030468277
1411.5619028859303,1411.5619028859303,1.000008672713482,0.00019431128255526577
1411.5688472780557,1411.5688472780557,0.9997759137568449,0.00019427915992388804
1411.5757916700895,1411.5757916700895,1.000133952168089,0.00019423275916689915
1411.5827360620756,1411.5827360620756,0.9996858562165059,0.00019423211901389669
1411.5896804539689,1411.5896804539689,1.000024039956656,0.00019431323373875247
1411.5966248459094,1411.5966248459094,0.9998616472124164,0.00019430331799357329
1411.6035692377088,1411.6035692377088,1.0000471335617813,0.00019429097954570717
1411.6105136295098,1411.6105136295098,1.0004630751902837,0.00019431642009965134
1411.6174580213096,1411.6174580213096,0.9999946798702497,0.00019427861152797606
1411.624402413017,1411.624402413017,1.000185787665121,0.00019431444222066832
1411.6313468046312,1411.6313468046312,0.9998455007539023,0.00019427310786269118
1411.6382911963378,1411.6382911963378,1.0001267905253948,0.00019431470019733263
1411.6452355878594,1411.6452355878594,0.9998682087680599,0.00019429691200023412
1411.6521799793798,1411.6521799793798,0.999856923523612,0.00019427787907745408
1411.659124370901,1411.659124370901,0.9999627802759002,0.0001942924288046341
1411.6660687623285,1411.6660687623285,0.9998404481132532,0.00019428794438799968
1411.6730131537097,1411.6730131537097,0.9995799084646457,0.0001942367009996705
1411.6799575450445,1411.6799575450445,1.0000408013535238,0.00019428388297294962
1411.686901936332,1411.686901936332,0.9998657077817434,0.00019424152659952272
1411.6938463276208,1411.6938463276208,0.9997189443297273,0.00019424760183974868
1411.7007907187688,1411.7007907187688,1.0000176798039553,0.00019429582078070228
1411.7077351099174,1411.7077351099174,1.0002357101159516,0.000194286771657319
1411.7146795010656,1411.7146795010656,1.0003576764911404,0.00019429428518646027
1411.7216238921205,1411.7216238921205,0.9997062130930594,0.00019424808677406133
1411.7285682831298,1411.7285682831298,0.9999417923176761,0.00019427815863031652
1411.735512674091,1411.735512674091,0.9998155948276907,0.0001942294180684756
1411.7424570650073,1411.7424570650073,0.9999845999870154,0.00019425714898872268
1411.749401455876,1411.749401455876,1.000018250274616,0.00019426066986091942
1411.7563458466984,1411.7563458466984,1.000272631658526,0.00019430975202667684
1411.7632902375212,1411.7632902375212,0.9996076282470193,0.00019424198072533422
1411.7702346282033,1411.7702346282033,0.9999661606715261,0.00019426848435223791
1411.777179018933,1411.777179018933,1.0002051081646202,0.00019428204559996903
1411.7841234095224,1411.7841234095224,0.9998869537340088,0.00019427883005091544
1411.7910678001117,1411.7910678001117,0.9998326992033494,0.0001942684302366103
1411.7980121906082,1411.7980121906082,1.0001991600617761,0.00019432907281615843
1411.8049565811975,1411.8049565811975,1.0004159352723478,0.00019431227330408854
1411.811900971555,1411.811900971555,1.0000156362195747,0.00019428174719155782
1411.8188453619114,1411.8188453619114,1.0000264925914126,0.00019428438107802932
1411.8257897522685,1411.8257897522685,1.0002907601025395,0.00019430474156056365
1411.8327341426248,1411.8327341426248,1.0000586859332135,0.00019433410705346746
1411.8396785328418,1411.8396785328418,0.9994676580713181,0.00019422827687818716
1411.8466229230592,1411.8466229230592,0.9999628408688015,0.0001942827212604601
1411.8535673131823,1411.8535673131823,1.00010083341502,0.00019432648532281534
1411.860511703307,1411.860511703307,1.0000713695903158,0.0001943097586100591
1411.8674560933373,1411.8674560933373,1.0000276755596844,0.00019433240306234042
1411.8744004833684,1411.8744004833684,0.9999441206281213,0.00019428347511417832
1411.881344873306,1411.881344873306,0.9998622611628123,0.00019427056165977953
1411.8882892631968,1411.8882892631968,0.9998489447340125,0.00019430848322742416
1411.8952336530886,1411.8952336530886,1.0002272998644615,0.00019433723320380164
1411.902178042886,1411.902178042886,1.00001400525194,0.00019430421401457626
1411.909122432638,1411.909122432638,1.0000193381447695,0.00019431940798858257
1411.9160668223424,1411.9160668223424,1.0001971498537847,0.00019427227830946914
1411.9230112120008,1411.9230112120008,0.9996489050446462,0.00019429542520927625
1411.9299556016126,1411.9299556016126,0.9996536884258571,0.00019430498046931215
1411.9368999911305,1411.9368999911305,1.0000479044090889,0.00019430622662220545
1411.9438443806962,1411.9438443806962,1.0003130031516752,0.00019429816804014923
1411.9507887701213,1411.9507887701213,1.000204032525514,0.00019432140216464833
1411.957733159547,1411.957733159547,1.0000771312607868,0.00019433917379846357
1411.9646775489255,1411.9646775489255,0.9995680994474208,0.00019427252014199843
1411.9716219382112,1411.9716219382112,1.0004357555924468,0.00019434929952618095
1411.9785663275438,1411.9785663275438,0.9998288678228144,0.00019426039310227008
1411.9855107167361,1411.9855107167361,0.9997536521662893,0.00019429338350770498
1411.9924551059291,1411.9924551059291,1.000029962716499,0.00019429927597437296
1411.9993994948886,1411.9993994948886,1.0000878742622608,0.00019428747457348838
1412.006343884035,1412.006343884035,1.0000663576436757,0.0001943283129294857
1412.0132882730409,1412.0132882730409,1.0002109983378111,0.0001943203366092503
1412.0202326620006,1412.0202326620006,0.999829646046623,0.0001943001849423848
1412.0271770508675,1412.0271770508675,0.9997612386259517,0.0001942765136824093
1412.03412143978,1412.03412143978,0.9998824818298964,0.0001942851972749448
1412.0410658285543,1412.0410658285543,1.0002555615608608,0.00019426257865895767
1412.0480102173274,1412.0480102173274,1.0002169069056461,0.00019425401970671446
1412.0549546060543,1412.0549546060543,1.0000315110439129,0.00019429302186899577
1412.0618989946886,1412.0618989946886,0.9999226377229956,0.00019429129149866353
1412.0688433832754,1412.0688433832754,0.9999261119350962,0.00019430392582784936
1412.075787771863,1412.075787771863,0.9998394964815075,0.00019429930954765188
1412.0827321604033,1412.0827321604033,1.0000897565456335,0.00019427162076787784
1412.0896765488512,1412.0896765488512,0.999472274872241,0.00019422061114895956
1412.0966209372052,1412.0966209372052,0.9999161003603481,0.0001943012391445086
1412.1035653256063,1412.1035653256063,1.00034416522411,0.0001943409304788042
1412.1105097139139,1412.1105097139139,1.0000208713507734,0.00019429635984322024
1412.117454102175,1412.117454102175,0.9997825946316965,0.0001942875836773855
1412.124398490344,1412.124398490344,1.0005554517188748,0.00019431475697740525
1412.131342878558,1412.131342878558,0.9999973058967019,0.00019430723045121059
1412.1382872666336,1412.1382872666336,0.9999423468333081,0.00019428357806997994
1412.1452316546615,1412.1452316546615,0.9993419278848442,0.00019419720006821643
1412.1521760426901,1412.1521760426901,0.9999822888913814,0.00019428003535467282
1412.1591204306721,1412.1591204306721,0.9999250896759866,0.00019432326253285439
1412.1660648185139,1412.1660648185139,1.0001200910589902,0.00019432780672930762
1412.173009206403,1412.173009206403,1.0002421451070052,0.00019433811077224715
1412.179953594198,1412.179953594198,1.0000202728362317,0.0001943441474518532
1412.1868979819478,1412.1868979819478,0.9998791312130028,0.00019433254870424
1412.1938423696033,1412.1938423696033,0.9997521989041764,0.00019430020512020232
1412.2007867572597,1412.2007867572597,1.0000205759495941,0.00019434220856560103
1412.207731144869,1412.207731144869,0.9998942308355303,0.00019433182923714857
1412.2146755324313,1412.2146755324313,1.000019564894432,0.00019433450637240316
1412.2216199199017,1412.2216199199017,1.0002758713265152,0.00019434203932675023
1412.2285643073242,1412.2285643073242,1.0001135157934873,0.00019433807682396172
1412.2355086947478,1412.2355086947478,0.9999228818586972,0.000194321363689774
1412.2424530820772,1412.2424530820772,0.9997462436556633,0.0001942772854254472
1412.2493974694075,1412.2493974694075,1.0001839356319042,0.00019432884330389206
1412.258008509538,1412.258008509538,1.0000084345276856,0.00019421814828024308
1412.2671751006649,1412.2671751006649,1.0001052051900463,0.0001941408987602542
1412.2774527934569,1412.2774527934569,0.9999415431907435,0.00019422118197850893
1412.2877304863418,1412.2877304863418,0.9997384524689391,0.00019421290867838834
1412.2952304242017,1412.2952304242017,1.0002405194969568,0.00019422120381715603
1412.3021748110664,1412.3021748110664,1.0002018272567403,0.00019428793296069694
1412.30911919793,1412.30911919793,1.0000305213715888,0.0001942534136635722
1412.316063584795,1412.316063584795,0.9997501803311082,0.00019426398449619672
1412.323007971519,1412.323007971519,1.0000449375784395,0.00019426405213440867
1412.329952358244,1412.329952358244,1.0001516213337909,0.0001942568135375768
1412.3368967448755,1412.3368967448755,1.000092145749702,0.0001943225625210207
1412.3438411314603,1412.3438411314603,1.0000839967334385,0.00019428938369511796
1412.3507855180455,1412.3507855180455,1.0000650503503064,0.00019418047092381515
1412.35772990449,1412.35772990449,0.9998355640585288,0.0001941874928662495
1412.3646742909361,1412.3646742909361,1.0002584358334377,0.00019423944974231012
1412.371618677334,1412.371618677334,0.9999813823911226,0.0001942757945373593
1412.3785630637333,1412.3785630637333,0.9995191844385893,0.00019427935209340874
1412.385507449992,1412.385507449992,0.9998081435391967,0.00019427881899707335
1412.3924518362041,1412.3924518362041,0.999780982253285,0.00019427640194315227
1412.3993962224167,1412.3993962224167,1.00003315650044,0.0001942762782386103
1412.4063406085356,1412.4063406085356,1.0004021547723019,0.00019432432195865635
1412.4132849946088,1412.4132849946088,0.9997878107130059,0.0001941417338908495
1412.4202293806345,1412.4202293806345,1.0000465119772906,0.0001942413410714081
1412.4271737666145,1412.4271737666145,1.0002640517929133,0.00019432751639425656
1412.434118152547,1412.434118152547,0.9999871922266508,0.00019429693292945168
1412.441062538434,1412.441062538434,1.0002146732933643,0.00019429423527444697
1412.4480069242736,1412.4480069242736,0.9998352976478533,0.00019427321753837754
1412.4549513099732,1412.4549513099732,1.0002123660095215,0.00019429592797269606
1412.4618956956742,1412.4618956956742,0.9999737853898804,0.00019419310195488087
1412.4688400813734,1412.4688400813734,1.0000622971875708,0.00019422413041756388
1412.4757844670744,1412.4757844670744,0.9998479007132903,0.0001941374229019773
1412.4827288526344,1412.4827288526344,0.9998488804078383,0.00019422246728688906
1412.4896732381483,1412.4896732381483,0.9999144442411316,0.00019430978718963752
1412.4966176236157,1412.4966176236157,1.0003548730961398,0.00019430158175439107
1412.5035620090362,1412.5035620090362,0.9998442232554392,0.00019422237603924553
1412.5105063944109,1412.5105063944109,0.999656148821843,0.00019423439963338392
1412.5174507797383,1412.5174507797383,1.0002837271919267,0.000194308411036641
1412.5243951649732,1412.5243951649732,0.9999555143257254,0.00019430402701673882
1412.5313395501603,1412.5313395501603,0.9999719568169594,0.00019428717776270738
1412.5382839353954,1412.5382839353954,1.000303668738664,0.00019433291785117426
1412.5452283204431,1412.5452283204431,1.0000704875259894,0.0001943007343495448
1412.5521727055384,1412.5521727055384,0.999997516560807,0.0001942849537062267
1412.5591170905398,1412.5591170905398,1.0000852593216483,0.00019431318613612116
1412.5660614754945,1412.5660614754945,0.9997235275504487,0.00019428445306354645
1412.573005860404,1412.573005860404,0.9999817031962749,0.00019433523129548509
1412.579950245265,1412.579950245265,1.000113566339061,0.00019429972213530033
1412.5868946300347,1412.5868946300347,0.9997960093542322,0.00019426136929770251
1412.593839014803,1412.593839014803,0.9998262846751725,0.0001943015084996409
1412.6007833994324,1412.6007833994324,1.0001972557220893,0.0001942925320675552
1412.607727784201,1412.607727784201,1.0000389416091866,0.0001942887796350111
1412.614672168737,1412.614672168737,0.9998690660757518,0.00019426444717840927
1412.6216165532733,1412.6216165532733,1.0000464861631357,0.0001942626363201709
1412.6285609378087,1412.6285609378087,0.9998172977329952,0.00019417763742032992
1412.6355053222057,1412.6355053222057,1.0000218589822358,0.00019428576089100392
1412.642449706648,1412.642449706648,1.0004190009699774,0.00019429020435526124
1412.6493940909518,1412.6493940909518,1.0004922973550148,0.00019432432558558622
1412.656338475208,1412.656338475208,0.99992008001603,0.00019424693056991672
1412.6632828594647,1412.6632828594647,1.0000040440232898,0.00019428428970021615
1412.6702272437215,1412.6702272437215,0.9999120034986854,0.00019429001016152766
1412.6771716277913,1412.6771716277913,1.0000251036413859,0.0001942450944652251
1412.6841160119088,1412.6841160119088,1.0002790743964134,0.00019421904557401202
