time,time,flux,flux_err
1468.2768510093047,1468.2768510093047,1.0007175802389863,0.0003257903714778778
1468.2837955552404,1468.2837955552404,1.0009626907989297,0.0003258367425211893
1468.2907401011296,1468.2907401011296,1.0003321748799467,0.0003257624138540513
1468.2976846469257,1468.2976846469257,1.0006530598912036,0.0003259042370907349
1468.3046291926753,1468.3046291926753,1.00040569612621,0.0003257563247833201
1468.3115737384715,1468.3115737384715,1.000006390041835,0.0003257938948517154
1468.3185182841275,1468.3185182841275,1.0001228533229676,0.00032589842130755213
1468.3254628297375,1468.3254628297375,0.999691310908141,0.00032580270576651796
1468.3324073753006,1468.3324073753006,0.9999471033290629,0.0003259242840725929
1468.3393519208178,1468.3393519208178,0.9995035557423557,0.00032590822355034894
1468.3462964662408,1468.3462964662408,0.9997627816185917,0.00032576929929969484
1468.3532410116645,1468.3532410116645,0.9997567730717914,0.00032586925084277944
1468.3601855569486,1468.3601855569486,1.0006221468716543,0.0003258765516771909
1468.3671301023721,1468.3671301023721,0.9992253624098517,0.00032573289857302384
1468.3740746475628,1468.3740746475628,0.9997896889402741,0.00032584327448302504
1468.3887970832734,1468.3887970832734,1.0000584023528205,0.0003257986121876834
1468.3976861009783,1468.3976861009783,0.9994200793214251,0.0003257703047960792
1468.4046306459834,1468.4046306459834,0.9998819834954447,0.0003255809686120546
1468.4115751909408,1468.4115751909408,0.9997653429102293,0.000325612107363748
1468.4185197358054,1468.4185197358054,1.0002739766059903,0.00032577845354522637
1468.4254642806704,1468.4254642806704,0.999883159188968,0.00032575187103122424
1468.432408825442,1468.432408825442,1.0006251746194665,0.000325839858259764
1468.4393533702137,1468.4393533702137,0.9999399916398077,0.00032596552303111126
1468.446297914892,1468.446297914892,0.9998475399215714,0.0003257391531889166
1468.453242459524,1468.453242459524,0.9996920132494109,0.0003257259799464175
1468.4601870041092,1468.4601870041092,1.0000872357431092,0.00032583986074218583
1468.4671315486019,1468.4671315486019,1.0007711299685782,0.0003258034433760141
1468.4740760930943,1468.4740760930943,1.0002095992789086,0.0003256578314975408
1468.4810206375391,1468.4810206375391,0.9996065092337169,0.0003257576424830984
1468.4879651818455,1468.4879651818455,1.0000703175936194,0.00032580905874576746
1468.494909726152,1468.494909726152,1.000490162770239,0.00032585044860347406
1468.501854270458,1468.501854270458,0.9999822206480129,0.0003258011505831736
1468.5087988146706,1468.5087988146706,0.9995242103315279,0.00032577212875665974
1468.5157433587433,1468.5157433587433,0.9999507292622674,0.0003258608118771623
1468.5226879028633,1468.5226879028633,0.9997905473079165,0.00032586366493061916
1468.5296324470296,1468.5296324470296,1.0002081613254599,0.00032587761633730793
1468.5365769908235,1468.5365769908235,0.9999435278586439,0.00032584279590769496
1468.5435215348498,1468.5435215348498,0.9998691182573631,0.00032581849296198706
1468.5504660787367,1468.5504660787367,1.0004936681226693,0.0003258225088471318
1468.5574106225774,1468.5574106225774,0.999435703654191,0.0003258142626558048
1468.5643551663247,1468.5643551663247,1.0001285450964534,0.0003258777195679412
1468.5712997100716,1468.5712997100716,1.000151600786042,0.00032589883826349256
1468.5782442537254,1468.5782442537254,0.999933424598949,0.00032574493286807683
1468.585188797333,1468.585188797333,1.000260256523473,0.00032592383045182394
1468.5921333408937,1468.5921333408937,0.9996450985108251,0.00032572034025355194
1468.599077884455,1468.599077884455,0.999978309587563,0.0003257812769934386
1468.6060224278763,1468.6060224278763,0.9995589351589453,0.00032569723146760627
1468.6129669712507,1468.6129669712507,1.0001259187816989,0.0003256265077708523
1468.6199115146255,1468.6199115146255,1.0001148499491763,0.0003256953904272529
1468.6268560579072,1468.6268560579072,0.9999634183652013,0.0003258136433423988
1468.6338006011424,1468.6338006011424,1.000209544334886,0.0003258751570968393
1468.6407451443301,1468.6407451443301,0.9998758843096509,0.000325779261726583
1468.6476896874724,1468.6476896874724,0.999910878829338,0.0003258094309040332
1468.6546342305674,1468.6546342305674,1.0000188905343843,0.0003257614656454493
1468.6615787735232,1468.6615787735232,1.0003033903086347,0.00032589291669202984
1468.6685233166186,1468.6685233166186,0.9997835658491084,0.00032579994016729595
1468.6754678594807,1468.6754678594807,0.9995344318070736,0.00032576075005132045
1468.682412402343,1468.682412402343,1.000250489983425,0.0003258893344163944
1468.6893569452056,1468.6893569452056,1.0000372881139166,0.0003257273205589398
1468.696301487882,1468.696301487882,1.0005055268003378,0.0003257754248313494
1468.703246030651,1468.703246030651,0.999986645570251,0.000325779442883841
1468.7101905732807,1468.7101905732807,0.9997600048390934,0.0003258697553992822
1468.7171351158636,1468.7171351158636,0.9998354745084661,0.00032573495561984074
1468.7240796584467,1468.7240796584467,0.9995406061840878,0.00032564051309216617
1468.7310242008903,1468.7310242008903,1.0001465875473177,0.0003257896122778264
1468.7379687433333,1468.7379687433333,1.0006740614088643,0.00032584575999967757
1468.7449132857303,1468.7449132857303,0.9997836648602497,0.0003259296482036464
1468.7518578280806,1468.7518578280806,1.000222767748857,0.00032578982175572135
1468.758802370384,1468.758802370384,0.9993539619404304,0.0003257812679534301
1468.7657469125484,1468.7657469125484,0.9996969343170996,0.00032575981519418473
1468.7726914547588,1468.7726914547588,1.0002215151053653,0.00032578406681137834
1468.7796359968293,1468.7796359968293,1.00015991801359,0.00032586558488495053
1468.7865805389001,1468.7865805389001,1.0006155841710285,0.00032586755948326086
1468.793525080971,1468.793525080971,1.0000695300281304,0.00032581849881945814
1468.8004696229023,1468.8004696229023,1.0001679448235394,0.0003258825761546043
1468.8074141647862,1468.8074141647862,0.9992716374287817,0.0003257658323721616
1468.814358706671,1468.814358706671,0.9995770403077276,0.0003258789918771738
1468.8213032484161,1468.8213032484161,0.9997636225505404,0.000325708514611864
1468.8282477901143,1468.8282477901143,0.9995501654458516,0.0003256427544785943
1468.8351923318128,1468.8351923318128,0.9999226462810549,0.0003257877708341733
1468.8421368735103,1468.8421368735103,1.0004504058508485,0.000325761853961665
1468.8490814151157,1468.8490814151157,1.0004458781664693,0.00032577552194449104
1468.8560259566282,1468.8560259566282,1.0000196739985587,0.00032577410801489193
1468.8629704980935,1468.8629704980935,1.0001915111067228,0.00032590113679668723
1468.8699150395125,1468.8699150395125,1.0002792206957536,0.00032574176423058436
1468.876859580931,1468.876859580931,0.9999346149273981,0.00032587968314935973
1468.8838041222104,1468.8838041222104,0.9997401895594142,0.00032578101890466286
1468.8907486634432,1468.8907486634432,1.0000237932848741,0.00032589706764954586
1468.897693204676,1468.897693204676,0.9995623461922204,0.00032573315847243985
1468.904637745815,1468.904637745815,1.0002058135503114,0.00032588613598790096
1468.9115822869544,1468.9115822869544,0.9999400428501497,0.00032590272787109124
1468.9185268279543,1468.9185268279543,0.9998731284924347,0.0003260396868228479
1468.925471369001,1468.925471369001,0.9999944706217085,0.00032586223948321283
1468.9324159099076,1468.9324159099076,0.9999003829666661,0.0003258355963636382
1468.9393604508145,1468.9393604508145,0.9999250337807041,0.00032587043665524085
1468.9463049916276,1468.9463049916276,1.0003972521349378,0.0003258626308315906
1468.9532495323947,1468.9532495323947,1.0001134800627582,0.0003257882568159736
1468.9613051996469,1468.9613051996469,0.9996864474512582,0.0003258690382773342
1468.9685275219422,1468.9685275219422,0.999912288849873,0.0003257497642735265
1468.9754720624762,1468.9754720624762,1.0000921490330394,0.00032590144636977016
1468.9824166030103,1468.9824166030103,0.9998769326498615,0.00032580766721246356
1468.9893611435448,1468.9893611435448,0.9999936932540301,0.00032572202913098167
1468.996305684079,1468.996305684079,1.0003611795845513,0.00032585241821861
1469.003250224427,1469.003250224427,1.000065609048122,0.0003257844908241271
1469.0101947647745,1469.0101947647745,1.0000025780529125,0.000325767953246184
1469.0171393050757,1469.0171393050757,0.9999814432522646,0.0003259364814483527
1469.0240838453306,1469.0240838453306,0.9998206138097805,0.00032578925445295463
1469.0310283854922,1469.0310283854922,0.9995232980469713,0.00032575199385227017
1469.0379729256072,1469.0379729256072,1.0003925283056179,0.000325940916203101
1469.0449174656756,1469.0449174656756,1.0001094326280584,0.0003257736849700741
1469.0518620057442,1469.0518620057442,0.9999814306813992,0.000325821367056382
1469.0588065456727,1469.0588065456727,0.9999629407111064,0.00032566450090228577
1469.065751085602,1469.065751085602,1.0005542336605082,0.0003258134627476686
1469.0726956254375,1469.0726956254375,0.9996426298145215,0.00032567773357286827
1469.079640165273,1469.079640165273,1.0000897645376878,0.00032586827048644416
1469.0865847050623,1469.0865847050623,1.0004108535457275,0.0003257649115161597
1469.0935292447114,1469.0935292447114,1.0000218435043475,0.00032586351654838774
1469.100473784361,1469.100473784361,0.9993287805928167,0.00032568618272582714
1469.1074183239639,1469.1074183239639,1.0004141730912142,0.00032572408347152337
1469.1143628634732,1469.1143628634732,1.000171876472143,0.0003257925689515434
1469.1213074029831,1469.1213074029831,0.9997968861377633,0.00032569564679225255
1469.128251942353,1469.128251942353,0.9998214777293389,0.00032602462415520295
1469.1351964817231,1469.1351964817231,1.0004386881743375,0.00032585002719321234
1469.1421410210933,1469.1421410210933,0.9996974008824552,0.00032585592362910094
1469.1490855604166,1469.1490855604166,1.0000052708222493,0.00032591112442235183
1469.1560300996002,1469.1560300996002,0.9997918081785508,0.00032582037458694056
1469.1629746387373,1469.1629746387373,1.0001740018971805,0.00032593941040866915
1469.1699191778275,1469.1699191778275,1.0001303004353137,0.000325787885930338
1469.1768637169187,1469.1768637169187,0.9996594723207652,0.0003256655915930694
1469.1838082559157,1469.1838082559157,1.000482689734479,0.00032581724325924245
1469.1907527948665,1469.1907527948665,0.9999313219875337,0.0003257472260210287
1469.197697333771,1469.197697333771,0.9999577840302905,0.0003257261657724076
1469.2046418725822,1469.2046418725822,0.9998879123397314,0.00032577551461999055
1469.211586411347,1469.211586411347,1.0000249595355064,0.00032590293596887227
1469.2185309501583,1469.2185309501583,1.0000293697507412,0.0003258912736384085
1469.2254754888295,1469.2254754888295,1.000179415904563,0.0003258855958891997
1469.2324200274545,1469.2324200274545,0.9998880044703131,0.00032580902455283685
1469.2393645660327,1469.2393645660327,0.9998616318112795,0.00032584893994784666
1469.246309104565,1469.246309104565,1.000360430956396,0.0003258516710805604
1469.2532536430033,1469.2532536430033,0.9995475294447618,0.0003257742590501674
1469.2601981814419,1469.2601981814419,0.999800595659287,0.0003258588988689154
1469.2671427197408,1469.2671427197408,1.000674451662435,0.00032586082117617694
1469.2740872581796,1469.2740872581796,0.9996887997027464,0.0003259187791893145
1469.2810317963856,1469.2810317963856,0.9999227307344727,0.0003257444903229228
1469.2879763345913,1469.2879763345913,0.9998869922740568,0.0003258210339467411
1469.2949208727039,1469.2949208727039,0.9999738083991968,0.00032579753358666347
1469.3018654107698,1469.3018654107698,1.0005413168928645,0.000325882205422317
1469.3088099488364,1469.3088099488364,0.9997283060170264,0.00032571804993771625
1469.3157544868093,1469.3157544868093,1.0001318338315683,0.000325845760471277
1469.322699024736,1469.322699024736,0.9997025092928269,0.0003259421473578799
1469.3296435626155,1469.3296435626155,0.9999218398718037,0.0003258529364525395
1469.3365881004488,1469.3365881004488,1.0001524115347733,0.0003259215963775655
1469.3435326382357,1469.3435326382357,1.0001745195475713,0.0003259579115177977
1469.3504771759294,1469.3504771759294,1.0002934297055455,0.000325841829085531
1469.357421713576,1469.357421713576,0.9992639741457628,0.00032584227988927773
1469.364366251177,1469.364366251177,0.9999097781135038,0.00032581253562476197
1469.3713107887768,1469.3713107887768,1.0002463080409243,0.00032591126029945383
1469.3782553262845,1469.3782553262845,0.9996370428123482,0.00032566426504160946
1469.3851998637454,1469.3851998637454,1.000322722626406,0.00032593365493161224
1469.392144401113,1469.392144401113,0.9999392660597252,0.0003257183630217244
1469.3990889384809,1469.3990889384809,1.0002978601722377,0.0003258764704394837
1469.4060334757082,1469.4060334757082,1.0001785302893278,0.00032578290419974036
1469.4129780129829,1469.4129780129829,1.0000643053317275,0.00032589006866149984
1469.4199225501643,1469.4199225501643,1.0003920623929798,0.0003259932533242459
1469.4268670872991,1469.4268670872991,0.9998835323244017,0.0003258126028689962
1469.4338116243412,1469.4338116243412,0.9993101706157553,0.00032573465151563045
1469.4407561613823,1469.4407561613823,0.9996518151622873,0.0003258033385976844
1469.4477006983775,1469.4477006983775,1.0001626140003195,0.00032594153629109866
1469.454645235233,1469.454645235233,1.0001813555116517,0.00032587814613457724
1469.4615897720885,1469.4615897720885,1.0002357679981375,0.0003259268159848532
1469.468534308944,1469.468534308944,0.9999263585961404,0.000325897730356458
1469.4754788456598,1469.4754788456598,0.9999374873472864,0.00032583673854037315
1469.4824233823751,1469.4824233823751,0.9998819658290424,0.00032586757018783144
1469.489367918998,1469.489367918998,1.0000139243306452,0.0003258961240195261
1469.4963124556205,1469.4963124556205,1.000220503338173,0.00032592266380078704
1469.50325699215,1469.50325699215,0.9997939104918387,0.00032582117652524484
1469.5102015285868,1469.5102015285868,1.000084717761243,0.00032599588374641333
1469.517146065069,1469.517146065069,0.9999664231035943,0.00032580076490905255
1469.5240906014124,1469.5240906014124,1.000256571208576,0.0003258486334237835
1469.531035137709,1469.531035137709,0.9994528086256727,0.0003257645197332202
1469.5379796740058,1469.5379796740058,1.0001865056771309,0.00032585705825619797
1469.5449242102093,1469.5449242102093,0.9999234831387364,0.00032582232361880073
1469.5518687464123,1469.5518687464123,1.0003265705759223,0.0003259231454726939
1469.5588132824762,1469.5588132824762,1.0001259916877898,0.00032581453045408046
1469.5657578185867,1469.5657578185867,1.0001154426813947,0.0003258838250039863
1469.572702354511,1469.572702354511,1.0001098639352495,0.0003260203057875125
1469.5796468905748,1469.5796468905748,1.0000024559646659,0.0003258386392271482
1469.5865914264523,1469.5865914264523,0.9998552751476026,0.00032596321507149764
1469.593535962283,1469.593535962283,0.9991799443582542,0.0003258574691165658
1469.6004804979743,1469.6004804979743,1.0000506361962256,0.0003258910528416626
1469.6074250337588,1469.6074250337588,1.0002277789478318,0.00032602094706105425
1469.61436956945,1469.61436956945,0.9998166029176758,0.00032589887940809206
1469.6213141050482,1469.6213141050482,1.000578983569636,0.0003260461275347275
1469.6282586406462,1469.6282586406462,0.9996078074606519,0.0003258864654720289
1469.6352031761048,1469.6352031761048,1.0002512588755113,0.0003257646122055766
1469.6421477116098,1469.6421477116098,1.0001064562684365,0.00032582566850996393
1469.6490922470216,1469.6490922470216,1.0000022718162946,0.00032595673502112954
1469.6560367823872,1469.6560367823872,0.9996004893995278,0.00032581983966776623
1469.6629813176592,1469.6629813176592,1.0001211995001211,0.00032607384459677595
1469.6699258529309,1469.6699258529309,1.000242098296175,0.00032591084479060065
1469.6768703881103,1469.6768703881103,1.000524983637518,0.0003259948005553468
1469.6838149232428,1469.6838149232428,0.9999611857568705,0.00032589667529488875
1469.6907594583286,1469.6907594583286,0.9993523168068243,0.00032589645397575597
1469.6977039933683,1469.6977039933683,0.9998780347258794,0.0003259556770006173
1469.7046485283604,1469.7046485283604,0.9993484049757502,0.00032591667105770863
1469.7115930632604,1469.7115930632604,1.0007981052430415,0.000325996409770896
1469.7185375981135,1469.7185375981135,0.999811887108051,0.000325988698975074
1469.725482133013,1469.725482133013,1.000256992793428,0.0003261573005462084
1469.732426667773,1469.732426667773,1.000319297254198,0.0003260747708745856
1469.7393712024864,1469.7393712024864,1.0002679076948349,0.0003260616714712101
1469.7463157371064,1469.7463157371064,0.9993487042925746,0.0003258503983996935
1469.7532602716806,1469.7532602716806,1.0001131024948209,0.0003259236821091082
1469.760204806254,1469.760204806254,0.9998447994566275,0.00032599904640675403
1469.7671493407347,1469.7671493407347,0.9999827407419938,0.00032588544727502825
1469.7740938751688,1469.7740938751688,0.9995945305958646,0.0003259031309097274
1469.7810384095558,1469.7810384095558,1.0001793802847099,0.00032595066047474183
1469.787982943897,1469.787982943897,1.000210517428814,0.0003259981025667292
1469.7949274781909,1469.7949274781909,1.0003949318593675,0.000325886987614871
1469.8018720123923,1469.8018720123923,1.0000546621313933,0.0003260042200233124
1469.8088165465472,1469.8088165465472,1.0001266223944512,0.000325913450576073
1469.8157610806547,1469.8157610806547,1.00031088828567,0.00032614177886383465
1469.822705614763,1469.822705614763,0.999599317102558,0.0003259980398094882
1469.8296501487778,1469.8296501487778,1.0000195567261356,0.00032596470251648995
1469.836594682746,1469.836594682746,0.9999783986845348,0.0003259668752692593
1469.8435392166216,1469.8435392166216,1.0001361069587194,0.0003259680716165221
1469.8504837504966,1469.8504837504966,1.0002536180640962,0.00032585037484846616
1469.8574282842321,1469.8574282842321,1.000037955886718,0.00032609127430812985
1469.8643728180136,1469.8643728180136,0.9994835716846797,0.0003259722249985558
1469.8713173517028,1469.8713173517028,1.0001054729158199,0.0003259652218241904
1469.8782618853454,1469.8782618853454,0.9999567359969156,0.000326042238990927
1469.8852064188945,1469.8852064188945,1.000073532166403,0.00032592542982157104
1469.892150952444,1469.892150952444,1.0002874440767253,0.0003260967616564176
1469.8990954858998,1469.8990954858998,0.9999196125907879,0.00032592409586544986
1469.9060400193093,1469.9060400193093,0.9998739442252973,0.00032597122553946117
1469.9129845526727,1469.9129845526727,1.000064101333201,0.00032598224477519615
1469.9199290859885,1469.9199290859885,0.9996718266681208,0.00032593827622973544
1469.926873619212,1469.926873619212,1.0000142793011282,0.0003259467073063032
1469.9338181524356,1469.9338181524356,1.0001384571340437,0.0003259849098167984
1469.9407626855652,1469.9407626855652,0.999567071566766,0.00032586136753363497
1469.9477072186953,1469.9477072186953,1.0004720475546476,0.00032606544695811115
1469.9546517517326,1469.9546517517326,1.0001918145572095,0.0003259953543377989
1469.9615962847233,1469.9615962847233,0.9994207564195609,0.0003258307542023482
1469.9685408176206,1469.9685408176206,0.999818198597206,0.00032589161504731573
1469.9754853505176,1469.9754853505176,1.0002030434098588,0.0003259374626171836
1469.9824298833214,1469.9824298833214,0.9997228836075214,0.0003260289456351687
1469.9893744160793,1469.9893744160793,1.0001436786891764,0.0003260249589162208
1469.996318948837,1469.996318948837,0.999739257395883,0.0003257913856022762
1470.0032634815013,1470.0032634815013,1.000290830776527,0.00032595800197613513
1470.0102080141196,1470.0102080141196,0.9998997777698909,0.0003260018886353161
1470.0171525466442,1470.0171525466442,1.0001911177722609,0.0003260668923419321
1470.0240970791688,1470.0240970791688,0.9999150865463109,0.00032584693361064303
1470.031041611554,1470.031041611554,0.9999550309562961,0.0003259048999781202
1470.0379861439392,1470.0379861439392,1.0002544365056782,0.000325957897583029
