time,time,flux,flux_err
1354.1167058225462,1354.1167058225462,0.9999344055313354,4.904636048202681e-05
1354.1255023554531,1354.1255023554531,0.9999779475102145,4.90441389259376e-05
1354.1338359128988,1354.1338359128988,1.0000074599733932,4.904183061243924e-05
1354.1421694702287,1354.1421694702287,1.000020460721197,4.9039006587443315e-05
1354.1498085644482,1354.1498085644482,0.9999514439137827,4.4762958079815864e-05
1354.156753195503,1354.156753195503,0.9999932782236624,4.476174758904213e-05
1354.1636978265112,1354.1636978265112,1.000042498526335,4.476228539910576e-05
1354.1706424574734,1354.1706424574734,1.0000294125862967,4.475992805040532e-05
1354.1775870883885,1354.1775870883885,0.9999467539954378,4.475661025023888e-05
1354.1845317192572,1354.1845317192572,1.0000461901900277,4.4758917622837965e-05
1354.1914763500795,1354.1914763500795,0.9999941370731532,4.475723900537799e-05
1354.1984209809016,1354.1984209809016,0.9998729442761436,4.475450254168468e-05
1354.2053656116773,1354.2053656116773,1.0000294341901708,4.475737416178582e-05
1354.212310242313,1354.212310242313,1.000079794129582,4.475930781278187e-05
1354.2192548729954,1354.2192548729954,1.000013084720682,4.475813451245594e-05
1354.226199503631,1354.226199503631,1.0000470715879393,4.475956674858284e-05
1354.233144134174,1354.233144134174,0.9999798839204708,4.4758480511232116e-05
1354.2400887647168,1354.2400887647168,0.999993660240718,4.475912067405038e-05
1354.2470333951665,1354.2470333951665,0.9999960435042606,4.475939832623103e-05
1354.253978025616,1354.253978025616,1.0000058632211353,4.47601946434859e-05
1354.260922655972,1354.260922655972,0.9999498513711627,4.475975344321355e-05
1354.2678672862826,1354.2678672862826,0.999972828341684,4.4760631380278394e-05
1354.2748119166386,1354.2748119166386,0.9999715998689054,4.4760945002375883e-05
1354.2817565468556,1354.2817565468556,0.9999913000379086,4.4762366990265884e-05
1354.2887011770258,1354.2887011770258,1.0000277687015513,4.476359219032134e-05
1354.2956458071956,1354.2956458071956,1.000052271846577,4.476404789669814e-05
1354.302590437273,1354.302590437273,1.000037994158179,4.476327744089353e-05
1354.3095350673036,1354.3095350673036,1.0000324642187628,4.476311538360315e-05
1354.3164796972874,1354.3164796972874,0.9999355481077238,4.4761358306517364e-05
1354.323424327225,1354.323424327225,0.9999260138686225,4.476101199299302e-05
1354.3303689571155,1354.3303689571155,1.0000160890093526,4.47632666057985e-05
1354.3373135869601,1354.3373135869601,1.0000319160280438,4.476347129725898e-05
1354.3442582167577,1354.3442582167577,0.999949420679377,4.476173824946452e-05
1354.351202846462,1354.351202846462,1.0000886923239525,4.4764941604341854e-05
1354.3581474761668,1354.3581474761668,0.9999805025769005,4.476248935743346e-05
1354.3650921058247,1354.3650921058247,1.0000057682609607,4.476304695546944e-05
1354.3720367353894,1354.3720367353894,0.9999743765424366,4.47623674798792e-05
1354.3789813648614,1354.3789813648614,0.999958430538366,4.476176665497842e-05
1354.3859259943795,1354.3859259943795,1.0000634025651014,4.47642825346449e-05
1354.3928706237582,1354.3928706237582,0.999985269666307,4.47626576758133e-05
1354.3998152531367,1354.3998152531367,1.0000442153676068,4.4764430706842784e-05
1354.4067598824222,1354.4067598824222,0.9999943033036424,4.476294561230546e-05
1354.4137045117081,1354.4137045117081,0.9999950182693919,4.476299790187971e-05
1354.4206491409466,1354.4206491409466,0.9999588594696525,4.476330203703276e-05
1354.4275937700925,1354.4275937700925,0.9999500404921522,4.476197843385282e-05
1354.4345383991915,1354.4345383991915,0.9999656529945307,4.476322317978103e-05
1354.4414830281974,1354.4414830281974,1.000057634116541,4.4765906020429345e-05
1354.4484276572034,1354.4484276572034,0.9999908705946059,4.476474752680189e-05
1354.4553722861633,1354.4553722861633,1.0000089861978867,4.476481319213911e-05
1354.462316914983,1354.462316914983,1.0000244554884246,4.4765350080913236e-05
1354.4692615438494,1354.4692615438494,0.9999140479834076,4.476355221498838e-05
1354.4762061726224,1354.4762061726224,1.0000607578381988,4.476656627265344e-05
1354.4831508013026,1354.4831508013026,1.0000157793675986,4.476564138115489e-05
1354.4900954299828,1354.4900954299828,0.9999669869941264,4.476491020062076e-05
1354.497040058523,1354.497040058523,1.0000108932972718,4.476652331703727e-05
1354.5039846871102,1354.5039846871102,0.9999319929308434,4.476542988684835e-05
1354.510929315604,1354.510929315604,0.9999663654123635,4.476672227640048e-05
1354.5178739440512,1354.5178739440512,1.0000880088463617,4.477028451042574e-05
1354.524818572359,1354.524818572359,0.9999974968206538,4.476893958220477e-05
1354.531763200713,1354.531763200713,0.9999616919609883,4.47681030190798e-05
1354.5387078289273,1354.5387078289273,1.0000364726085618,4.476966825304464e-05
1354.5456524571423,1354.5456524571423,0.999968402532015,4.476848063473922e-05
1354.5525970853093,1354.5525970853093,1.000050823254965,4.477103315136591e-05
1354.559541713385,1354.559541713385,0.9999094619904316,4.476783114370594e-05
1354.566486341459,1354.566486341459,0.9999461730790223,4.4769197807724035e-05
1354.573430969394,1354.573430969394,1.0000145653945407,4.477138109152271e-05
1354.580375597376,1354.580375597376,1.0001061540382867,4.477374671555767e-05
1354.5873202252176,1354.5873202252176,1.0000620407242038,4.4773484841716444e-05
1354.594264853013,1354.594264853013,1.0000997897638726,4.4774443605809274e-05
1354.6012094806688,1354.6012094806688,0.9999710833688298,4.4772439510195495e-05
1354.6081541084172,1354.6081541084172,1.0000101793534848,4.4773506170526744e-05
1354.6150987360265,1354.6150987360265,0.9999502946102643,4.477229645639671e-05
1354.6220433635888,1354.6220433635888,1.0000334945468006,4.477428184927177e-05
1354.6289879911049,1354.6289879911049,0.9999485068747045,4.477291346274713e-05
1354.6359326185745,1354.6359326185745,0.999900529575456,4.4771580483155056e-05
1354.6428772459508,1354.6428772459508,1.00001891700408,4.4774617892892303e-05
1354.6498218732802,1354.6498218732802,1.0000179514658818,4.477496051188421e-05
1354.6567665005634,1354.6567665005634,0.9999700574889248,4.477373573626507e-05
1354.6637111278,1354.6637111278,1.0000290363451967,4.477406112659283e-05
1354.6706557549437,1354.6706557549437,1.000046224084261,4.47737877077099e-05
1354.6776003820403,1354.6776003820403,1.0000047203852425,4.477276170570558e-05
1354.6845450090902,1354.6845450090902,1.000056521013271,4.477415351422053e-05
1354.691489636048,1354.691489636048,0.9999904408936413,4.477132957418841e-05
1354.6984342630046,1354.6984342630046,0.9998615845001328,4.476855669958429e-05
1354.7053788898688,1354.7053788898688,0.9999522287589597,4.477014141243543e-05
1354.7123235165934,1354.7123235165934,1.000117545384927,4.477425603520892e-05
1354.7192681435038,1354.7192681435038,1.0000114421671025,4.4772573156338225e-05
1354.7262127701817,1354.7262127701817,1.000014779864744,4.477244663791737e-05
1354.7331573967197,1354.7331573967197,1.0000655321731589,4.477453513194585e-05
1354.7401020233042,1354.7401020233042,1.0000100240643017,4.477333034617606e-05
1354.7470466497957,1354.7470466497957,0.9999225227268347,4.477067714428492e-05
1354.7539912762873,1354.7539912762873,0.9999972942956339,4.4773225254998796e-05
1354.7609359026853,1354.7609359026853,1.000040240880263,4.477484195195842e-05
1354.767880528991,1354.767880528991,0.9999646098568942,4.4773985886771905e-05
1354.774825155296,1354.774825155296,1.00000711668821,4.4775442653982104e-05
1354.7817697815085,1354.7817697815085,0.9999772561981436,4.477486249463971e-05
1354.7887144076738,1354.7887144076738,1.0000363686999902,4.4776393601730364e-05
1354.7956590337458,1354.7956590337458,1.0000061270658132,4.4775753399742336e-05
1354.802603659772,1354.802603659772,0.9999528078696468,4.4776156196474774e-05
1354.8095482857511,1354.8095482857511,0.9999870665029791,4.477613252245383e-05
1354.8164929117306,1354.8164929117306,1.0001120138861042,4.477898716115331e-05
1354.8234375375234,1354.8234375375234,0.9999274543732118,4.4775311637725124e-05
1354.8303821633167,1354.8303821633167,1.0000032182270044,4.4776145567585675e-05
1354.83732678911,1354.83732678911,1.0000617213085121,4.477755815364709e-05
1354.844271414809,1354.844271414809,0.9999989867690029,4.477579582744117e-05
1354.8512160403695,1354.8512160403695,1.0000207281927598,4.477615601386553e-05
1354.8581606658831,1354.8581606658831,0.9999882711860112,4.4775774601752e-05
1354.865105291397,1354.865105291397,0.999949103273434,4.4774552046765575e-05
1354.8720499169106,1354.8720499169106,0.9999760656894423,4.4774702063867886e-05
1354.878994542331,1354.878994542331,1.000035114951282,4.477655127478669e-05
1354.8859391676583,1354.8859391676583,1.0000453426644849,4.4776728217635125e-05
1354.8928837928927,1354.8928837928927,0.9999659217229135,4.4775208463284406e-05
1354.8998284181268,1354.8998284181268,1.0000540675601794,4.4776445248735166e-05
1354.906773043221,1354.906773043221,1.0000024675013433,4.4776173287166625e-05
1354.9137176683623,1354.9137176683623,1.0000234579962346,4.477669986936546e-05
1354.9206622933634,1354.9206622933634,0.9998963339322989,4.477392617723626e-05
1354.9276069184116,1354.9276069184116,1.0000077954608593,4.477608480737097e-05
1354.935107113268,1354.935107113268,0.9999932295941102,4.4775814867945693e-05
1354.942885093098,1354.942885093098,1.000055403177067,4.477725180699317e-05
1354.9498297178666,1354.9498297178666,1.000052816780212,4.477712618120645e-05
1354.9567743425887,1354.9567743425887,1.000061220160188,4.47779322743279e-05
1354.963718967264,1354.963718967264,0.9999773402969148,4.4775968885613664e-05
1354.9706635918465,1354.9706635918465,0.9999571363601044,4.477533263798102e-05
1354.9776082163821,1354.9776082163821,1.0000121224714633,4.477711134925651e-05
1354.984552840918,1354.984552840918,1.0000603624539859,4.47784714807418e-05
1354.9914974652672,1354.9914974652672,0.9999698545480851,4.477603380018047e-05
1354.9984420896167,1354.9984420896167,0.9999606760569322,4.477601755664702e-05
1355.0053867139661,1355.0053867139661,1.0000482277466938,4.4777479608384835e-05
1355.0123313382692,1355.0123313382692,0.9999998092987379,4.4777005488522704e-05
1355.0192759624322,1355.0192759624322,0.9999649791999282,4.47764566605576e-05
1355.0262205865492,1355.0262205865492,0.9999960187980849,4.4776519341274995e-05
1355.033165210619,1355.033165210619,0.9999761368448775,4.477575643933104e-05
1355.0401098346424,1355.0401098346424,0.9999807618128873,4.4775692458648904e-05
1355.047054458573,1355.047054458573,0.9999748496842471,4.477552380330028e-05
1355.0539990825032,1355.0539990825032,1.000178732537624,4.4779920801462754e-05
1355.0609437063406,1355.0609437063406,1.0000186657870063,4.4776328560329794e-05
1355.0678883301314,1355.0678883301314,0.9999364820252451,4.477430750709752e-05
1355.0748329538285,1355.0748329538285,0.999947173854105,4.477394260570767e-05
1355.0817775774797,1355.0817775774797,1.0000553289070204,4.477641865316508e-05
1355.0887222011304,1355.0887222011304,0.9999846597811718,4.477532341754025e-05
1355.0956668245951,1355.0956668245951,1.0000764504701487,4.4777141446335854e-05
1355.102611448107,1355.102611448107,0.999948496207138,4.4773822050183004e-05
1355.1095560715246,1355.1095560715246,1.0000129684890662,4.4777015722251885e-05
1355.116500694943,1355.116500694943,1.0000056974736107,4.477651123733082e-05
1355.1234453181282,1355.1234453181282,1.0000305503852178,4.4776821049776866e-05
1355.1303899415464,1355.1303899415464,0.9999271461093585,4.4775754555820337e-05
1355.1373345647319,1355.1373345647319,0.9999776027360827,4.477710274286288e-05
1355.1442791877307,1355.1442791877307,0.9999713685257376,4.4777208868518654e-05
1355.1512238108694,1355.1512238108694,0.9999778882548881,4.477795993091561e-05
1355.1581684338685,1355.1581684338685,1.000043949661897,4.4780250180269535e-05
1355.1651130568212,1355.1651130568212,1.0000111215439622,4.4779438541978454e-05
1355.1720576796804,1355.1720576796804,1.0000408978769821,4.478028180921423e-05
1355.1790023025399,1355.1790023025399,0.9999969601988823,4.477938039952421e-05
1355.1859469253059,1355.1859469253059,0.9999550366684982,4.477852219229356e-05
1355.1928915480726,1355.1928915480726,1.000079770714881,4.478223442937526e-05
1355.1998361706521,1355.1998361706521,1.0000149359607895,4.478040944195962e-05
1355.2067807932785,1355.2067807932785,0.9999329009188859,4.477875954041557e-05
1355.2137254158588,1355.2137254158588,1.0000240788275607,4.4781167218170995e-05
1355.2206700383454,1355.2206700383454,0.9999789249846103,4.478015268209077e-05
1355.2276146607855,1355.2276146607855,1.0000335914831966,4.47812874905572e-05
1355.234559283133,1355.234559283133,0.9999839194497643,4.4780569448049046e-05
1355.2415039054333,1355.2415039054333,0.9999461792277506,4.4779646259785554e-05
1355.248448527734,1355.248448527734,0.9999951841142943,4.478162717843304e-05
1355.2553931498946,1355.2553931498946,1.0001043523916322,4.4783597860586234e-05
1355.2623377720558,1355.2623377720558,1.0000457271950156,4.478251916230671e-05
1355.2692823940768,1355.2692823940768,0.9999436518477978,4.477974468191591e-05
1355.276227016098,1355.276227016098,0.9999904516290524,4.4781312122993735e-05
1355.2831716381193,1355.2831716381193,0.9999106201121126,4.477875436531995e-05
1355.2901162600006,1355.2901162600006,1.0000060794551608,4.478191290759974e-05
1355.2970608818819,1355.2970608818819,0.9999924783099836,4.478104693057092e-05
1355.3040055036704,1355.3040055036704,0.9999924186386953,4.478168888119009e-05
1355.3109501254123,1355.3109501254123,1.00004832666557,4.478283754536039e-05
1355.3178947470606,1355.3178947470606,1.0000527138645785,4.478362705704165e-05
1355.3248393687095,1355.3248393687095,1.0000343562065228,4.478317083394548e-05
1355.3317839902184,1355.3317839902184,0.9999952076109707,4.478283441603773e-05
1355.3401175360848,1355.3401175360848,1.0000283719522103,4.478312460624735e-05
1355.347062157501,1355.347062157501,0.9999713777248227,4.4782781767222625e-05
1355.3540067788235,1355.3540067788235,0.9999233592782613,4.478099940115779e-05
1355.3609514001462,1355.3609514001462,0.9999949811716939,4.478251902592044e-05
1355.3678960214222,1355.3678960214222,0.9999267325581844,4.478064799293623e-05
1355.3748406426052,1355.3748406426052,1.0000564828986165,4.478437112131952e-05
1355.3817852637417,1355.3817852637417,1.0000436080414057,4.478383517355589e-05
1355.3887298848779,1355.3887298848779,1.000034500004754,4.478319541750085e-05
1355.395952290709,1355.395952290709,0.9998973119585178,4.478004851822858e-05
1355.4040080510429,1355.4040080510429,1.000048220419197,4.478245773919814e-05
1355.4109526718998,1355.4109526718998,0.9999619960817796,4.4781146350402836e-05
1355.417897292757,1355.417897292757,1.0000687956564611,4.478330554481248e-05
1355.424841913614,1355.424841913614,1.0000133991819955,4.47815434480492e-05
1355.4317865342848,1355.4317865342848,0.9999420043348337,4.477950962515714e-05
1355.4387311550022,1355.4387311550022,1.0000414138880895,4.4782281018400044e-05
1355.4456757755797,1355.4456757755797,1.0000458247106723,4.478276378789978e-05
1355.4526203962037,1355.4526203962037,0.9999855159456004,4.478137639962487e-05
1355.4595650166418,1355.4595650166418,1.0000697390029651,4.4783881053261545e-05
1355.4665096371261,1355.4665096371261,0.9999172068631473,4.478063532033055e-05
1355.4734542575175,1355.4734542575175,1.000093695973442,4.4785467368572085e-05
1355.4803988778626,1355.4803988778626,0.9999192555474234,4.478217138246111e-05
1355.487343498114,1355.487343498114,1.0001008083692926,4.478583068218659e-05
1355.4942881183192,1355.4942881183192,1.000011063180054,4.4783798859682806e-05
1355.5012327384777,1355.5012327384777,0.9999542809811665,4.478343262070838e-05
1355.508177358636,1355.508177358636,1.000052609755122,4.47860394137399e-05
1355.5151219786082,1355.5151219786082,0.999929054938255,4.478320835898209e-05
1355.5220665986271,1355.5220665986271,0.9999588826030209,4.478387821335792e-05
1355.5290112185528,1355.5290112185528,1.0000067476047005,4.478504198818471e-05
1355.5359558384785,1355.5359558384785,1.0000147229910847,4.478552679179581e-05
1355.5429004582645,1355.5429004582645,1.0001252020072342,4.478788244671972e-05
1355.5498450780972,1355.5498450780972,1.0000255364625215,4.4785949719252953e-05
1355.55678969779,1355.55678969779,0.999944217193516,4.478536425721147e-05
1355.5637343174828,1355.5637343174828,1.0000011565085107,4.478622050447876e-05
1355.5706789369428,1355.5706789369428,0.9999752737879752,4.478543375310759e-05
1355.5776235565424,1355.5776235565424,0.9999542308061413,4.478584895899105e-05
1355.5845681760027,1355.5845681760027,1.0000508368488779,4.478892073301837e-05
1355.5915127954627,1355.5915127954627,1.000010956826581,4.478802892499109e-05
1355.5984574148297,1355.5984574148297,0.9999439645600715,4.4786055950497566e-05
1355.6054020341496,1355.6054020341496,0.999979576842196,4.478677756345725e-05
1355.6123466533772,1355.6123466533772,1.0000782229583698,4.478884332480881e-05
1355.6192912726044,1355.6192912726044,0.9999720064928062,4.4786395799761294e-05
1355.6262358917384,1355.6262358917384,1.0000020030533854,4.478706660998468e-05
1355.6331805108723,1355.6331805108723,0.9999598102799565,4.478624240455469e-05
1355.640125129867,1355.640125129867,0.999933354176982,4.478599300607265e-05
1355.6470697488144,1355.6470697488144,1.0000404764156947,4.478812661229254e-05
1355.6540143677626,1355.6540143677626,1.0001428486672506,4.479116236002186e-05
1355.660958986617,1355.660958986617,0.9999823664068691,4.478784587567734e-05
1355.6679036054252,1355.6679036054252,1.0000726078973894,4.478952483809575e-05
1355.674848224187,1355.674848224187,1.0000288649621445,4.4789029954169923e-05
1355.6817928429482,1355.6817928429482,1.0000248948293655,4.478925505317923e-05
1355.6887374614769,1355.6887374614769,0.9998982856545497,4.478706015443134e-05
1355.6956820801456,1355.6956820801456,0.9999562908813772,4.478783659367996e-05
1355.7026266987207,1355.7026266987207,0.9999574120642158,4.478745924881375e-05
1355.7095713170631,1355.7095713170631,1.000074254370418,4.47903639557244e-05
1355.7165159355923,1355.7165159355923,0.9999496033110452,4.478658319063232e-05
1355.7234605538877,1355.7234605538877,0.9999571269372647,4.4787200388303475e-05
1355.7304051722306,1355.7304051722306,0.9999306482734311,4.4785812970961816e-05
1355.7373497904796,1355.7373497904796,1.0000213283782968,4.4786790758720014e-05
1355.7448499781644,1355.7448499781644,1.000075489175773,4.478767180037225e-05
1355.7526279504514,1355.7526279504514,1.0000912598786245,4.4787643542557924e-05
1355.759572568514,1355.759572568514,1.000174226948695,4.478912797358795e-05
1355.7665171865306,1355.7665171865306,0.999917932354732,4.4783279434546047e-05
1355.7734618045474,1355.7734618045474,1.0000173099942429,4.478486069447836e-05
1355.7804064224235,1355.7804064224235,0.9999455073681387,4.4783085728687395e-05
1355.7873510403006,1355.7873510403006,0.9999935504017735,4.478389393592748e-05
1355.7942956580846,1355.7942956580846,0.9999681581512826,4.4783160771307015e-05
1355.8012402758218,1355.8012402758218,1.000004339270467,4.478392860883279e-05
1355.8081848935121,1355.8081848935121,0.999967644429035,4.478349539573217e-05
1355.815129511156,1355.815129511156,1.0000250953297367,4.4784961689771014e-05
1355.8220741287532,1355.8220741287532,0.9999978659497474,4.4785015453312064e-05
1355.8290187462112,1355.8290187462112,1.0000079280134782,4.478500378000989e-05
1355.8359633638088,1355.8359633638088,1.0000919171104425,4.478760339338982e-05
1355.8429079811729,1355.8429079811729,0.9999844895735857,4.478494244808923e-05
1355.8498525985376,1355.8498525985376,1.0000007033204645,4.4785603465970824e-05
1355.8567972158557,1355.8567972158557,0.9999751424849528,4.478540554791407e-05
1355.8637418330338,1355.8637418330338,0.9999529195028671,4.478539525233577e-05
1355.870686450259,1355.870686450259,0.9999735804171829,4.4785894650478604e-05
1355.8776310673907,1355.8776310673907,0.9998760203102286,4.478452567223519e-05
1355.8845756845226,1355.8845756845226,1.0001051788784288,4.4789636136583074e-05
