time,time,flux,flux_err
1354.1144476023119,1354.1144476023119,1.000293604999609,0.00042606051192411673
1354.123244094076,1354.123244094076,1.0000414141973877,0.0004260635983843547
1354.1315776127603,1354.1315776127603,1.0002041391236587,0.00042612828923349047
1354.1399111316002,1354.1399111316002,0.9998129391031157,0.0004260220060312948
1354.147550190671,1354.147550190671,0.9994266702381797,0.00038876208332746593
1354.1544947899442,1354.1544947899442,0.999335597641608,0.00038879289495790244
1354.1614393893283,1354.1614393893283,1.0000689372618985,0.0003888438278315815
1354.168383988806,1354.168383988806,0.9996940825745133,0.0003887736193207084
1354.175328588382,1354.175328588382,1.0001068325046822,0.00038882847146359107
1354.182273188069,1354.182273188069,1.0003422704598874,0.00038881778390744575
1354.1892177878492,1354.1892177878492,1.000651717200395,0.0003888783664050108
1354.1961623877282,1354.1961623877282,0.999852055546371,0.00038870454070650444
1354.2031069877,1354.2031069877,0.9999985878669004,0.00038877570742419936
1354.2100515877712,1354.2100515877712,0.9997164040481892,0.0003887168332380869
1354.2169961879292,1354.2169961879292,1.0001313084974401,0.00038875645341485875
1354.2239407881866,1354.2239407881866,1.0002108327975958,0.0003888657624318099
1354.2308853885313,1354.2308853885313,0.999953242377722,0.0003888076642477692
1354.2378299889515,1354.2378299889515,1.000297455732464,0.0003888161699463548
1354.2447745894829,1354.2447745894829,0.9999917841943777,0.00038879455817721217
1354.251719190089,1354.251719190089,0.9994414400965403,0.00038870830538127163
1354.2586637907712,1354.2586637907712,0.9993925566647249,0.0003886919780434325
1354.2656083915408,1354.2656083915408,1.0002221175304566,0.00038883748744098634
1354.2725529923916,1354.2725529923916,0.9999087544934235,0.0003888103703644948
1354.2794975933302,1354.2794975933302,1.0001357877645272,0.0003887995461785055
1354.2864421943439,1354.2864421943439,1.0007484183744757,0.00038894546234247417
1354.2933867954334,1354.2933867954334,0.99988948450344,0.0003887860623596711
1354.3003313965933,1354.3003313965933,1.0006177033580907,0.000388921152145461
1354.3072759978343,1354.3072759978343,0.9994789021404527,0.00038875710283862617
1354.314220599151,1354.314220599151,0.9995793577418481,0.00038873174818291104
1354.3211652005375,1354.3211652005375,0.9998315961549501,0.0003887813672035746
1354.3281098019938,1354.3281098019938,0.9998831780413902,0.00038878422789523955
1354.3350544035202,1354.3350544035202,0.9999367692941066,0.0003888122169309358
1354.3419990051161,1354.3419990051161,1.0006751138197212,0.000388893034545953
1354.3489436067762,1354.3489436067762,0.9993893839465795,0.00038872554752479886
1354.355888208506,1354.355888208506,0.9998474402485126,0.0003888465910484295
1354.3628328103,1354.3628328103,1.0004207398885496,0.00038887204530119884
1354.3697774121579,1354.3697774121579,0.9999543928080229,0.0003887976487006716
1354.376722014086,1354.376722014086,1.000324051545339,0.0003888216330034321
1354.38366661606,1354.38366661606,1.0001363366197917,0.0003887915142110999
1354.3906112181107,1354.3906112181107,0.9998492687546008,0.000388742727922093
1354.397555820207,1354.397555820207,1.000139546977609,0.0003888017793079783
1354.4045004223738,1354.4045004223738,0.9995519346105108,0.0003887392910251585
1354.411445024581,1354.411445024581,1.0000853975262856,0.00038879075148066114
1354.4183896268582,1354.4183896268582,0.9993269888720713,0.0003887342879590625
1354.4253342291818,1354.4253342291818,1.0006200995511996,0.00038894328996503895
1354.4322788315694,1354.4322788315694,1.0001486578649168,0.00038884658625463055
1354.4392234340091,1354.4392234340091,0.9999606030526144,0.00038883909987860136
1354.4461680364843,1354.4461680364843,0.999996618636654,0.000388890165928046
1354.4531126390295,1354.4531126390295,1.0000589307441747,0.00038886694650808336
1354.4600572416207,1354.4600572416207,1.0000412235695362,0.0003888764992281925
1354.4670018442473,1354.4670018442473,1.0000979205317904,0.0003889010404021857
1354.4739464469317,1354.4739464469317,1.0000485291093282,0.0003888893539222834
1354.4808910496688,1354.4808910496688,1.0002654558725101,0.0003889365806446256
1354.487835652452,1354.487835652452,0.9992206061146947,0.0003888334074608541
1354.4947802552704,1354.4947802552704,1.000067115555025,0.0003888769186116967
1354.5017248581357,1354.5017248581357,0.9998457626575196,0.00038888152710345506
1354.5086694610468,1354.5086694610468,1.0003248741957644,0.0003890366544914346
1354.5156140639933,1354.5156140639933,0.9998882458872165,0.0003889076164840031
1354.5225586669926,1354.5225586669926,1.0002487652480854,0.0003888873130342081
1354.5295032700262,1354.5295032700262,0.9997505367207996,0.0003888449890813412
1354.536447873101,1354.536447873101,1.0002500235052596,0.00038888394279918987
1354.5433924762106,1354.5433924762106,0.9998290163956565,0.00038885771188142213
1354.5503370793606,1354.5503370793606,1.0002442871787742,0.00038890391115397655
1354.557281682546,1354.557281682546,0.9993496668348021,0.0003887852658320359
1354.5642262857773,1354.5642262857773,1.0005184355200782,0.0003890086620532986
1354.571170889038,1354.571170889038,1.000021127297691,0.00038886410524684953
1354.5781154923284,1354.5781154923284,1.0001930647636128,0.0003889628775637853
1354.5850600956587,1354.5850600956587,0.9999019324828782,0.0003888738512979801
1354.5920046990184,1354.5920046990184,0.999540461259756,0.000388887135898993
1354.5989493024135,1354.5989493024135,1.0000994446815148,0.00038895987738993526
1354.6058939058425,1354.6058939058425,1.0001356668775,0.0003890110718898978
1354.6128385093016,1354.6128385093016,0.9999220960890108,0.00038897843454093525
1354.6197831127893,1354.6197831127893,1.0002157779444905,0.00038907935354581217
1354.6267277163004,1354.6267277163004,1.0006480658195835,0.0003890445510129345
1354.6336723198467,1354.6336723198467,0.9996102246077022,0.0003889475460374759
1354.6406169234217,1354.6406169234217,1.000252490291188,0.0003890278204950029
1354.6475615270317,1354.6475615270317,1.0001650909094857,0.00038903887931370195
1354.6545061306533,1354.6545061306533,0.999819947244845,0.00038902705358661297
1354.6614507343102,1354.6614507343102,0.9999943312184325,0.00038901942609842184
1354.6683953379786,1354.6683953379786,0.9999008698653284,0.00038899557800457275
1354.6753399416932,1354.6753399416932,1.0002131490992798,0.00038910794892102067
1354.6822845454194,1354.6822845454194,0.9997955065166984,0.0003889616224461151
1354.6892291491754,1354.6892291491754,0.9999409639261427,0.0003890306971367312
1354.6961737529423,1354.6961737529423,0.9997365877859373,0.00038894284863485583
1354.7031183567447,1354.7031183567447,1.0001698752028212,0.0003890483420835636
1354.7100629605586,1354.7100629605586,1.0001450737879547,0.00038904700671378134
1354.7170075644015,1354.7170075644015,1.0003453018241035,0.00038908291194820734
1354.7239521682618,1354.7239521682618,1.0000584618832264,0.00038899066073142853
1354.7308967721397,1354.7308967721397,0.9998584732692031,0.00038899234267314155
1354.7378413760348,1354.7378413760348,0.9993553459552782,0.0003889545714806626
1354.744785979959,1354.744785979959,1.0005808154300406,0.0003890733027731758
1354.7517305838894,1354.7517305838894,1.0000722155322246,0.0003890238463787299
1354.7586751878428,1354.7586751878428,0.9997844138002531,0.0003889464096600782
1354.7656197918197,1354.7656197918197,0.9992934522719027,0.0003888191951246034
1354.7725643957963,1354.7725643957963,1.000437124746876,0.0003890326553116987
1354.7795089998083,1354.7795089998083,1.00049991494496,0.0003890873974920191
1354.7864536038198,1354.7864536038198,1.0003151259080414,0.00038905462716791277
1354.7933982078546,1354.7933982078546,0.9995394154862712,0.00038894861811342174
1354.8003428119014,1354.8003428119014,0.9995810573341419,0.0003889081523149898
1354.8072874159598,1354.8072874159598,1.0003171457277777,0.0003890563485408447
1354.8142320200354,1354.8142320200354,1.000554070008887,0.00038915691263544745
1354.8211766241227,1354.8211766241227,1.000313858632162,0.0003890609193738275
1354.828121228222,1354.828121228222,0.9996267154826329,0.00038899535675266707
1354.8350658323445,1354.8350658323445,0.9992894348540988,0.00038899502180552326
1354.8420104364664,1354.8420104364664,1.000190559486509,0.0003891009261926235
1354.8489550405886,1354.8489550405886,1.0000244409693664,0.00038911842683528856
1354.8558996447343,1354.8558996447343,0.9997652509800359,0.00038911079215221114
1354.8628442488857,1354.8628442488857,1.0003082083880888,0.00038912970624412296
1354.8697888530546,1354.8697888530546,0.9998112252000778,0.00038913169420048515
1354.8767334572235,1354.8767334572235,0.9999435472620026,0.0003891256972055717
1354.8836780614038,1354.8836780614038,1.0002602389930142,0.00038914827153961205
1354.8906226655904,1354.8906226655904,0.9997418928360018,0.0003890378567648102
1354.8975672697943,1354.8975672697943,1.0003133363228685,0.0003891669444732303
1354.9045118739975,1354.9045118739975,0.9997181919727021,0.00038905923977386296
1354.9114564782133,1354.9114564782133,1.0000862446964236,0.00038912133930910965
1354.9184010824342,1354.9184010824342,1.0005165353415661,0.00038921385776845676
1354.9253456866559,1354.9253456866559,0.999651049030206,0.00038903386098984474
1354.9328458592304,1354.9328458592304,0.9999003277907652,0.0003890367209134055
1354.9406238159693,1354.9406238159693,1.0001642151855576,0.0003890801720775011
1354.9475684202139,1354.9475684202139,0.9997344174552367,0.00038901674368124506
1354.9545130244642,1354.9545130244642,1.0001685761817436,0.0003891714247862985
1354.9614576287088,1354.9614576287088,1.0001085853681762,0.0003890547454963442
1354.9684022329768,1354.9684022329768,0.9995890444226359,0.0003890722037556831
1354.9753468372269,1354.9753468372269,1.0000195794287046,0.00038915661751797223
1354.982291441483,1354.982291441483,1.000105246797001,0.0003891754004249113
1354.9892360457509,1354.9892360457509,1.000120981608754,0.00038911249965218117
1354.996180650019,1354.996180650019,1.0000847534716153,0.0003891423524412074
1355.0031252542863,1355.0031252542863,1.0000604146668528,0.0003891497649858429
1355.0100698585604,1355.0100698585604,1.0001550537310089,0.00038917614049195154
1355.0170144628514,1355.0170144628514,1.0001969952437304,0.00038920683352539683
1355.0239590671192,1355.0239590671192,1.0000126133584724,0.00038906841735446035
1355.030903671387,1355.030903671387,0.9996562981350671,0.00038906000144367286
1355.0378482756605,1355.0378482756605,0.9997199125331777,0.00038912022713068266
1355.044792879952,1355.044792879952,0.9998315312327591,0.0003891772054365532
1355.0517374842195,1355.0517374842195,0.99994085534051,0.00038919562476218383
1355.0586820884873,1355.0586820884873,0.9999326630724699,0.00038915334892544197
1355.065626692773,1355.065626692773,1.0009715295994366,0.00038935810450150827
1355.0725712970518,1355.0725712970518,0.9995605233974778,0.00038914784163331285
1355.07951590132,1355.07951590132,0.9999860344011748,0.0003892066212183666
1355.0864605055874,1355.0864605055874,1.000282874638576,0.00038919789072354113
1355.0934051098554,1355.0934051098554,0.9998499825379078,0.00038914387024744425
1355.1003497141235,1355.1003497141235,0.9997790063816353,0.00038918121683711147
1355.1072943183913,1355.1072943183913,0.9992828828054368,0.0003890541038287685
1355.1142389226593,1355.1142389226593,1.0007199635071995,0.0003892856534855018
1355.1211835269153,1355.1211835269153,1.000325154599209,0.00038920230192889037
1355.1281281311653,1355.1281281311653,1.0000232247069707,0.0003891903192758244
1355.1350727354277,1355.1350727354277,1.00056667525972,0.00038925696279523285
1355.142017339672,1355.142017339672,0.9996214541260363,0.000389075566513291
1355.1489619439167,1355.1489619439167,0.9999229634024875,0.00038916768505312495
1355.155906548161,1355.155906548161,1.0001860056270466,0.00038909973248665386
1355.162851152394,1355.162851152394,1.0001980714315917,0.00038916380954940254
1355.169795756627,1355.169795756627,0.9995342513729181,0.00038912766099108534
1355.1767403608542,1355.1767403608542,0.9999710611964957,0.0003891225135947223
1355.1836849650754,1355.1836849650754,0.9996556247522852,0.00038909608067997693
1355.190629569291,1355.190629569291,1.0001573517273403,0.00038919225342385103
1355.1975741735005,1355.1975741735005,1.000548493311145,0.00038926846257355586
1355.2045187777098,1355.2045187777098,1.0000791311357915,0.0003891621559214803
1355.211463381908,1355.211463381908,1.000106617474337,0.00038917467247270474
1355.2184079861001,1355.2184079861001,0.9998341297423512,0.0003891472799955436
1355.2253525902806,1355.2253525902806,1.000226720062323,0.0003892568766382156
1355.2322971944614,1355.2322971944614,0.9997900671635727,0.00038918671172634173
1355.239241798636,1355.239241798636,0.9995418134274503,0.0003891358774847375
1355.2461864027987,1355.2461864027987,0.9994630244285403,0.00038911523090717217
1355.2531310069562,1355.2531310069562,1.000480350378746,0.00038927649066951975
1355.2600756111078,1355.2600756111078,1.0000174822861418,0.00038920950748865516
1355.2670202152415,1355.2670202152415,1.0003757695858215,0.0003892771937155768
1355.273964819387,1355.273964819387,1.000090217703946,0.00038918400157597806
1355.2809094235151,1355.2809094235151,1.0002907745121654,0.00038929495040252306
1355.287854027626,1355.287854027626,1.0001352810798736,0.0003892135340033102
1355.2947986317308,1355.2947986317308,0.999154453649821,0.0003890109670503903
1355.3017432358297,1355.3017432358297,1.0000853009046609,0.0003891853990251236
1355.308687839923,1355.308687839923,1.0000220589319053,0.0003891329408128371
1355.3156324439985,1355.3156324439985,0.999446858293337,0.0003891364577016783
1355.3225770480744,1355.3225770480744,1.00060709724359,0.0003893456699403519
1355.3295216521387,1355.3295216521387,1.0002488670429885,0.00038927147704278815
1355.3378551770038,1355.3378551770038,0.9999197121440085,0.00038920406323645815
1355.344799781045,1355.344799781045,0.9998371622142471,0.0003891422097819778
1355.3517443850799,1355.3517443850799,1.0002951361308388,0.0003892860123091696
1355.3586889890914,1355.3586889890914,1.0001364360879295,0.00038921847515247714
1355.3656335931032,1355.3656335931032,0.9994711885981789,0.0003891176981752224
1355.372578197109,1355.372578197109,1.0001301126303883,0.0003892083214034779
1355.3795228010918,1355.3795228010918,0.9998111556689798,0.00038913911643790266
1355.3864674050683,1355.3864674050683,1.000389907413169,0.0003892510465816735
1355.3936897931985,1355.3936897931985,1.0002829948284144,0.000389296299944187
1355.4017455337882,1355.4017455337882,0.9993422099361204,0.0003890717400739851
1355.4086901377243,1355.4086901377243,0.9996878317109956,0.0003891783247387384
1355.4156347416604,1355.4156347416604,1.0002788399245728,0.0003892962992000684
1355.4225793455792,1355.4225793455792,1.000091834467479,0.00038928464001373303
1355.4295239494859,1355.4295239494859,1.0004520502038168,0.0003893151877501423
1355.4364685533812,1355.4364685533812,0.9995511799201214,0.0003891722903422206
1355.443413157259,1355.443413157259,1.0003848952325218,0.00038927937116142844
1355.4503577611367,1355.4503577611367,0.9998828078807387,0.00038924473193318855
1355.4573023649916,1355.4573023649916,0.9997544531770828,0.000389224539729572
1355.464246968846,1355.464246968846,1.0001917007414671,0.0003893383907443431
1355.4711915726832,1355.4711915726832,0.9998250322628366,0.0003892111767233142
1355.4781361764856,1355.4781361764856,0.9999931480614492,0.0003892786346138378
1355.485080780299,1355.485080780299,1.0005939639974977,0.0003894111069683244
1355.4920253840955,1355.4920253840955,0.9999362219494738,0.0003892569361616467
1355.4989699878743,1355.4989699878743,0.999100158133538,0.0003891105374951659
1355.5059145916414,1355.5059145916414,1.0005027822982573,0.0003893089153658677
1355.5128591953974,1355.5128591953974,0.9993926235125519,0.0003891869026587851
1355.5198037991354,1355.5198037991354,1.000304386702647,0.00038929511924840255
1355.5267484028618,1355.5267484028618,1.0006320611404953,0.0003893054366455664
1355.5336930065764,1355.5336930065764,0.999733993560399,0.00038920048531630226
1355.540637610268,1355.540637610268,0.9993577481978336,0.0003890506847081508
1355.5475822139538,1355.5475822139538,1.0007738710646177,0.0003892824639465919
1355.5545268176338,1355.5545268176338,1.0001966791992691,0.0003892746090449095
1355.5614714212848,1355.5614714212848,0.9997575809993406,0.0003891677104785205
1355.5684160249298,1355.5684160249298,0.9999142762106018,0.0003891424221583738
1355.5753606285573,1355.5753606285573,1.0000258236846844,0.00038926238681529884
1355.5823052321673,1355.5823052321673,0.9999056988796283,0.00038920954251813
1355.5892498357657,1355.5892498357657,1.000042548810321,0.0003892151711016535
1355.5961944393525,1355.5961944393525,0.9999235626581635,0.0003892020472230942
1355.603139042916,1355.603139042916,1.0000627645225382,0.00038921191603761944
1355.6100836464564,1355.6100836464564,0.9994529660816148,0.00038914261786490245
1355.6170282499968,1355.6170282499968,1.0004128028688537,0.00038924114244387226
1355.6239728535309,1355.6239728535309,1.0001881992090496,0.00038928270538193143
1355.630917457036,1355.630917457036,0.9998851423917665,0.00038918705616412406
1355.63786206053,1355.63786206053,1.0004915024895256,0.00038924352096045777
1355.6448066640062,1355.6448066640062,0.9996543519929386,0.00038914453351136905
1355.651751267465,1355.651751267465,0.9999057557987637,0.0003892564940710088
1355.658695870906,1355.658695870906,1.0001414700265578,0.00038921694787206985
1355.665640474336,1355.665640474336,0.9996722845446367,0.0003892036965240585
1355.6725850777425,1355.6725850777425,1.000102210171518,0.0003892657511726693
1355.6795296811426,1355.6795296811426,0.999302504455956,0.0003891260306342827
1355.6864742845257,1355.6864742845257,1.0005780022679045,0.00038936780442133244
1355.6934188878863,1355.6934188878863,1.0003896772118661,0.00038931726640395
1355.7003634912337,1355.7003634912337,0.9996786038232308,0.0003891895847727859
1355.7073080945704,1355.7073080945704,1.000657684652004,0.0003893372133345313
1355.7142526978837,1355.7142526978837,0.998946448793348,0.00038909874322676826
1355.7211973011795,1355.7211973011795,0.9999245712021777,0.00038919115203297626
1355.728141904458,1355.728141904458,1.0006481016867133,0.00038930910422382365
1355.7350865077358,1355.7350865077358,1.000398857160085,0.00038924270485696683
1355.7425866792332,1355.7425866792332,0.9996761143507717,0.0003892065590485821
1355.7503646348493,1355.7503646348493,0.9999833643126396,0.00038919710839761037
1355.7573092380576,1355.7573092380576,1.0000446818845863,0.0003892140464008223
1355.7642538412488,1355.7642538412488,1.0001295765025848,0.000389247032743594
1355.7711984444225,1355.7711984444225,0.9993301585001776,0.00038913959280468944
1355.7781430475839,1355.7781430475839,1.0003427090842008,0.00038930460801234326
1355.7850876507227,1355.7850876507227,0.9998290069570928,0.0003891452058049927
1355.7920322538557,1355.7920322538557,1.0004671131975749,0.0003893330747106555
1355.7989768569594,1355.7989768569594,0.9999988358724478,0.00038924023136082493
1355.8059214600455,1355.8059214600455,1.000109604171309,0.0003892636657736082
1355.8128660631203,1355.8128660631203,0.9995467833964847,0.0003891614953949756
1355.8198106661714,1355.8198106661714,0.9995807641160347,0.00038917025744168737
1355.8267552692055,1355.8267552692055,0.9996097987817325,0.00038920478474280967
1355.8336998722218,1355.8336998722218,1.0001803697257319,0.0003892502891917386
1355.8406444752204,1355.8406444752204,1.0000853497408604,0.00038919740158033635
1355.8475890782022,1355.8475890782022,0.9998128484138744,0.00038922555951384106
1355.8545336811778,1355.8545336811778,0.9999619695189942,0.0003892386742266653
1355.8614782841066,1355.8614782841066,1.0003222937135732,0.0003893142183031654
1355.8684228870418,1355.8684228870418,0.9999405597957081,0.0003892211530421224
1355.8753674899476,1355.8753674899476,1.000171065729357,0.00038925194609739077
