time,time,flux,flux_err
1325.30333212451,1325.30333212451,0.9995381350529936,0.00038501519738735315
1325.3116654552098,1325.3116654552098,1.0000254981335213,0.0003850768937853826
1325.319998785988,1325.319998785988,1.0005579187800142,0.00038509510526527844
1325.3276376722006,1325.3276376722006,1.0001105789530127,0.0003514940863675278
1325.3345821144999,1325.3345821144999,0.9998606393218463,0.0003514646698257562
1325.3415265564267,1325.3415265564267,1.0001274666753397,0.0003515587037539156
1325.3484709983538,1325.3484709983538,0.9997435207023939,0.0003515576188504935
1325.3554154402807,1325.3554154402807,1.0001810106755102,0.00035165513546468567
1325.3623598822076,1325.3623598822076,1.0001180505665601,0.0003517424118499962
1325.3693043241346,1325.3693043241346,1.0004425252570968,0.00035194423691337176
1325.376248766061,1325.376248766061,0.9999705198281795,0.0003519908963469624
1325.3831932077087,1325.3831932077087,0.9996371947421174,0.0003520561119055013
1325.3901376494493,1325.3901376494493,0.9996613685580874,0.0003522544024464447
1325.39708209119,1325.39708209119,1.0004431332116996,0.00035244731155116067
1325.4040265328374,1325.4040265328374,0.9997119625476552,0.00035253817336228796
1325.410970974485,1325.410970974485,0.9998023883201771,0.00035267056273655074
1325.4179154160392,1325.4179154160392,1.0001883844552855,0.00035285765830841504
1325.4248598575937,1325.4248598575937,1.0003964875583387,0.00035298546412788434
1325.4318042991479,1325.4318042991479,1.0002348409884436,0.0003530872156497604
1325.438748740609,1325.438748740609,1.000054553303838,0.0003531765288211427
1325.4456931819773,1325.4456931819773,0.9998521120748494,0.0003532066980899833
1325.4526376234382,1325.4526376234382,0.999917371408103,0.0003532950273084347
1325.4595820648067,1325.4595820648067,0.9996692578079942,0.000353356304066328
1325.4665265061744,1325.4665265061744,0.999967238363571,0.0003534659581296501
1325.4734709475426,1325.4734709475426,0.999558495602772,0.0003534969946391676
1325.4804153887246,1325.4804153887246,0.9999736258109527,0.0003535800249552637
1325.4873598300924,1325.4873598300924,1.0000294283932303,0.0003536804378612404
1325.4943042711814,1325.4943042711814,1.000533943405412,0.000353790167955357
1325.5012487124563,1325.5012487124563,0.9999963910754712,0.0003537641039170893
1325.5081931536379,1325.5081931536379,0.9998296632962169,0.000353826144075367
1325.51513759482,1325.51513759482,1.000470232859826,0.0003539528700058361
1325.5220820358154,1325.5220820358154,0.999764836880568,0.0003538592440661321
1325.529026476997,1325.529026476997,0.9996909877373404,0.0003539256159465495
1325.5359709180857,1325.5359709180857,1.0004409986560199,0.0003541232281899876
1325.5429153590812,1325.5429153590812,0.9994334390350483,0.00035401828363783387
1325.5498598000772,1325.5498598000772,0.9997359606486598,0.0003541474529441667
1325.5568042410723,1325.5568042410723,1.0001391448947214,0.00035429709402549073
1325.5637486820683,1325.5637486820683,1.000567314796305,0.00035440248139118833
1325.5706931230638,1325.5706931230638,0.9996904819416231,0.00035434140661245127
1325.577637563966,1325.577637563966,1.0000390556952956,0.0003545323565680012
1325.5845820048687,1325.5845820048687,1.0005367032221388,0.0003546251464894081
1325.5915264457708,1325.5915264457708,0.9996482418869317,0.00035454629334611944
1325.5984708866733,1325.5984708866733,1.0003648126120448,0.0003546843128256341
1325.6054153273894,1325.6054153273894,0.9997799688644134,0.00035469910950021867
1325.6123597682918,1325.6123597682918,0.9997650846207019,0.0003547618279698118
1325.6193042091945,1325.6193042091945,1.0003549117189237,0.00035486267049973744
1325.6262486499104,1325.6262486499104,0.9999007036323639,0.0003549044388406604
1325.6331930907197,1325.6331930907197,0.9998589704519641,0.0003549380089855785
1325.6401375314358,1325.6401375314358,0.9996218445195024,0.00035488017828703717
1325.647081972245,1325.647081972245,1.0002367352792967,0.00035503320671346545
1325.6540264128682,1325.6540264128682,1.0001945809696164,0.000355094805506375
1325.660970853491,1325.660970853491,0.9999230664113323,0.00035501876867247324
1325.6679152943004,1325.6679152943004,0.9999160485642349,0.00035503008257557593
1325.6748597349233,1325.6748597349233,1.0001296560184412,0.0003551165753885947
1325.6818041755464,1325.6818041755464,0.9999701636590924,0.00035509857959339604
1325.6887486161697,1325.6887486161697,0.9998357657130816,0.00035515594704454176
1325.6956930568856,1325.6956930568856,0.9997308445943933,0.0003551751756570562
1325.702637497416,1325.702637497416,0.999873525687525,0.00035522045679323925
1325.7095819379458,1325.7095819379458,1.0001782618543142,0.0003553173713235385
1325.7165263785687,1325.7165263785687,1.0000973698324995,0.000355379416975468
1325.7234708190986,1325.7234708190986,1.000383684388804,0.0003554384332559586
1325.7304152596284,1325.7304152596284,0.9999513289794717,0.0003554859090842431
1325.737359700158,1325.737359700158,0.9997085350144637,0.0003555082293464101
1325.7443041406882,1325.7443041406882,1.0001936851843123,0.0003556790021224741
1325.7512485812179,1325.7512485812179,0.999798556822171,0.00035573411550084356
1325.758193021748,1325.758193021748,1.0009204002208225,0.000356000194466939
1325.7651374621848,1325.7651374621848,0.9994667551996234,0.000355927428154175
1325.7720819026213,1325.7720819026213,0.9998344005654601,0.00035605436205436714
1325.7790263430584,1325.7790263430584,1.000295744293926,0.00035627525103076863
1325.785970783588,1325.785970783588,0.9993239775031952,0.00035630196893842494
1325.7929152239317,1325.7929152239317,1.0001989042113693,0.00035649975854505904
1325.7998596642753,1325.7998596642753,1.0000577629534437,0.000356566700012636
1325.8068041047122,1325.8068041047122,0.9997202400172567,0.0003566293864783168
1325.813748545056,1325.813748545056,1.0004934878171403,0.0003568182700926566
1325.820692985399,1325.820692985399,0.9997509944788614,0.00035680968566246895
1325.8276374258362,1325.8276374258362,1.0001341029970987,0.00035691511321316505
1325.8345818661796,1325.8345818661796,0.9999113596619138,0.0003570117691073109
1325.8415263065235,1325.8415263065235,1.0001121671397288,0.00035712890590226305
1325.8484707468674,1325.8484707468674,1.0004139953063997,0.00035720623974358143
1325.8554151871172,1325.8554151871172,0.9994977655589512,0.0003571187043946974
1325.8623596275543,1325.8623596275543,0.9998900515657952,0.0003571651657760528
1325.8693040677117,1325.8693040677117,1.0001242447868268,0.0003572282941125718
1325.8762485080556,1325.8762485080556,1.0002310211127345,0.0003572324710761768
1325.8831929483058,1325.8831929483058,1.0001488139951618,0.0003571607820129348
1325.8901373885565,1325.8901373885565,0.999915368598649,0.0003571325787484361
1325.897081828807,1325.897081828807,0.999654771687511,0.00035707566664006205
1325.9040262689643,1325.9040262689643,1.0000246651542706,0.00035702834595014354
1325.9109707093078,1325.9109707093078,0.9994872750927101,0.0003569911214875125
1325.917915149465,1325.917915149465,0.9999730056255609,0.00035705134831142006
1325.9248595896224,1325.9248595896224,1.000043468542728,0.000357002949966424
1325.93180402978,1325.93180402978,1.000131804106922,0.0003570642436941989
1325.9387484700303,1325.9387484700303,1.0009498742249208,0.00035717606229296886
1325.9456929101877,1325.9456929101877,0.99999306781002,0.0003570804917795088
1325.9526373503454,1325.9526373503454,0.9998421390152978,0.0003570656682808199
1325.9595817905024,1325.9595817905024,1.000035957047384,0.000357094470101309
1325.967359563412,1325.967359563412,0.999786410323454,0.00035703805862901484
1325.974859558737,1325.974859558737,0.9994963190475307,0.00035710507911893724
1325.9818039988945,1325.9818039988945,1.0003097601261421,0.0003572393805010311
1325.9887484389585,1325.9887484389585,0.9999238724724812,0.0003572887294805519
1325.9956928790227,1325.9956928790227,0.9996354914126249,0.00035731416513733546
1326.0026373190872,1326.0026373190872,1.0003816034331199,0.00035743280460773843
1326.0095817591512,1326.0095817591512,1.0001659062262345,0.0003574749399131185
1326.0165261992156,1326.0165261992156,1.0003124805867185,0.00035765803461558797
1326.0234706392798,1326.0234706392798,0.999377094133185,0.0003575821585381707
1326.030415079251,1326.030415079251,1.0000225321144935,0.0003578037633821729
1326.0373595193153,1326.0373595193153,1.0000008985595288,0.0003578625672034433
1326.044303959286,1326.044303959286,0.9997020316965782,0.00035785267815865236
1326.0512483993505,1326.0512483993505,1.00053625575297,0.00035793810674333035
1326.0581928393215,1326.0581928393215,1.00030083923684,0.00035794564570111956
1326.0651372792925,1326.0651372792925,0.9994149891026343,0.0003579063212657301
1326.072081719264,1326.072081719264,1.000272783638985,0.0003580792884279769
1326.0790261591414,1326.0790261591414,0.9999037624022161,0.0003580918364404243
1326.0859705992063,1326.0859705992063,1.0002795860604503,0.0003581856166030307
1326.092915039084,1326.092915039084,0.9998740257107575,0.0003581614389346792
1326.0998594789621,1326.0998594789621,1.0000223374054262,0.00035817731753740403
1326.1068039189333,1326.1068039189333,0.9996975720428264,0.00035816147892404546
1326.113748358811,1326.113748358811,0.9999578486947579,0.0003582635561019512
1326.120692798596,1326.120692798596,0.9996078326160008,0.00035826481176817537
1326.1276372386596,1326.1276372386596,1.000579254559041,0.0003583828135113956
1326.1345816783519,1326.1345816783519,1.0003800162708985,0.00035842750343827493
1326.1415261183226,1326.1415261183226,0.9999355199592111,0.0003583453092398314
1326.1484705581079,1326.1484705581079,0.999714548756986,0.0003583034107297122
1326.1554149979856,1326.1554149979856,1.0000825335217287,0.0003583658884584819
1326.1623594376772,1326.1623594376772,0.999689511995417,0.00035840682337082033
1326.1693038776489,1326.1693038776489,1.0002847927660135,0.00035846602195677114
1326.1762483172467,1326.1762483172467,1.0000023462758072,0.0003584870827007369
1326.1831927572182,1326.1831927572182,1.0000570973754357,0.00035848132539343974
1326.19013719691,1326.19013719691,1.000160867484046,0.00035846633961694426
1326.197081636508,1326.197081636508,0.9997231213461756,0.0003584410604794342
1326.204026076573,1326.204026076573,0.9999398916793014,0.00035846953930758875
1326.210970516171,1326.210970516171,0.9998517540767387,0.00035842369828388934
1326.21791495577,1326.21791495577,0.9991955320255045,0.0003583492888202254
1326.2248593955546,1326.2248593955546,1.0003567199590635,0.0003585123322464454
1326.2318038354326,1326.2318038354326,1.0012003432971703,0.0003586355689117821
1326.2387482750314,1326.2387482750314,0.9999421603007044,0.00035850601106289135
1326.2456927146293,1326.2456927146293,0.9999573448229482,0.0003585197371165656
1326.2526371542288,1326.2526371542288,1.000034239438505,0.00035855225306121206
1326.2595815938269,1326.2595815938269,0.9997315845820826,0.00035852458217489123
1326.2665260334256,1326.2665260334256,0.9998521516776198,0.000358534184804661
1326.2734704730242,1326.2734704730242,0.9998703083433377,0.00035853434851277943
1326.2804149126227,1326.2804149126227,0.9995486057150534,0.00035847994191274244
1326.2873593522213,1326.2873593522213,1.0000016339227746,0.00035856756710536794
1326.2943037918199,1326.2943037918199,1.0003901707150669,0.0003586136870321718
1326.3012482314184,1326.3012482314184,0.9995769924619615,0.00035856141980756363
1326.308192671017,1326.308192671017,1.0008348277784322,0.0003587040509859551
1326.3151371106155,1326.3151371106155,0.9997703842188731,0.0003586186974578145
1326.322081550214,1326.322081550214,1.0001426669111784,0.00035868880872844106
1326.3290259898124,1326.3290259898124,0.9995820802291311,0.0003586106269709498
1326.3359704294119,1326.3359704294119,1.0005947827414468,0.00035877481195191593
1326.3429148685443,1326.3429148685443,1.0000831192982016,0.000358765454109421
1326.3504148633108,1326.3504148633108,0.9997502194602127,0.0003588080854557117
1326.3595815235808,1326.3595815235808,0.9994786372069837,0.0003588970737433628
1326.366525962807,1326.366525962807,0.9999291503358879,0.0003589733055745897
1326.3734704023123,1326.3734704023123,1.0001646106687567,0.00035902564874661276
1326.3804148418176,1326.3804148418176,1.000001131978752,0.0003590956172987382
1326.3873592810437,1326.3873592810437,1.0004062613792073,0.0003592276682551238
1326.3943037206423,1326.3943037206423,0.9999610413567798,0.0003592182300082797
1326.4012481597754,1326.4012481597754,1.000192210036947,0.00035925437258788826
1326.4081925993737,1326.4081925993737,0.9994582202821224,0.0003592776508144288
1326.4151370385073,1326.4151370385073,1.000349138216682,0.00035944239916215246
1326.4220814780122,1326.4220814780122,1.000023661350226,0.00035946390511555106
1326.4290259172383,1326.4290259172383,0.9998800506827548,0.00035946097309148627
1326.4359703565574,1326.4359703565574,0.9995835803326776,0.00035948358945166295
1326.4429147958767,1326.4429147958767,0.9998987208127195,0.000359607600514601
1326.4498592351028,1326.4498592351028,1.0003146585745015,0.0003596997443006322
1326.4568036743287,1326.4568036743287,1.0001265534819797,0.00035971187843647604
1326.463748113648,1326.463748113648,1.0005670978167076,0.0003598175013953355
1326.470692552874,1326.470692552874,0.9996159633746855,0.00035968303815653844
1326.4776369921,1326.4776369921,0.9998413699959962,0.0003598042977680042
1326.4845814312332,1326.4845814312332,1.0000031710060036,0.00035986686582946707
1326.491525870459,1326.491525870459,0.9998275113209786,0.00035987425694597897
1326.498470309592,1326.498470309592,0.9995403870045447,0.0003598344644207717
1326.5054147488179,1326.5054147488179,1.0003231972703166,0.00036003078838247845
1326.512359187951,1326.512359187951,1.000119830647176,0.0003600590277630975
1326.5193036270837,1326.5193036270837,1.000652599756925,0.0003601880791389939
1326.5262480661238,1326.5262480661238,0.9996903891809461,0.0003601862982672684
1326.5331925052565,1326.5331925052565,0.9998440509665713,0.00036024625934788095
1326.5401369442964,1326.5401369442964,1.0003001369567766,0.00036045648803763493
1326.5470813833363,1326.5470813833363,1.0001523039299571,0.0003605312455726568
1326.554025822376,1326.554025822376,0.9997281715193813,0.0003605501299654229
1326.5609702614156,1326.5609702614156,0.9997442523104567,0.0003605959302322726
1326.5679147004555,1326.5679147004555,0.9999157085229873,0.0003606764601523694
1326.5748591394022,1326.5748591394022,1.000163581279605,0.0003607436694077168
1326.581803578442,1326.581803578442,0.9997991536385097,0.0003607238169592979
1326.5887480173883,1326.5887480173883,0.9996384043183809,0.00036081021485568916
1326.5956924562422,1326.5956924562422,0.9999480221310881,0.0003608601607908258
1326.602636895282,1326.602636895282,1.0006149544967755,0.000360991140551999
1326.6095813341356,1326.6095813341356,1.000390613091306,0.0003610212472513144
1326.6165257730822,1326.6165257730822,0.9998988854484067,0.00036098466674872753
1326.6234702118422,1326.6234702118422,0.9991733168441683,0.00036092112568793044
1326.6304146508824,1326.6304146508824,1.0005448548084146,0.0003610618070418323
1326.6373590896424,1326.6373590896424,1.0000666948613393,0.0003610887230319726
1326.6443035284963,1326.6443035284963,0.9997596958349384,0.00036106008214559346
1326.6512479673497,1326.6512479673497,0.9999202096656029,0.0003611047551943805
1326.658192406017,1326.658192406017,1.0002182882293362,0.00036114832241318317
1326.6651368447776,1326.6651368447776,1.0002308453425184,0.0003611806580336717
1326.6720812835379,1326.6720812835379,0.9997434585489172,0.000361067952685244
1326.6790257222985,1326.6790257222985,0.9998802652862105,0.00036106198813225644
1326.6859701609656,1326.6859701609656,1.000208753780295,0.0003610828232632419
1326.6940257098752,1326.6940257098752,1.0000303829409323,0.0003610200749492228
1326.7012479261264,1326.7012479261264,1.0002528608205394,0.00036101276203427825
1326.7081923647936,1326.7081923647936,0.9997356692838899,0.0003609396124691193
1326.7156923585358,1326.7156923585358,1.0001110736289411,0.0003609135105729616
1326.7234701297687,1326.7234701297687,0.9999884281515156,0.0003608942281414867
1326.7304145684361,1326.7304145684361,0.9993528658318581,0.00036076749521707574
1326.737359006917,1326.737359006917,1.000365538169558,0.00036091948410496046
1326.7443034455846,1326.7443034455846,1.0002727626838406,0.0003608091973449436
1326.7512478839722,1326.7512478839722,1.0000508398763646,0.000360795629264432
1326.7581923226392,1326.7581923226392,0.9998035971913131,0.0003607350060729509
1326.7651367611204,1326.7651367611204,1.0000010108419908,0.0003607304756686818
1326.7720811995082,1326.7720811995082,0.9996653595645281,0.00036072124617366375
1326.7790256379892,1326.7790256379892,1.0002017568508377,0.00036075411847043265
1326.785970076377,1326.785970076377,1.0001238313960603,0.00036070749063519603
1326.792914514858,1326.792914514858,0.9997406807759243,0.0003607140627357411
1326.7998589532458,1326.7998589532458,1.0004257329668882,0.00036082313703583485
1326.806803391727,1326.806803391727,1.0006724618656897,0.0003609195391598682
1326.8137478301146,1326.8137478301146,0.9992330046945455,0.0003607710174256785
1326.8206922685022,1326.8206922685022,0.9997623794320809,0.00036090958576134885
1326.8276367067972,1326.8276367067972,1.000194833941069,0.00036094088189874936
1326.834581145092,1326.834581145092,0.9998402171044475,0.0003609736634081584
1326.8415255833868,1326.8415255833868,0.9999140059315963,0.0003609600633716284
1326.8484700216816,1326.8484700216816,0.9999189754324298,0.00036098442549611616
1326.8554144598831,1326.8554144598831,1.0000700266383424,0.00036099805030131196
1326.8623588981777,1326.8623588981777,1.0003306973530033,0.0003610249828256953
1326.8693033363797,1326.8693033363797,1.00008846600196,0.00036091019242341725
1326.8762477745813,1326.8762477745813,1.0002940287024715,0.0003608775659962096
1326.8831922126894,1326.8831922126894,1.0000800539969652,0.00036084303119560525
1326.8901366508912,1326.8901366508912,0.9993297089700015,0.00036061360137724176
1326.8970810889994,1326.8970810889994,0.9997942833271537,0.00036062769287835406
1326.904025527108,1326.904025527108,0.9999728111771267,0.0003605039820265501
1326.9109699651233,1326.9109699651233,1.0002834439622499,0.000360526738473786
1326.917914403325,1326.917914403325,0.9995742625691223,0.00036026439631628324
1326.9248588413404,1326.9248588413404,1.000474241991731,0.00036024380951762047
1326.9318032792626,1326.9318032792626,1.0001223239759873,0.00036007088876886513
1326.9387477173714,1326.9387477173714,1.000393602505682,0.00035993026655941425
1326.945692155293,1326.945692155293,0.9997524655465341,0.0003597076339799073
1326.9526365933084,1326.9526365933084,0.9995651898943887,0.0003595636605047133
1326.9595810312305,1326.9595810312305,0.999762022847953,0.00035951251429394227
1326.966525469153,1326.966525469153,0.999815027632969,0.00035937227149633626
1326.9734699070755,1326.9734699070755,1.0002540279094716,0.00035941177831851805
1326.9804143449041,1326.9804143449041,1.0002534358011128,0.0003592403958737216
1326.9873587828267,1326.9873587828267,1.0006433949727271,0.0003593215840218323
1326.9943032206554,1326.9943032206554,0.9997610900027063,0.0003591330106510927
1327.001247658392,1327.001247658392,1.0004075914229558,0.00035915152518250723
1327.0081920962207,1327.0081920962207,1.0000141142561358,0.0003590955635576313
1327.0151365339566,1327.0151365339566,0.9994637995801618,0.0003589656003984081
1327.0220809716925,1327.0220809716925,0.9994766065783148,0.00035900640031264104
1327.0290254094284,1327.0290254094284,0.9999349117469973,0.0003590821846707871
1327.0359698471646,1327.0359698471646,1.0001223888496225,0.00035910901994991486
1327.042914284807,1327.042914284807,1.0001128836745905,0.00035907588285247113
1327.0498587224502,1327.0498587224502,0.99983035789437,0.0003590996858818758
1327.0568031600928,1327.0568031600928,1.000485328905809,0.0003592384976980701
1327.0645809302082,1327.0645809302082,1.0000280710624943,0.0003592171852565365
1327.0720809228326,1327.0720809228326,0.9999026078301476,0.0003592205716443836
