time,time,flux,flux_err
1354.1188778016156,1354.1188778016156,0.9999924535984972,0.0005507904599163434
1354.1276744324277,1354.1276744324277,0.9999523489616081,0.0005508437485361539
1354.1353136114128,1354.1353136114128,1.000218887765594,0.0005028709105734762
1354.1422583192088,1354.1422583192088,0.9997926135479822,0.0005027929808263485
1354.1492030269117,1354.1492030269117,1.000108110342472,0.0005028009723586954
1354.1561477343353,1354.1561477343353,1.00016407998774,0.0005029040876322088
1354.163092441386,1354.163092441386,0.9995351659786035,0.0005026937996240661
1354.1700371484371,1354.1700371484371,0.9998062371534072,0.0005028045110305796
1354.1769818551152,1354.1769818551152,1.0002905350346265,0.000502858815083427
1354.1839265616077,1354.1839265616077,1.0006016194805307,0.0005028204077962994
1354.190871267913,1354.190871267913,1.0001921373202372,0.0005028585484753323
1354.1978159737532,1354.1978159737532,0.9995643454794308,0.0005027196583441971
1354.2047606795936,1354.2047606795936,0.9994330741377724,0.0005026324065924678
1354.2117053851543,1354.2117053851543,1.0006631648173623,0.0005029172421865735
1354.2186500904356,1354.2186500904356,0.9996191598254753,0.0005026144103002862
1354.2255947954377,1354.2255947954377,0.9998220900674312,0.0005027617097408274
1354.232539500253,1354.232539500253,0.9996967320385364,0.0005026746804719818
1354.239484204883,1354.239484204883,1.0009391465735153,0.0005029042825667729
1354.246428909326,1354.246428909326,0.999738375869392,0.0005027425870092653
1354.2533736133967,1354.2533736133967,1.0004451179707166,0.0005028095371200885
1354.260318317374,1354.260318317374,0.999738517340562,0.0005026999322567122
1354.2672630209793,1354.2672630209793,0.9992808447951432,0.0005025624149927561
1354.2742077244907,1354.2742077244907,1.0004330381474165,0.0005029183954905258
1354.2811524277236,1354.2811524277236,1.0001171309113481,0.0005028160576956565
1354.2880971307695,1354.2880971307695,1.0001350771804691,0.0005028165979349624
1354.29504183363,1354.29504183363,1.000518806289397,0.0005029512009064339
1354.301986536117,1354.301986536117,0.9995768482366796,0.0005027665027169725
1354.308931238418,1354.308931238418,1.000120547633247,0.0005028368502614958
1354.3158759406263,1354.3158759406263,0.9990993662140376,0.0005027437578590486
1354.322820642648,1354.322820642648,1.0000602702074246,0.0005028286184335181
1354.329765344297,1354.329765344297,1.0002524105970219,0.000502846498682987
1354.3367100458531,1354.3367100458531,0.9992315851773874,0.0005025983194540964
1354.3436547470367,1354.3436547470367,1.0002918029560939,0.0005027643548113663
1354.3505994482207,1354.3505994482207,1.0004086529044425,0.0005027392003877059
1354.3575441489381,1354.3575441489381,1.0002084093238153,0.0005027067347977894
1354.364488849563,1354.364488849563,1.000636404025435,0.0005027207839137704
1354.371433550095,1354.371433550095,0.9995706172653396,0.0005026267941634695
1354.3783782502537,1354.3783782502537,1.0003800995083265,0.0005025807062204897
1354.3853229503197,1354.3853229503197,0.9999195382198627,0.0005026337688411721
1354.3922676500133,1354.3922676500133,0.999566070457085,0.0005025981095053597
1354.3992123497064,1354.3992123497064,0.9999743133459431,0.0005026584021936182
1354.4061570490276,1354.4061570490276,0.9999455438684274,0.0005026779594549943
1354.4131017481623,1354.4131017481623,0.999260425404724,0.0005026400896463217
1354.4200464470173,1354.4200464470173,1.0009497540747858,0.0005029299914380156
1354.426991145873,1354.426991145873,1.0008552383296725,0.0005029078681224104
1354.4339358445413,1354.4339358445413,1.0001998609204505,0.0005026691276679288
1354.4408805429312,1354.4408805429312,0.9996898239821677,0.0005026694577838468
1354.4478252410413,1354.4478252410413,1.0001627774822919,0.0005027223253981106
1354.4547699390585,1354.4547699390585,0.9993784286774995,0.0005025915759883701
1354.4617146367964,1354.4617146367964,1.0003348668720173,0.0005026763513190691
1354.4686593344406,1354.4686593344406,0.9994463553705003,0.000502549713151066
1354.4756040318057,1354.4756040318057,0.999918480161781,0.0005025297774269302
1354.482548728985,1354.482548728985,1.000307099106045,0.0005026157545953921
1354.4894934258841,1354.4894934258841,1.000613814469055,0.0005025530555860557
1354.4964381227837,1354.4964381227837,1.00005532799983,0.0005024955418646758
1354.5033828193107,1354.5033828193107,0.9996278348064941,0.0005023417210246107
1354.5103275158376,1354.5103275158376,0.9990664717310604,0.0005022590456843308
1354.5172722118991,1354.5172722118991,1.0001819906440013,0.0005025504818486411
1354.5242169080534,1354.5242169080534,0.9997118641650337,0.000502416083097804
1354.531161603835,1354.531161603835,1.001169203932448,0.0005027934703841251
1354.5381062995243,1354.5381062995243,0.9998348651123932,0.000502593951765125
1354.54505099484,1354.54505099484,0.9996452743672464,0.0005024896340396044
1354.5519956902494,1354.5519956902494,0.9999602163413327,0.0005025663057768687
1354.5589403852869,1354.5589403852869,0.9985856361754546,0.000502303368554451
1354.5658850802297,1354.5658850802297,0.9998431130397343,0.000502625732121604
1354.5728297749877,1354.5728297749877,1.0000929680060824,0.0005026102636409739
1354.5797744694653,1354.5797744694653,1.000426024176781,0.0005027905108074126
1354.5867191636642,1354.5867191636642,1.000288237416596,0.0005026127915881065
1354.593663857863,1354.593663857863,0.9999861987172969,0.0005026962658427585
1354.6006085520617,1354.6006085520617,0.9998191281903894,0.0005025897412159688
1354.6075532457944,1354.6075532457944,1.0000657496806111,0.0005026058223838525
1354.6144979394344,1354.6144979394344,0.9995240465578901,0.0005025396121363519
1354.6214426329807,1354.6214426329807,0.9994923769871852,0.0005025846078508098
1354.628387326155,1354.628387326155,1.0002308008205785,0.0005026362936181071
1354.6353320194225,1354.6353320194225,1.0001283404812837,0.0005025942393878842
1354.642276712224,1354.642276712224,0.999942553432237,0.0005025874925057195
1354.649221405119,1354.649221405119,1.0008080753999553,0.0005026049919800697
1354.656166097641,1354.656166097641,0.9996330473072712,0.0005024381098603649
1354.6631107900705,1354.6631107900705,1.0003529300638792,0.0005025255277878274
1354.6700554823135,1354.6700554823135,0.9998105327847913,0.0005024146975187277
1354.6770001742766,1354.6770001742766,0.9996898386924084,0.0005024451754621508
1354.6839448661474,1354.6839448661474,1.000286295579952,0.0005025751720557495
1354.6908895580175,1354.6908895580175,0.9994304874388626,0.0005024109898823884
1354.697834249515,1354.697834249515,1.0004961143922582,0.0005025821301326142
1354.70477894092,1354.70477894092,1.000016694618326,0.0005024598369881356
1354.7117236321385,1354.7117236321385,1.0000590916628755,0.0005024173478908668
1354.7186683232635,1354.7186683232635,1.0000754580369704,0.0005025933295438925
1354.7256130141097,1354.7256130141097,0.9997972370490761,0.0005024867714121424
1354.7325577049553,1354.7325577049553,0.9997743883424013,0.0005024234340178039
1354.739502395429,1354.739502395429,0.9997158762261769,0.0005023905763791207
1354.746447085809,1354.746447085809,1.0002882958351682,0.000502489090345555
1354.7533917760961,1354.7533917760961,0.9998206481138057,0.0005023518987869449
1354.7603364661038,1354.7603364661038,1.0009245670087823,0.0005026333299088812
1354.7672811560183,1354.7672811560183,0.9994557848923433,0.0005023048393481563
1354.7742258458397,1354.7742258458397,1.0003627851336256,0.0005024787327545512
1354.7811705355682,1354.7811705355682,1.0001606654687802,0.0005024853689150961
1354.7881152248306,1354.7881152248306,0.9997086781998643,0.0005023799009097658
1354.7950599141864,1354.7950599141864,0.9994776885199638,0.0005023611031480174
1354.802004603263,1354.802004603263,0.9998115061360281,0.0005023585916878104
1354.808949292153,1354.808949292153,1.0002957586669576,0.0005024018249949918
1354.8158939809498,1354.8158939809498,0.9997595197392737,0.0005023888358794511
1354.8228386696537,1354.8228386696537,1.0005621473716488,0.0005024529446713962
1354.8297833580782,1354.8297833580782,1.0000246644087891,0.0005023320449899918
1354.8367280464095,1354.8367280464095,0.9995142870439127,0.0005023352316471657
1354.8436727346477,1354.8436727346477,1.0003751727664092,0.0005025056702437231
1354.850617422793,1354.850617422793,1.0001160500261956,0.0005023385121259985
1354.8575621105651,1354.8575621105651,0.9995860150246063,0.0005022090859174947
1354.8645067983377,1354.8645067983377,1.0003713976236668,0.0005024716600281851
1354.8714514859244,1354.8714514859244,1.0001996339418733,0.0005023972451568638
1354.878396173324,1354.878396173324,0.9997130112305628,0.000502308727852449
1354.8853408605378,1354.8853408605378,1.0000859329022536,0.0005024665343783958
1354.8922855477515,1354.8922855477515,1.0001348002485124,0.0005024808980150763
1354.899230234779,1354.899230234779,0.9998402905918692,0.0005023139140821257
1354.9061749216205,1354.9061749216205,0.9995466624045444,0.0005022696453622214
1354.913119608275,1354.913119608275,0.9999967495914998,0.0005024413497932815
1354.9200642947437,1354.9200642947437,0.9998194144429456,0.0005023841597359539
1354.9270089812126,1354.9270089812126,1.0005888246519938,0.00050239134264614
1354.933953667402,1354.933953667402,0.9994838037907409,0.0005023578255808723
1354.9422872906612,1354.9422872906612,1.000441034343402,0.0005024299742519831
1354.9492319766646,1354.9492319766646,1.0000929129305756,0.0005022187340991103
1354.956176662481,1354.956176662481,0.999784896162532,0.0005022420933937144
1354.9631213481116,1354.9631213481116,0.9997407521207153,0.000502231101524219
1354.9700660336493,1354.9700660336493,1.0008575229269414,0.0005024423647685473
1354.9770107189997,1354.9770107189997,1.0009330639717215,0.0005024062391020187
1354.983955404072,1354.983955404072,0.999459342231761,0.0005022421737570646
1354.990900089423,1354.990900089423,1.000366941795375,0.0005023881576186512
1354.997844774308,1354.997844774308,0.9999922531939834,0.0005022609332534273
1355.0047894590075,1355.0047894590075,0.9999389585809043,0.0005023568886736337
1355.0117341436132,1355.0117341436132,0.9999195478967048,0.0005022403459709914
1355.0186788281264,1355.0186788281264,0.9995044171803645,0.0005022901623673552
1355.0256235125462,1355.0256235125462,0.9998788049196973,0.0005022766137734761
1355.0325681967795,1355.0325681967795,1.000182752706306,0.0005023918623136999
1355.0395128809203,1355.0395128809203,1.00030109584241,0.0005024557928353947
1355.0464575648741,1355.0464575648741,1.0000231139724574,0.0005023906918013792
1355.0534022486422,1355.0534022486422,0.9998068651602342,0.0005023637329168854
1355.0603469323166,1355.0603469323166,0.9998430698567571,0.0005023436657618115
1355.0672916159915,1355.0672916159915,1.0011138259658618,0.0005026348236227704
1355.0742362993867,1355.0742362993867,0.9999422862410896,0.0005024535790670814
1355.081180982689,1355.081180982689,0.9998058295819842,0.0005023500611607409
1355.0881256658045,1355.0881256658045,0.9994090124788757,0.0005022479746625459
1355.0950703488274,1355.0950703488274,1.0000991611780106,0.0005024231159332274
1355.1020150317574,1355.1020150317574,1.0000071758674023,0.0005023989744302126
1355.1089597144073,1355.1089597144073,0.9992487745836188,0.0005022279718274425
1355.1159043973373,1355.1159043973373,0.9996934497044695,0.0005023830283174019
1355.1228490796148,1355.1228490796148,1.0001457570896175,0.000502403307852476
1355.1297937619856,1355.1297937619856,1.00084973496827,0.0005025713383865571
1355.1367384442635,1355.1367384442635,1.0002020193399974,0.0005023963862682437
1355.1436831263547,1355.1436831263547,1.0004440663617757,0.0005024148167773192
1355.1506278083536,1355.1506278083536,1.0007847614873089,0.0005024706712219556
1355.1575724901654,1355.1575724901654,1.0002687110658086,0.0005024387524321692
1355.1645171718842,1355.1645171718842,0.999562021729037,0.0005023113553477574
1355.1714618535102,1355.1714618535102,0.9991965009902579,0.0005021846662966077
1355.1784065348565,1355.1784065348565,0.9994509823533203,0.0005022707967324825
1355.185351216296,1355.185351216296,1.0004149145103471,0.0005024686780131158
1355.1922958975497,1355.1922958975497,1.0001800383475932,0.0005024605773514024
1355.1992405785231,1355.1992405785231,0.9998656127433214,0.0005024151918359657
1355.2061852595903,1355.2061852595903,0.9998426215537076,0.0005023658059039339
1355.2131299403777,1355.2131299403777,1.001052022257229,0.0005024707871699382
1355.2200746210724,1355.2200746210724,0.9997080251591022,0.0005021439706292053
1355.2270193016739,1355.2270193016739,0.9997436402574964,0.0005021876684095047
1355.233963982182,1355.233963982182,0.9992809710282085,0.0005021087076981147
1355.240908662411,1355.240908662411,1.0003996776935118,0.0005022443775997627
1355.2478533426395,1355.2478533426395,0.9996766186186999,0.0005021922321850058
1355.2547980228683,1355.2547980228683,1.00060852153854,0.0005024095702044342
1355.2617427027249,1355.2617427027249,1.000432205199478,0.00050240538523268
1355.268687382581,1355.268687382581,1.0003830278619819,0.0005024007880461783
1355.2756320623441,1355.2756320623441,0.9999749242126924,0.0005023432946161394
1355.282576741921,1355.282576741921,0.9998091424919245,0.000502271398702819
1355.2895214214045,1355.2895214214045,0.9994437839830337,0.0005022568340820046
1355.2964661007954,1355.2964661007954,0.9994808832854607,0.0005021964989306251
1355.30341078,1355.30341078,0.999080862174288,0.0005021503511216114
1355.3103554592042,1355.3103554592042,1.0008469954855879,0.0005025118945062456
1355.3173001381294,1355.3173001381294,1.0007669289835295,0.0005024714318716183
1355.3242448170543,1355.3242448170543,1.000119228635088,0.0005023705432281429
1355.3311894957928,1355.3311894957928,0.9999213513053394,0.0005023893986347862
1355.3389675358796,1355.3389675358796,0.99979968950046,0.0005023360784813139
1355.346467788664,1355.346467788664,0.9998026328838746,0.0005022554672897251
1355.3534124670302,1355.3534124670302,1.0000314526524483,0.0005022660181206183
1355.3603571453036,1355.3603571453036,0.9995041833343583,0.0005021991047556752
1355.3673018234833,1355.3673018234833,1.0005297469726704,0.0005023357967820101
1355.3742465013836,1355.3742465013836,0.9998074517056234,0.0005021465581676024
1355.3811911792843,1355.3811911792843,0.9998837344770543,0.0005021464555185073
1355.3881358571848,1355.3881358571848,1.0002127808775156,0.0005021917768846093
1355.3950805349923,1355.3950805349923,1.000047665164529,0.0005021704900735567
1355.4031363608913,1355.4031363608913,0.999700147985201,0.000502165807762495
1355.4103588254418,1355.4103588254418,1.0009867513049566,0.0005023885627765802
1355.4173035027839,1355.4173035027839,1.0001722412738077,0.0005022463105852123
1355.4242481799395,1355.4242481799395,0.9998076050037558,0.0005021980600220811
1355.4311928570946,1355.4311928570946,0.9996388626857625,0.0005020161460530382
1355.4381375339708,1355.4381375339708,0.9998006727537032,0.0005021072696475135
1355.44508221094,1355.44508221094,0.9993449103490862,0.0005020211608417312
1355.4520268877227,1355.4520268877227,1.0001592874231462,0.0005022555127234933
1355.4589715642264,1355.4589715642264,1.0008075759267008,0.0005023901235047761
1355.4659162408232,1355.4659162408232,0.999604042683166,0.0005022341509629306
1355.4728609171405,1355.4728609171405,1.000027699046813,0.0005022224610207111
1355.479805593551,1355.479805593551,1.0005576421747873,0.000502372145609626
1355.4867502696818,1355.4867502696818,1.0001251689107096,0.0005022805719882465
1355.4936949458129,1355.4936949458129,0.9991767696220137,0.0005020914104365797
1355.5006396217577,1355.5006396217577,1.0003920668740127,0.0005024035005839935
1355.507584297516,1355.507584297516,0.9999140149699871,0.0005022433887733718
1355.5145289734608,1355.5145289734608,0.9997601186357755,0.0005022696772967311
1355.5214736491264,1355.5214736491264,1.000438996620051,0.0005024167560444142
1355.5284183246981,1355.5284183246981,0.9995603868520415,0.0005022648550402407
1355.5353629998976,1355.5353629998976,1.0001494521791916,0.00050237723096865
1355.5423076753773,1355.5423076753773,1.0001135610495513,0.0005023265695788192
1355.5492523504836,1355.5492523504836,1.0000521587383653,0.0005023792321995404
1355.55619702559,1355.55619702559,0.9992134645690989,0.0005022601941211543
1355.5631417005106,1355.5631417005106,1.0004451006363744,0.0005023406409442336
1355.570086375524,1355.570086375524,1.0001745766126027,0.0005023709055206528
1355.577031050258,1355.577031050258,1.0002906907766538,0.0005023570027165035
1355.583975724899,1355.583975724899,0.9994668313474738,0.0005022567477518645
1355.5909203993535,1355.5909203993535,1.0006295115174926,0.0005024886660782494
1355.5978650738084,1355.5978650738084,0.999167149998198,0.0005022115579136661
1355.6048097481694,1355.6048097481694,1.0003213705401985,0.000502402054791855
1355.611754422438,1355.611754422438,1.0003649456262047,0.0005025505553710263
1355.6186990966132,1355.6186990966132,1.0001939859092839,0.0005023717754511798
1355.625643770602,1355.625643770602,0.9996298627689548,0.0005022867145923822
1355.6325884445912,1355.6325884445912,1.000310741579733,0.0005024197565306876
1355.639533118394,1355.639533118394,0.9999282383860002,0.0005024330759994317
1355.6464777921033,1355.6464777921033,1.000549632870072,0.0005024082140420323
1355.6534224657198,1355.6534224657198,0.9994242770044582,0.0005022661583402963
1355.6603671391501,1355.6603671391501,0.9999085246299174,0.000502275546952176
1355.6673118123938,1355.6673118123938,1.0001867190856562,0.0005022447825603886
1355.6742564861038,1355.6742564861038,1.0004413256567073,0.0005025005210088031
1355.6812011588818,1355.6812011588818,1.000066288846846,0.0005024160205308197
1355.6881458321259,1355.6881458321259,0.9995923298272397,0.0005023558080534837
1355.6950905051833,1355.6950905051833,0.9999103378521463,0.0005023634296033587
1355.7020351780545,1355.7020351780545,1.0004556481054518,0.0005025245262959262
1355.70897985074,1355.70897985074,1.0005394647635502,0.0005024834937643761
1355.715924523425,1355.715924523425,0.9996786251746084,0.0005023080013600001
1355.7228691960167,1355.7228691960167,0.9996555460388331,0.0005022807534675209
1355.729813868516,1355.729813868516,0.9994590226233131,0.0005023432460640059
1355.7367585409215,1355.7367585409215,0.9998296422434751,0.0005024118064699981
1355.7437032131413,1355.7437032131413,1.001057329373355,0.0005025783877619098
1355.752036819823,1355.752036819823,0.9999233465011818,0.0005023663846198483
1355.7589814917633,1355.7589814917633,1.0001937543612982,0.0005023000275015952
1355.7659261637032,1355.7659261637032,0.9996783568115959,0.0005022880471980997
1355.7728708355503,1355.7728708355503,0.9998478116129871,0.0005023408400053728
1355.7798155073035,1355.7798155073035,0.9995597471598743,0.0005022550426821714
1355.7867601789644,1355.7867601789644,1.0004866029625936,0.0005023377776659556
1355.7937048504389,1355.7937048504389,0.9996109328900804,0.0005021548215381028
1355.8006495219136,1355.8006495219136,0.9992950523148861,0.000502156258160088
1355.8075941932943,1355.8075941932943,1.0006167198963731,0.0005024861316468653
1355.8145388644894,1355.8145388644894,1.0002988676559148,0.0005023202852643096
1355.8214835355918,1355.8214835355918,1.0003271846548554,0.0005022726549230155
1355.8284282065072,1355.8284282065072,1.0000739183748666,0.00050225885272397
1355.8353728774225,1355.8353728774225,0.999985805042102,0.0005021942081844445
1355.8423175483385,1355.8423175483385,1.0008399712151903,0.0005024704389642886
1355.849262219254,1355.849262219254,0.9996242516112531,0.0005022112201390101
1355.8562068897972,1355.8562068897972,0.9995508948596111,0.0005021736787736299
1355.8631515604334,1355.8631515604334,0.999682703735224,0.0005022792358851764
1355.8700962308833,1355.8700962308833,0.9999574852143626,0.0005022933613534011
1355.8770409012402,1355.8770409012402,0.9992865162831158,0.0005022293248936945
1355.883985571504,1355.883985571504,0.9999454238962049,0.000502291417130731
1355.8909302416741,1355.8909302416741,1.001192884250524,0.0005024479365282747
