time,time,flux,flux_err
1354.1135724405483,1354.1135724405483,0.9978391461245685,0.002363897800350367
1354.1223685279242,1354.1223685279242,1.000099922528568,0.0023654020210331214
1354.130701663641,1354.130701663641,1.001477063204845,0.0023677661122178803
1354.1383403716616,1354.1383403716616,1.0030363941913971,0.0021616483768707377
1354.1452846518757,1354.1452846518757,0.9983900458749762,0.002159778422505915
1354.152228932305,1354.152228932305,1.0010752554041047,0.0021611648436057106
1354.1591732129382,1354.1591732129382,1.0024262179266867,0.002161345188976018
1354.1661174937751,1354.1661174937751,0.9963891069454874,0.0021596400978644466
1354.17306177481,1354.17306177481,1.0019213921335794,0.0021619268124124253
1354.1800060560545,1354.1800060560545,0.998540678899249,0.002159414660535847
1354.1869503374794,1354.1869503374794,0.9984373116174183,0.002161049433563787
1354.193894619114,1354.193894619114,1.0020705755476098,0.0021616824860813157
1354.200838900952,1354.200838900952,0.9989382848011669,0.002160511839518068
1354.2077831829647,1354.2077831829647,1.0000981110333784,0.0021613599987304133
1354.2147274651809,1354.2147274651809,0.9993314553712824,0.002160599740554139
1354.2216717475953,1354.2216717475953,1.0002244356909544,0.0021601030355999453
1354.22861603019,1354.22861603019,0.9978705489512455,0.002158399377891634
1354.235560312983,1354.235560312983,1.00370868268956,0.0021598980391428456
1354.242504595962,1354.242504595962,1.0020232854558144,0.0021607035135227525
1354.2494488791212,1354.2494488791212,0.9962239419248817,0.002157292802525639
1354.2563931624725,1354.2563931624725,1.0014745506895149,0.0021573850785104225
1354.2633374459988,1354.2633374459988,0.9988492215221336,0.002157535479222401
1354.2702817297286,1354.2702817297286,0.9988209584405883,0.0021575266140633825
1354.2772260136217,1354.2772260136217,0.9995900408807831,0.002157700614106255
1354.2841702976948,1354.2841702976948,1.0008823278757781,0.0021581899731406614
1354.2911145819603,1354.2911145819603,1.0022900623769995,0.0021590927407949324
1354.2980588664,1354.2980588664,1.0002538593584525,0.002159612089354431
1354.3050031510088,1354.3050031510088,0.9998918935246376,0.002158367430205679
1354.3119474357923,1354.3119474357923,1.0002698015627172,0.002158426098734096
1354.3188917207622,1354.3188917207622,0.9971909973607319,0.002157687003186768
1354.3258360058942,1354.3258360058942,1.0001327174166004,0.0021595085896856103
1354.332780291202,1354.332780291202,1.0019496835732333,0.0021600149455157933
1354.3397245766837,1354.3397245766837,0.9966055662098002,0.002159772123933354
1354.346668862323,1354.346668862323,1.001402180944479,0.002159998913885852
1354.3536131481426,1354.3536131481426,1.0059546319983081,0.002161048463953276
1354.3605574341075,1354.3605574341075,0.99607783667416,0.0021568507930995696
1354.367501720253,1354.367501720253,0.9973889193673949,0.00215753408925306
1354.3744460065614,1354.3744460065614,1.0009118332735003,0.0021581952591588674
1354.3813902930328,1354.3813902930328,0.9983634940981796,0.0021568983191058025
1354.3883345796617,1354.3883345796617,0.9990496960069011,0.002156560859845982
1354.3952788664587,1354.3952788664587,1.0016112796162857,0.0021569484627345066
1354.4022231534134,1354.4022231534134,1.0018543360533645,0.0021567186822993144
1354.4091674405254,1354.4091674405254,1.0027431492425847,0.0021568337635135193
1354.416111727794,1354.416111727794,1.0013840753313121,0.002156870771508941
1354.4230560152087,1354.4230560152087,0.9990211450920088,0.002156958134004958
1354.43000030278,1354.43000030278,0.9970757964867601,0.002154499982392294
1354.4369445905086,1354.4369445905086,0.9997158598566036,0.0021558546173125258
1354.4438888783886,1354.4438888783886,1.001380326807436,0.002156498571579248
1354.4508331664142,1354.4508331664142,0.9978697132013267,0.002155868668894623
1354.457777454591,1354.457777454591,0.9978422020847308,0.0021559207889478515
1354.4647217429197,1354.4647217429197,1.0015851766396993,0.0021572124762250593
1354.471666031393,1354.471666031393,1.000594304830311,0.002158319563833908
1354.478610320007,1354.478610320007,1.0024602646859087,0.002158698482709594
1354.4855546087715,1354.4855546087715,0.9967140411963961,0.002156785927880231
1354.492498897676,1354.492498897676,1.0019716089434074,0.0021578309613307306
1354.4994431867265,1354.4994431867265,0.9988322045045323,0.0021562328911124513
1354.5063874759157,1354.5063874759157,0.9983513819437952,0.0021562454803496635
1354.5133317652453,1354.5133317652453,0.9965182297796649,0.002155718161899856
1354.520276054703,1354.520276054703,1.0007275583567725,0.0021570320360905005
1354.5272203443114,1354.5272203443114,1.0007278443800207,0.0021557926396968785
1354.5341646340544,1354.5341646340544,0.9976580327230714,0.002155015732391026
1354.5411089239253,1354.5411089239253,1.0028531750816438,0.002157867197261788
1354.5480532139356,1354.5480532139356,1.001920056941126,0.002155450899468726
1354.5549975040863,1354.5549975040863,1.0028006444649695,0.00215545400505988
1354.5619417943583,1354.5619417943583,0.9978270320362361,0.002153879267108031
1354.5688860847704,1354.5688860847704,0.9990018144117471,0.0021542914758984856
1354.5758303753105,1354.5758303753105,0.9975937809918236,0.0021528729465199446
1354.5827746659784,1354.5827746659784,1.0013028660801606,0.002153930668244537
1354.5897189567693,1354.5897189567693,1.0010456382327229,0.0021534417495881475
1354.5966632476934,1354.5966632476934,0.9981091078259962,0.0021527006192479875
1354.6036075387397,1354.6036075387397,1.0009792949248808,0.002154791482656529
1354.6105518299146,1354.6105518299146,1.002877424160631,0.0021556326645015256
1354.6174961212052,1354.6174961212052,0.9986943403120963,0.0021544412033053647
1354.6244404126305,1354.6244404126305,0.9983600099447265,0.002154103878976801
1354.6313847041722,1354.6313847041722,1.0011219226007833,0.002154756675661991
1354.6383289958412,1354.6383289958412,1.0007045273509676,0.0021550853198264233
1354.6452732876155,1354.6452732876155,1.0016332087084059,0.0021546564514058064
1354.6522175795176,1354.6522175795176,0.9980253851839744,0.002152526779556502
1354.659161871536,1354.659161871536,0.9978452333499369,0.002153752540547925
1354.6661061636714,1354.6661061636714,0.997222317419053,0.0021529505929184243
1354.6730504559343,1354.6730504559343,1.001396917044135,0.0021561082376672213
1354.6799947482907,1354.6799947482907,1.0036065923507962,0.0021562937496537055
1354.686939040775,1354.686939040775,1.0000889385015301,0.002155687936115599
1354.693883333364,1354.693883333364,0.9986738721164082,0.0021547792215844824
1354.7008276260756,1354.7008276260756,1.0021083806455553,0.0021553921918928973
1354.7077719188915,1354.7077719188915,1.0008440149514013,0.002153653362420959
1354.7147162118238,1354.7147162118238,0.9979847965739511,0.0021543454947887683
1354.7216605048613,1354.7216605048613,0.9966374921473061,0.002152955364967308
1354.728604798009,1354.728604798009,1.0000121164915374,0.0021551430602955017
1354.7355490912619,1354.7355490912619,1.000362723374132,0.0021551294823372743
1354.7424933846191,1354.7424933846191,1.002735520808884,0.0021570564180925433
1354.7494376780928,1354.7494376780928,1.0018589865103897,0.002155922154570469
1354.7563819716713,1354.7563819716713,1.0008522834065499,0.002156471424556802
1354.7633262653374,1354.7633262653374,0.9995332044525072,0.002154909740921801
1354.7702705591314,1354.7702705591314,0.9977788928027083,0.002154464652358827
1354.7772148530128,1354.7772148530128,0.9994845139147059,0.002155036455606613
1354.784159146993,1354.784159146993,0.9992714667927839,0.0021544176303847883
1354.791103441078,1354.791103441078,1.001676475303475,0.0021553074154011817
1354.798047735262,1354.798047735262,1.0007882673012654,0.0021557582155004745
1354.8049920295564,1354.8049920295564,0.9984744737246526,0.0021537468409567073
1354.8119363239443,1354.8119363239443,1.0001595631007956,0.0021538793290145795
1354.8188806184248,1354.8188806184248,1.003826862151049,0.0021545281881654088
1354.8258249130106,1354.8258249130106,1.0012943898238245,0.0021540092567189973
1354.8327692076778,1354.8327692076778,0.9973174869730161,0.002150989312806202
1354.8397135024554,1354.8397135024554,0.9989730796958101,0.0021497848960628186
1354.8466577973204,1354.8466577973204,1.0001106812685536,0.002150090003255118
1354.8536020922784,1354.8536020922784,1.0011312881118473,0.0021512840449096045
1354.8605463873355,1354.8605463873355,0.9985442941416899,0.0021494434965689526
1354.8674906824917,1354.8674906824917,0.9995029218337889,0.0021503354497761813
1354.8744349777173,1354.8744349777173,1.0003057199315477,0.002150305226358353
1354.8813792730482,1354.8813792730482,1.0006318249606774,0.0021508638799221467
1354.888323568472,1354.888323568472,1.0017856856507736,0.002151996341020644
1354.8952678639832,1354.8952678639832,1.0025623510400645,0.0021515106276419065
1354.9022121595815,1354.9022121595815,1.000425548975054,0.0021518919344988723
1354.909156455267,1354.909156455267,0.9961379432217867,0.002150943418399215
1354.91610075104,1354.91610075104,0.9998899130599501,0.0021515411767858072
1354.9230450469124,1354.9230450469124,0.9997173474066539,0.002151178529118925
1354.9302671146907,1354.9302671146907,0.9977478247213305,0.0021503222875058304
1354.9383224981004,1354.9383224981004,0.9994539543237148,0.0021517751437678903
1354.9452667942403,1354.9452667942403,0.999668352182538,0.00215279026709664
1354.9522110904559,1354.9522110904559,1.0032019006750925,0.0021548231430556486
1354.9591553867645,1354.9591553867645,1.0036800212169228,0.002154909728127641
1354.9660996831371,1354.9660996831371,0.9989463696158335,0.0021532416515732617
1354.9730439796083,1354.9730439796083,0.9983287013081285,0.0021523899048832367
1354.9799882761558,1354.9799882761558,1.0001064579115204,0.0021529603267518927
1354.9869325727843,1354.9869325727843,0.9989113162934877,0.0021527454309547495
1354.993876869506,1354.993876869506,0.999313963689777,0.0021529225455001856
1355.000821166292,1355.000821166292,1.0009647792772418,0.002154603898872406
1355.0077654631593,1355.0077654631593,1.0013276185365036,0.00215477884524158
1355.0147097601025,1355.0147097601025,0.9965405975220797,0.0021533670276267037
1355.0216540571212,1355.0216540571212,1.0027644357560335,0.0021549473047315993
1355.0285983542271,1355.0285983542271,1.0008864991154867,0.0021532925912770935
1355.035542651409,1355.035542651409,0.9990396184997486,0.0021524402118326446
1355.0424869486546,1355.0424869486546,0.9981742589631883,0.0021508637054909853
1355.0494312459814,1355.0494312459814,0.9988392518642858,0.002152541901393678
1355.0563755433905,1355.0563755433905,1.0025292124718466,0.0021520310800486604
1355.0633198408632,1355.0633198408632,0.996655017749703,0.0021497425404638695
1355.070264138417,1355.070264138417,1.0022190343353592,0.0021508082036397038
1355.0772084360528,1355.0772084360528,1.0008025870985144,0.0021495352867394275
1355.0841527337348,1355.0841527337348,1.000751247707024,0.0021510419004291117
1355.0910970315163,1355.0910970315163,1.0017112346009784,0.002151168150117228
1355.0980413293441,1355.0980413293441,1.0014095355441068,0.002150670349970196
1355.1049856272707,1355.1049856272707,0.9987403078629822,0.0021491124196191445
1355.1119299252443,1355.1119299252443,0.997669872420168,0.002148228767850648
1355.1188742232875,1355.1188742232875,0.9981350832321321,0.0021488344997505375
1355.1258185214117,1355.1258185214117,0.9990808901854302,0.0021492628549876387
1355.1327628196007,1355.1327628196007,1.0006459794098341,0.0021488671140295116
1355.1397071178646,1355.1397071178646,1.0012253728621945,0.0021497428116459003
1355.1466514161934,1355.1466514161934,0.9995333052548642,0.0021496445661378176
1355.1535957145857,1355.1535957145857,1.0013855449993698,0.0021501289365613353
1355.160540013036,1355.160540013036,1.000915403154186,0.0021505976653516676
1355.167484311563,1355.167484311563,1.0018228640150544,0.002151054294778654
1355.1744286101587,1355.1744286101587,0.9990787488373197,0.002149409469811571
1355.1813729088185,1355.1813729088185,0.999412015537066,0.0021501901095830806
1355.1883172075372,1355.1883172075372,0.9990759248735251,0.0021497935857045054
1355.195261506325,1355.195261506325,0.99805391873549,0.0021498149352689264
1355.2022058051716,1355.2022058051716,1.0013027344467829,0.002152424841411058
1355.209150104088,1355.209150104088,0.9997258819775181,0.0021520995803208627
1355.2160944030625,1355.2160944030625,1.0001867885398608,0.002150561598914494
1355.2230387020952,1355.2230387020952,1.000367572380738,0.0021518356166539162
1355.2299830011975,1355.2299830011975,1.0014676178837423,0.0021516032685480373
1355.2369273003583,1355.2369273003583,0.9978801565159063,0.0021493161444719293
1355.2438715995713,1355.2438715995713,1.0001779018636898,0.0021501951279160837
1355.2508158988603,1355.2508158988603,0.99981206307015,0.0021484340210432586
1355.2577601982073,1355.2577601982073,0.9977415741158471,0.002147663198452648
1355.2647044976125,1355.2647044976125,1.0019520182533053,0.0021481005388095656
1355.27164879707,1355.27164879707,1.000572281695632,0.0021479423845801307
1355.2785930965972,1355.2785930965972,1.0000437575346939,0.0021475801402999683
1355.2855373961715,1355.2855373961715,0.9997684653911041,0.0021484504749249194
1355.2924816958036,1355.2924816958036,1.0020068751323399,0.002148955146236729
1355.2994259955,1355.2994259955,0.9988472937352348,0.002147696660608376
1355.3063702952602,1355.3063702952602,1.003379015623814,0.002150544233426876
1355.3133145950555,1355.3133145950555,1.0000006179522711,0.002150392872869474
1355.320258894932,1355.320258894932,0.9981192625500125,0.0021506238105187068
1355.3272031948552,1355.3272031948552,0.9966155757539041,0.002148768363247477
1355.3352585828288,1355.3352585828288,0.9995838663825767,0.002149903512758525
1355.3424806548742,1355.3424806548742,1.0006868423447692,0.0021507273519049174
1355.3494249549606,1355.3494249549606,0.9999810693348181,0.0021516647848275096
1355.3563692551224,1355.3563692551224,0.9992578932321304,0.0021509907727047927
1355.363313555325,1355.363313555325,1.0001922613914775,0.0021523339903246957
1355.3702578555854,1355.3702578555854,0.9997621645655524,0.0021502326476356627
1355.377202155893,1355.377202155893,1.0052092931883814,0.002151772472233102
1355.3841464562643,1355.3841464562643,0.9992174115804403,0.0021497205665450057
1355.3910907566824,1355.3910907566824,1.0006808285856488,0.002150517906762824
1355.3994239172437,1355.3994239172437,0.9961674267107773,0.0021488546630018365
1355.4063682177718,1355.4063682177718,0.9984564790584198,0.002149349523167339
1355.4133125183648,1355.4133125183648,0.9999484142218755,0.002149153960020387
1355.4202568189926,1355.4202568189926,1.0042448182283108,0.002151112260503882
1355.4272011196722,1355.4272011196722,0.999591471930047,0.002148855010527951
1355.4341454204048,1355.4341454204048,0.9958885248600916,0.0021478807546299926
1355.4410897211897,1355.4410897211897,1.0001284951702039,0.0021494105593622493
1355.4480340220202,1355.4480340220202,1.0011798619679932,0.00214936707978961
1355.4549783229102,1355.4549783229102,1.0000813355106972,0.0021485880545811476
1355.4619226238403,1355.4619226238403,1.0033416465070186,0.0021489839481047012
1355.4688669248058,1355.4688669248058,1.0003663370017166,0.0021477894280861167
1355.4758112258467,1355.4758112258467,0.9986362553809925,0.0021478207094279595
1355.4827555269162,1355.4827555269162,0.9992466130404521,0.0021488364072606942
1355.4896998280333,1355.4896998280333,0.9994581768253996,0.0021492591522838957
1355.4966441292133,1355.4966441292133,0.9999713385271075,0.0021493820898257866
1355.5035884304286,1355.5035884304286,1.0055258106374605,0.0021507605022812676
1355.5105327316849,1355.5105327316849,0.9981535759381932,0.002150180617361431
1355.5174770329936,1355.5174770329936,1.0010212533386438,0.002151041435818646
1355.5244213343485,1355.5244213343485,0.9995899988766311,0.0021508793234643127
1355.5313656357507,1355.5313656357507,0.9980454156853587,0.0021502868789294114
1355.5383099371934,1355.5383099371934,0.9996826206751213,0.002149993782956227
1355.545254238688,1355.545254238688,0.999776607516295,0.002148494296205128
1355.5521985402177,1355.5521985402177,0.9976138959505129,0.0021485737111353546
1355.559142841794,1355.559142841794,1.001820500787362,0.002149349015769654
1355.5660871434225,1355.5660871434225,1.0003586928847596,0.0021488511289611645
1355.5730314450864,1355.5730314450864,1.000384969102202,0.0021487601328592037
1355.5799757467967,1355.5799757467967,1.0024331520192085,0.002149220211601687
1355.5869200485474,1355.5869200485474,1.000218488278458,0.002149004986892885
1355.5938643503453,1355.5938643503453,1.0003394948637805,0.0021481330129508596
1355.6008086521833,1355.6008086521833,0.999134233782385,0.002148600918914826
1355.6077529540626,1355.6077529540626,1.0011763883928697,0.002149941680442002
1355.6146972559825,1355.6146972559825,0.9985182110494467,0.0021480994005208458
1355.6216415579486,1355.6216415579486,0.9983376105833244,0.0021484340662098283
1355.6285858599617,1355.6285858599617,0.9972005869853877,0.0021485065777810293
1355.6355301619978,1355.6355301619978,1.0010359389830599,0.0021495736690009966
1355.6424744640804,1355.6424744640804,1.0018449948719694,0.002148878514370449
1355.6494187662101,1355.6494187662101,0.9969962837747979,0.0021482574854689196
1355.65636306838,1355.65636306838,0.9989088927418959,0.0021487998248960975
1355.6633073705907,1355.6633073705907,1.0046355850495234,0.0021500143497259813
1355.6702516728367,1355.6702516728367,1.0011968455172393,0.0021498505459928087
1355.677195975123,1355.677195975123,0.9995324700726824,0.0021487301483560173
1355.6841402774503,1355.6841402774503,0.9973171264501943,0.0021466840469719283
1355.6910845798068,1355.6910845798068,0.999698607581446,0.002148916534319904
1355.698028882221,1355.698028882221,0.9964079468632377,0.002147124004384569
1355.7049731846473,1355.7049731846473,1.0011306945719844,0.002148205002593372
1355.7119174871434,1355.7119174871434,1.000471906379739,0.002148458582325896
1355.7188617896627,1355.7188617896627,1.0020987044053846,0.002149748372889249
1355.7258060922172,1355.7258060922172,1.001356695900019,0.002149693881381462
1355.7327503948063,1355.7327503948063,0.9995266182393013,0.0021488363316513243
1355.7399724695401,1355.7399724695401,1.0011061842148246,0.0021494645481004533
1355.7480278606395,1355.7480278606395,0.9976927408204116,0.0021476544781571247
1355.7549721633568,1355.7549721633568,0.9997470108435035,0.002148895940243357
1355.761916466109,1355.761916466109,0.9988061158960585,0.0021488589000486324
1355.7688607688847,1355.7688607688847,1.0017835855212145,0.0021508040279254593
1355.7758050717061,1355.7758050717061,0.9998064924898706,0.0021502653112105163
1355.7827493745633,1355.7827493745633,0.998632819997162,0.002149450032980728
1355.7896936774555,1355.7896936774555,1.0037178481467854,0.0021513365091216717
1355.7966379803938,1355.7966379803938,0.9989713619986142,0.0021496135550488618
1355.803582283344,1355.803582283344,0.9971158722212696,0.0021491657820860164
1355.8105265863637,1355.8105265863637,0.9981445297383745,0.002148942916790482
1355.8174708893605,1355.8174708893605,1.0011430364287972,0.002148803953895322
1355.82441519245,1355.82441519245,1.0020836241951856,0.002149733493715198
1355.83135949554,1355.83135949554,0.9999911859715951,0.00214903232367
1355.8383037986764,1355.8383037986764,0.998524493809219,0.0021467259582774716
1355.8452481018592,1355.8452481018592,1.0004801484519927,0.0021480770628224816
1355.8521924050535,1355.8521924050535,1.0006370844432826,0.002147962969782232
1355.8591367082831,1355.8591367082831,1.0012074566546472,0.002148536218606491
1355.8660810115475,1355.8660810115475,1.0010806567247286,0.0021487600218144773
1355.8730253148583,1355.8730253148583,0.9992068787036725,0.002147783277105797
1355.879969618193,1355.879969618193,0.9975481255710861,0.0021476141481760443
1355.8869139215499,1355.8869139215499,1.0013793915157971,0.0021485378555206915
1355.8938582249425,1355.8938582249425,1.0011527927037087,0.002148315394507142
