time,time,flux,flux_err
1325.3035665923285,1325.3035665923285,1.000092901699485,0.00014637121322747638
1325.3119000249308,1325.3119000249308,0.999889350005319,0.00014638965716746606
1325.320233457301,1325.320233457301,1.0000788707126493,0.00014640950026951482
1325.3278724368786,1325.3278724368786,0.9999155412193339,0.0001336569624352204
1325.334816963835,1325.334816963835,0.9999866115915399,0.00013367004613425748
1325.3417614906052,1325.3417614906052,1.0001449952656107,0.0001336930596829742
1325.3487060172824,1325.3487060172824,0.9998915937347437,0.00013368845414603005
1325.3556505437737,1325.3556505437737,0.9997805730920936,0.0001336906409878628
1325.3625950702644,1325.3625950702644,0.999909093797951,0.0001337111255976776
1325.3695395966624,1325.3695395966624,1.000127371337876,0.00013374491567888096
1325.3764841228738,1325.3764841228738,1.0001868845082038,0.00013374578146668458
1325.3834286491788,1325.3834286491788,0.9999577891202689,0.0001337480911963955
1325.390373175204,1325.390373175204,1.0000262567151346,0.00013376329256275783
1325.3973177012292,1325.3973177012292,0.9999040745311651,0.00013377139297347874
1325.4042622272543,1325.4042622272543,0.9999853101656132,0.00013378767535939082
1325.4112067531871,1325.4112067531871,0.9999865496192278,0.00013379012508007575
1325.4181512789326,1325.4181512789326,1.0000536440213756,0.00013379696454225365
1325.4250958046784,1325.4250958046784,1.0000486720725963,0.00013380750290781042
1325.4320403302381,1325.4320403302381,0.9998475313251862,0.00013381099691706203
1325.4389848557046,1325.4389848557046,1.0001725736684843,0.0001338317166960984
1325.4459293812645,1325.4459293812645,0.999975496524441,0.00013382939170768958
1325.4528739066375,1325.4528739066375,1.0000428651016335,0.00013383345651965805
1325.459818431918,1325.459818431918,0.9999999881894945,0.00013383294751789402
1325.4667629571982,1325.4667629571982,0.999849147664265,0.00013383337763426254
1325.4737074823852,1325.4737074823852,1.0000667926663984,0.0001338413284392275
1325.4806520074792,1325.4806520074792,0.9999583408995665,0.00013384694312487206
1325.4875965324798,1325.4875965324798,0.9999320750736402,0.0001338423112336356
1325.494541057481,1325.494541057481,0.9999622280222689,0.00013385107190605838
1325.5014855823888,1325.5014855823888,0.999958997390167,0.00013385513581036886
1325.5084301072031,1325.5084301072031,1.0001563681058343,0.0001338707589930142
1325.515374631925,1325.515374631925,1.0001142473679188,0.0001338786750383106
1325.522319156646,1325.522319156646,1.0000832118429455,0.00013388125268441267
1325.5292636811812,1325.5292636811812,1.000080372952198,0.00013388829767016448
1325.5362082058095,1325.5362082058095,1.0000207460077661,0.0001338872014912279
1325.5431527303447,1325.5431527303447,0.9998153886153173,0.00013388397597196864
1325.5500972546938,1325.5500972546938,0.9999215664395518,0.00013389393272167108
1325.5570417791357,1325.5570417791357,0.9999206231956904,0.00013389530667031916
1325.5639863034849,1325.5639863034849,0.999846421305298,0.00013389407963404178
1325.5709308276475,1325.5709308276475,0.9999979628305269,0.0001339109369145667
1325.57787535181,1325.57787535181,1.0000577477298207,0.0001339226108978103
1325.5848198760661,1325.5848198760661,1.0003916570541516,0.0001339416156485701
1325.5917644000424,1325.5917644000424,1.0000281633366017,0.0001339280764649448
1325.5987089240184,1325.5987089240184,0.9997767555993219,0.00013391067307640383
1325.605653448088,1325.605653448088,0.9998211634843687,0.00013390972169711782
1325.6125979718781,1325.6125979718781,1.000121315944196,0.00013392848025237976
1325.6195424957616,1325.6195424957616,1.0000610450466854,0.0001339265324799039
1325.6264870196449,1325.6264870196449,0.9997421098698407,0.00013390520808562775
1325.6334315432487,1325.6334315432487,1.0000355662809384,0.00013392162462503137
1325.640376066946,1325.640376066946,1.0001216181131551,0.0001339341538442155
1325.6473205905493,1325.6473205905493,1.0001698008910436,0.00013394402896984493
1325.6542651142468,1325.6542651142468,1.000033242660885,0.00013393705059895126
1325.6612096376641,1325.6612096376641,1.000115439636676,0.00013393908139111102
1325.6681541610817,1325.6681541610817,0.9998497429990735,0.00013393420982888086
1325.6750986844993,1325.6750986844993,1.0001998627939268,0.00013395352052064882
1325.682043207917,1325.682043207917,0.9997938028813959,0.00013392248946213255
1325.6889877313347,1325.6889877313347,0.9999078045938677,0.00013393702063547604
1325.6959322543796,1325.6959322543796,0.9999561568809501,0.0001339429900362692
1325.7028767777042,1325.7028767777042,0.9997764470569219,0.00013393747804500122
1325.7098213008426,1325.7098213008426,1.0002404239375413,0.00013397022026640377
1325.7167658239803,1325.7167658239803,1.000021200955642,0.0001339587344118639
1325.7237103470256,1325.7237103470256,0.9998895400321157,0.00013395422173851642
1325.7306548700708,1325.7306548700708,1.0001586405984293,0.00013398083617538527
1325.7375993930225,1325.7375993930225,1.0000768097855617,0.00013397567329840714
1325.7445439159746,1325.7445439159746,0.9997018835996778,0.00013396129917789634
1325.7514884387401,1325.7514884387401,1.0001993183801088,0.00013398544872167983
1325.758432961599,1325.758432961599,0.9999598663557807,0.0001339821096394702
1325.765377484458,1325.765377484458,1.0001957551286518,0.0001340089828138123
1325.7723220071302,1325.7723220071302,0.9999829362232553,0.00013400729107646277
1325.7792665298962,1325.7792665298962,0.9998768914434439,0.00013401125299578094
1325.7862110524752,1325.7862110524752,1.0000168348760188,0.00013402293945741946
1325.793155575148,1325.793155575148,0.9999304270602088,0.0001340280992786798
1325.8001000976342,1325.8001000976342,0.9999872775839963,0.00013403089419583496
1325.807044620214,1325.807044620214,0.999968510264418,0.00013404099015146376
1325.8139891427,1325.8139891427,1.0000465762488004,0.0001340455365774964
1325.820933665093,1325.820933665093,0.9999335624895046,0.00013404095467029403
1325.8278781874862,1325.8278781874862,1.0001532880924637,0.0001340639892889236
1325.8348227098795,1325.8348227098795,0.9999220694611146,0.0001340498805887811
1325.8417672321796,1325.8417672321796,0.9999873972800131,0.0001340541654090892
1325.8487117544796,1325.8487117544796,0.9999521293695356,0.0001340594917749978
1325.855656276686,1325.855656276686,1.0001088333452857,0.00013407416659938119
1325.8626007988,1325.8626007988,0.9998286769398081,0.0001340550097960601
1325.8695453210069,1325.8695453210069,1.0001961707779654,0.0001340779767535077
1325.8764898430277,1325.8764898430277,0.9999418992842124,0.00013405751559724505
1325.8834343651415,1325.8834343651415,1.0002679983548652,0.00013407873948177279
1325.890378887162,1325.890378887162,0.9998641841819176,0.0001340479594716916
1325.8973234091827,1325.8973234091827,0.9998488424566672,0.00013404331176917903
1325.9042679310173,1325.9042679310173,0.999887735025905,0.0001340463458907412
1325.9112124529443,1325.9112124529443,0.9998790923363536,0.00013404176693283866
1325.9181569747786,1325.9181569747786,1.0001291852932508,0.00013404758089300334
1325.9251014966128,1325.9251014966128,1.0000505653556537,0.00013404688963145582
1325.9320460185409,1325.9320460185409,1.0000151274262497,0.00013404538296558474
1325.9389905401886,1325.9389905401886,1.0000622019804575,0.00013405218881419205
1325.945935061837,1325.945935061837,1.000172697716578,0.00013405207675360248
1325.9528795835781,1325.9528795835781,1.000051018887239,0.0001340476150617087
1325.959824105226,1325.959824105226,0.9999917850287137,0.00013405154380280237
1325.9676019694052,1325.9676019694052,0.9997288506195225,0.00013404324776919321
1325.9751020527403,1325.9751020527403,0.9999016096653952,0.00013404752452954806
1325.982046574202,1325.982046574202,0.9999514608547407,0.00013404955938164527
1325.9889910956638,1325.9889910956638,1.0000804463310768,0.00013405732720539058
1325.9959356170323,1325.9959356170323,0.9999826994859266,0.00013405699385568174
1326.0028801385877,1326.0028801385877,1.0000338012438341,0.00013405850861273537
1326.009824659863,1326.009824659863,1.0002727072173767,0.0001340748753253817
1326.016769181232,1326.016769181232,1.0000046617056262,0.00013407480075118544
1326.0237137025074,1326.0237137025074,0.9999107807346898,0.00013406878445530656
1326.0306582238761,1326.0306582238761,0.9997726637477549,0.00013406107223269716
1326.0376027449652,1326.0376027449652,0.9999446658540769,0.00013408954581792533
1326.0445472660545,1326.0445472660545,1.0000981057777298,0.0001340930351397094
1326.0514917873302,1326.0514917873302,0.9999195519087085,0.0001340837085204864
1326.058436308699,1326.058436308699,1.0004277864367492,0.00013411446285498392
1326.065380829788,1326.065380829788,0.9998868650517041,0.00013408735041756708
1326.0723253504118,1326.0723253504118,0.9999762225964887,0.00013409846133184092
1326.0792698715006,1326.0792698715006,0.9999488093187118,0.00013410141452655113
1326.0862143925908,1326.0862143925908,1.0000542166500066,0.0001341067655862194
1326.0931589136796,1326.0931589136796,0.9997508112770552,0.00013408151122441494
1326.1001034343967,1326.1001034343967,1.000008262943561,0.00013410702295715013
1326.107047955393,1326.107047955393,0.9998777839123301,0.00013409992302308097
1326.1139924761094,1326.1139924761094,1.0001336387695035,0.0001341129175715242
1326.1209369970124,1326.1209369970124,1.000008716794143,0.00013410838699023925
1326.1278815177288,1326.1278815177288,1.0000100649372434,0.00013410267817564957
1326.1348260384461,1326.1348260384461,1.0003863215846631,0.00013413269271702745
1326.1417705591625,1326.1417705591625,1.0001477032729578,0.000134114375184539
1326.1487150798798,1326.1487150798798,1.0000522593102805,0.00013411205693829263
1326.1556596005034,1326.1556596005034,0.9998218694957843,0.00013409651081200202
1326.1626041211268,1326.1626041211268,0.9999390382918811,0.00013410894593185026
1326.1695486416575,1326.1695486416575,0.9997929478822268,0.00013409220962575132
1326.1764931622808,1326.1764931622808,1.0000402986503498,0.00013410266903870325
1326.1834376827185,1326.1834376827185,0.9998882568552808,0.0001340976370990534
1326.1903822031559,1326.1903822031559,1.0001043254329152,0.0001341115767646736
1326.1973267236858,1326.1973267236858,1.0000321911762424,0.00013410389109047162
1326.2042712439375,1326.2042712439375,1.0002287506376137,0.00013411663626318161
1326.2112157644676,1326.2112157644676,0.9998556887145981,0.00013409277912795894
1326.2181602847193,1326.2181602847193,1.0001387864921658,0.00013411283899819222
1326.2251048050632,1326.2251048050632,0.9999167448091351,0.00013409845705783535
1326.2320493253144,1326.2320493253144,0.9999643634264821,0.0001341020133065007
1326.2389938455653,1326.2389938455653,0.999857107232289,0.00013409797440771162
1326.245938365723,1326.245938365723,1.0000521267874556,0.00013410359578678606
1326.2528828858817,1326.2528828858817,1.0001677795856008,0.00013411010264509062
1326.2598274060392,1326.2598274060392,1.0000125183672421,0.00013410888745701087
1326.2667719261044,1326.2667719261044,0.9999830344875082,0.0001341129114835139
1326.2737164462624,1326.2737164462624,1.0000018486813458,0.00013411045939163324
1326.2806609662339,1326.2806609662339,0.9997024628420114,0.00013408508486496725
1326.2876054863923,1326.2876054863923,0.9999359710812517,0.00013410386090833773
1326.2945500062706,1326.2945500062706,1.0003233982703168,0.00013412782184837906
1326.301494526242,1326.301494526242,1.0000016576840005,0.0001341130145558657
1326.3084390461204,1326.3084390461204,0.9998124209622196,0.00013409229747980169
1326.3153835660926,1326.3153835660926,1.0002404142587562,0.00013412227088528556
1326.3223280857849,1326.3223280857849,0.9999771434072494,0.00013410816857980005
1326.3292726056632,1326.3292726056632,0.9999181450809618,0.0001340997939340961
1326.3362171253561,1326.3362171253561,1.0000738680477714,0.00013411179575584052
1326.3431616451412,1326.3431616451412,0.9999922976219384,0.00013411305401169908
1326.3506617265207,1326.3506617265207,0.999916738854861,0.00013410747504257449
1326.359828492496,1326.359828492496,1.0001203342516989,0.00013413142548766274
1326.3667730120949,1326.3667730120949,0.9999478576506775,0.00013411995965780004
1326.3737175316942,1326.3737175316942,0.999970680530744,0.00013412097592075013
1326.3806620512,1326.3806620512,1.0001239453038604,0.00013413259498624164
1326.3876065707996,1326.3876065707996,1.000024287121805,0.0001341241882082957
1326.3945510903054,1326.3945510903054,0.9998668810064881,0.00013412384136471484
1326.4014956098115,1326.4014956098115,1.0003131439957655,0.0001341554391802631
1326.4084401292243,1326.4084401292243,0.9999444621651274,0.0001341359429600227
1326.4153846486377,1326.4153846486377,1.0000423133280791,0.00013414238728079334
1326.4223291679573,1326.4223291679573,0.99988768829542,0.00013412806496996538
1326.4292736873701,1326.4292736873701,1.000222910510075,0.00013415721886695026
1326.43621820669,1326.43621820669,0.9998409616170353,0.00013413847887410005
1326.4431627260096,1326.4431627260096,1.0001474005153057,0.00013415931839285848
1326.4501072452365,1326.4501072452365,0.9997656010735211,0.00013414285386778907
1326.4570517644631,1326.4570517644631,1.0000277440295735,0.00013415346317806378
1326.4639962835968,1326.4639962835968,1.0000127106004428,0.00013415738167263274
1326.47094080273,1326.47094080273,1.000009550590087,0.00013416214259380054
1326.4778853219566,1326.4778853219566,0.9998195994443717,0.00013414873928411036
1326.4848298409975,1326.4848298409975,1.0001020761030037,0.00013417081981895388
1326.4917743599442,1326.4917743599442,0.9999880545037879,0.0001341568639137936
1326.4987188791715,1326.4987188791715,1.0002233024530338,0.00013417687058420952
1326.5056633980253,1326.5056633980253,0.9998837115115613,0.0001341596031207644
1326.512607917159,1326.512607917159,1.0000779831206401,0.00013416984294619552
1326.5195524359199,1326.5195524359199,0.9998422350274462,0.00013415959664798686
1326.526496954774,1326.526496954774,1.0001359737818718,0.00013419175462086303
1326.5334414739075,1326.5334414739075,1.0000479902112769,0.00013418768656665484
1326.5403859926685,1326.5403859926685,1.0000331450877642,0.0001341908925029237
1326.5473305114297,1326.5473305114297,1.000014330681106,0.00013420189878453036
1326.5542750301906,1326.5542750301906,0.9997289437109483,0.00013418092876909502
1326.5612195489514,1326.5612195489514,0.9999918095183797,0.00013420317460964226
1326.5681640677126,1326.5681640677126,1.0001544287735382,0.0001342220601697788
1326.57510858638,1326.57510858638,0.9997716493288431,0.00013418873100650846
1326.582053104769,1326.582053104769,1.000087490974097,0.0001342167962826996
1326.5889976235296,1326.5889976235296,0.9999349581789172,0.0001342092510071165
1326.595942142198,1326.595942142198,1.0002334443668397,0.00013422422187174635
1326.6028866605861,1326.6028866605861,1.0001383075603298,0.00013422047628060127
1326.6098311792541,1326.6098311792541,1.0000093121098128,0.00013421748179289524
1326.6167756976424,1326.6167756976424,0.9999001942606223,0.00013421057798722758
1326.6237202160307,1326.6237202160307,0.999921297968754,0.00013421549202832875
1326.6306647345127,1326.6306647345127,0.9998396965818845,0.00013421022861987667
1326.6376092529008,1326.6376092529008,1.0001702442911427,0.00013423171410058477
1326.6445537712896,1326.6445537712896,0.999798976856302,0.00013419911243065533
1326.6514982895849,1326.6514982895849,1.000020850638968,0.00013421888552937622
1326.65844280788,1326.65844280788,1.0000605883395073,0.0001342166708948732
1326.6653873260825,1326.6653873260825,1.0000466152661307,0.00013421616177291518
1326.6723318442844,1326.6723318442844,0.9999753081653727,0.0001342031841648504
1326.6792763625804,1326.6792763625804,1.0001485101752121,0.00013421379589594653
1326.6862208806892,1326.6862208806892,0.9998358526822404,0.00013419130277918562
1326.6942765217068,1326.6942765217068,0.9999824836586748,0.0001341997836273116
1326.701498820566,1326.701498820566,0.9999601229919929,0.00013420110946869835
1326.7084433385821,1326.7084433385821,0.9999472236501431,0.00013418917286593814
1326.715943418006,1326.715943418006,1.0000357189281452,0.00013419708521846219
1326.7237212781802,1326.7237212781802,0.9997960739103833,0.00013418275963971785
1326.730665796196,1326.730665796196,1.0000710340127243,0.00013420178110681798
1326.7376103140257,1326.7376103140257,0.9999743312398994,0.00013419420795775136
1326.7445548319488,1326.7445548319488,1.0002556436322136,0.0001342010730052848
1326.7514993497782,1326.7514993497782,1.0000301524792383,0.0001341978544235997
1326.7584438676076,1326.7584438676076,0.9998978574345472,0.00013418858237085367
1326.7653883854375,1326.7653883854375,0.9999118544611363,0.00013417583578197065
1326.7723329030807,1326.7723329030807,0.9997440438745843,0.00013417000724515806
1326.7792774209106,1326.7792774209106,1.0000838762500297,0.0001341839672608399
1326.786221938554,1326.786221938554,1.000059602021588,0.0001341977978216604
1326.7931664561975,1326.7931664561975,1.0000514821410322,0.00013419136336592798
1326.800110973934,1326.800110973934,1.0000867518614827,0.0001341958352230065
1326.8070554915776,1326.8070554915776,1.0000393225066713,0.00013419398285266227
1326.8140000089413,1326.8140000089413,1.0000149615645957,0.000134185604379817
1326.8209445264915,1326.8209445264915,0.9999478029186832,0.00013419530324637504
1326.827889044042,1326.827889044042,0.9998453317461744,0.0001341762063267221
1326.834833561499,1326.834833561499,0.9999666777182805,0.00013419031711702097
1326.8417780788634,1326.8417780788634,1.0000409521627032,0.00013419317370785144
1326.8487225963204,1326.8487225963204,0.9999508665765775,0.00013418797415687384
1326.8556671136844,1326.8556671136844,1.000045186736694,0.0001341937791735655
1326.8626116310484,1326.8626116310484,1.0000038385225711,0.00013418824333829614
1326.8695561482264,1326.8695561482264,1.0003252089503882,0.00013420370818990757
1326.8765006655904,1326.8765006655904,0.9998625061520918,0.00013418278995184444
1326.883445182861,1326.883445182861,0.9999373335678449,0.00013417733493281198
1326.890389700039,1326.890389700039,1.0002324256408701,0.00013418484350882738
1326.897334217123,1326.897334217123,0.9998510217202906,0.00013416889651396018
1326.9042787343012,1326.9042787343012,0.9996395753920722,0.00013414971921680164
1326.9112232513858,1326.9112232513858,1.0001502687186314,0.00013416523682105604
1326.9181677683773,1326.9181677683773,0.9999010136983266,0.0001341431745017493
1326.9251122855549,1326.9251122855549,1.000124595195492,0.0001341489129426003
1326.9320568024534,1326.9320568024534,1.0001695431060593,0.0001341483307439515
1326.939001319445,1326.939001319445,0.9999484103844722,0.00013411873491732813
1326.945945836343,1326.945945836343,0.9999423190904064,0.00013411254015153687
1326.9528903532416,1326.9528903532416,0.9998730896757463,0.000134100796230838
1326.9598348701397,1326.9598348701397,1.0000973038297483,0.00013410830797287577
1326.9667793869453,1326.9667793869453,0.9999238460174826,0.0001340818861142183
1326.9737239037506,1326.9737239037506,1.0000454818933884,0.00013408568539514495
1326.9806684205553,1326.9806684205553,1.0002154742445168,0.00013409383806622997
1326.9876129371748,1326.9876129371748,0.999878362166547,0.00013406376273691892
1326.9945574539797,1326.9945574539797,1.0000202189440375,0.0001340712007770004
1327.001501970506,1327.001501970506,0.9999874576566208,0.00013407208299901822
1327.008446487311,1327.008446487311,1.0001119977990816,0.00013407471955044806
1327.0153910037436,1327.0153910037436,0.999946760834493,0.0001340635681778724
1327.0223355202695,1327.0223355202695,0.9998010375348951,0.00013405178197662754
1327.0292800370746,1327.0292800370746,0.9997913825937941,0.00013404648305980466
1327.0362245535077,1327.0362245535077,1.0001448966111137,0.00013407197918458835
1327.04316906994,1327.04316906994,1.0000785699171348,0.0001340733699332628
1327.0501135863728,1327.0501135863728,0.9999675162507561,0.00013406812854111738
1327.0570581028053,1327.0570581028053,1.0002746181710223,0.00013408775918888037
