time,time,flux,flux_err
1571.1127435444525,1571.1127435444525,0.9994497725321674,0.001652329735164132
1571.1210768742233,1571.1210768742233,0.9994169317856035,0.0016447438352602708
1571.1287157598479,1571.1287157598479,0.9999399646173176,0.0014948620731866631
1571.135660201325,1571.135660201325,1.000980662397206,0.001490955853708269
1571.1426046424285,1571.1426046424285,0.9980043327224773,0.001485611827954476
1571.1495490838117,1571.1495490838117,0.9993945562680115,0.0014808830570258702
1571.1564935252877,1571.1564935252877,1.0019259590141354,0.001476411069023608
1571.1634379667641,1571.1634379667641,1.001233566025872,0.0014716367531913647
1571.170382408055,1571.170382408055,0.997933232758953,0.0014668293453136438
1571.177326849252,1571.177326849252,1.0001265487012965,0.0014627390703729573
1571.1842712907285,1571.1842712907285,1.0006814090307723,0.001458680489672136
1571.1912157319248,1571.1912157319248,1.0002985311364399,0.0014560403403036273
1571.1981601732145,1571.1981601732145,0.9969190447505076,0.0014513110898120136
1571.2051046145057,1571.2051046145057,0.9990840802438289,0.0014479906973875027
1571.212049055703,1571.212049055703,1.001085824144257,0.0014455063230744893
1571.2189934968997,1571.2189934968997,1.000826468098757,0.0014421385525110414
1571.2259379381892,1571.2259379381892,0.9986235842673213,0.0014384429341435488
1571.2328823792,1571.2328823792,1.000209650004401,0.0014349547378951994
1571.2398268203974,1571.2398268203974,1.0005208932935588,0.0014311845769028942
1571.2467712615949,1571.2467712615949,1.0021251167790726,0.0014286356870438692
1571.2537157026986,1571.2537157026986,0.9987852018894369,0.00142468400785288
1571.260660143709,1571.260660143709,1.0003223028918207,0.0014217866355396448
1571.2676045848125,1571.2676045848125,1.000093970250655,0.0014182765282334962
1571.2745490259167,1571.2745490259167,0.9984732976039551,0.0014138684927762406
1571.2814934669282,1571.2814934669282,0.9997485978858023,0.0014110250744056219
1571.2884379079383,1571.2884379079383,1.0011423610484207,0.0014087051643178392
1571.2953823488563,1571.2953823488563,1.0001341796047507,0.001404996541227608
1571.3023267898664,1571.3023267898664,1.001128878264137,0.0014013031297367706
1571.309271230691,1571.309271230691,0.9992460800013001,0.0013970569901493386
1571.3162156716091,1571.3162156716091,0.9992502624831051,0.0013929375048900453
1571.3231601125267,1571.3231601125267,1.001106393472879,0.0013891534139595374
1571.3301045533512,1571.3301045533512,0.9996152651629082,0.0013836807275039759
1571.337048994175,1571.337048994175,0.999224914768362,0.0013799969442278206
1571.3439934349994,1571.3439934349994,0.9992946370835852,0.0013761369332351632
1571.3509378757312,1571.3509378757312,0.9986520560795007,0.0013721273229938275
1571.357882316463,1571.357882316463,0.9997829472659344,0.0013670438802124644
1571.3648267571941,1571.3648267571941,1.0027245651398933,0.001363718625326959
1571.3717711978322,1571.3717711978322,1.000865237484646,0.0013587487764866112
1571.378715638563,1571.378715638563,1.0007888015880178,0.0013547565285413443
1571.3856600792012,1571.3856600792012,0.9994185795157083,0.001350661936789951
1571.3926045197472,1571.3926045197472,1.0018468983248967,0.0013476358215326223
1571.3995489603853,1571.3995489603853,0.998337037180178,0.0013424905171742574
1571.406493400837,1571.406493400837,0.9996649016830345,0.0013389680010494598
1571.413437841382,1571.413437841382,0.9986296721736929,0.0013344237344706201
1571.4203822819268,1571.4203822819268,0.9997329714975691,0.001332669976670094
1571.4273267222857,1571.4273267222857,0.9998407651938841,0.0013295183304704943
1571.4342711628312,1571.4342711628312,1.0018067731637896,0.00132741305227236
1571.4412156030971,1571.4412156030971,1.0001723601597867,0.0013261634249969818
1571.4481600434553,1571.4481600434553,1.0004185716437575,0.0013222750625143155
1571.455104483721,1571.455104483721,1.0011987782302656,0.0013212839968013768
1571.4620489240792,1571.4620489240792,0.9995417374010629,0.001319700662222965
1571.4689933643458,1571.4689933643458,0.9992295863195668,0.0013189187806714382
1571.475937804705,1571.475937804705,0.999382693674263,0.001317433663671736
1571.482882244784,1571.482882244784,0.9998955518350616,0.0013175113286115732
1571.4898266850496,1571.4898266850496,1.0008099370547066,0.0013166606213749527
1571.4967711251288,1571.4967711251288,1.0008193443768638,0.0013163876030512132
1571.5037155652083,1571.5037155652083,0.9990156676400135,0.0013151842123088017
1571.5106600052882,1571.5106600052882,0.9987040301729213,0.001315418377692391
1571.5176044452742,1571.5176044452742,0.9993720080262483,0.0013149114239338847
1571.5245488853536,1571.5245488853536,1.001154357293698,0.0013128193952249762
1571.5314933252466,1571.5314933252466,1.0007817424080974,0.0013113713399170509
1571.5384377652324,1571.5384377652324,0.9997203352844204,0.001311239158497591
1571.5453822051265,1571.5453822051265,0.9993718486235241,0.001310606764899161
1571.5523266449268,1571.5523266449268,0.9995480424536906,0.0013103012040752047
1571.559271084726,1571.559271084726,0.9995516140176861,0.001308261010064303
1571.5662155246196,1571.5662155246196,1.000311382407427,0.0013079081645776664
1571.573159964326,1571.573159964326,1.0009667691755326,0.0013077311041964413
1571.5801044040327,1571.5801044040327,0.9995371666863285,0.0013075841088559573
1571.5870488436474,1571.5870488436474,0.9982853140120322,0.001307356802523306
1571.593993283354,1571.593993283354,0.9998427820811779,0.0013066573575851788
1571.6009377229677,1571.6009377229677,1.000725336017783,0.0013062453599186666
1571.607882162488,1571.607882162488,1.000934973138877,0.0013051599629144558
1571.6148266021014,1571.6148266021014,0.9991798813089859,0.0013055316855452072
1571.6217710415294,1571.6217710415294,0.9993859819641597,0.0013039853268921272
1571.6287154809575,1571.6287154809575,1.0008078279503174,0.0013050185611088675
1571.6356599203848,1571.6356599203848,0.9993895834095838,0.0013038156633399672
1571.642604359719,1571.642604359719,1.0014964228176073,0.0013042397653857459
1571.6495487990528,1571.6495487990528,1.0001252599270831,0.0013029396678076875
1571.6564932384802,1571.6564932384802,0.9989025748611144,0.0013019194622260041
1571.663437677629,1571.663437677629,0.9999568733362475,0.0013020276544776198
1571.670382116777,1571.670382116777,1.001221654080998,0.0013024166446207626
1571.6773265559252,1571.6773265559252,1.0011300692355456,0.001301031112591789
1571.6842709950724,1571.6842709950724,0.9983769818840269,0.0012990577353276622
1571.6912154342208,1571.6912154342208,1.0007538577178738,0.001298616322053347
1571.6981598733687,1571.6981598733687,1.0014181334039542,0.001297038279711804
1571.7051043123313,1571.7051043123313,0.9979418096590227,0.0012954317457139469
1571.7120487511997,1571.7120487511997,1.0003384216212314,0.0012952177885158615
1571.7189931902547,1571.7189931902547,1.0005745029502928,0.0012928104738664892
1571.7259376290299,1571.7259376290299,1.0000058838200403,0.0012912879532242104
1571.7328820678986,1571.7328820678986,1.0001232446827943,0.0012893389024463873
1571.7398265067673,1571.7398265067673,1.0018730969039549,0.0012885484553599557
1571.7467709455436,1571.7467709455436,1.0008465060883172,0.0012871565105454742
1571.7537153842259,1571.7537153842259,0.9988024739135397,0.001283745029986486
1571.7606598228151,1571.7606598228151,0.9996835503692287,0.0012823849742847596
1571.7676042614971,1571.7676042614971,1.0004720539164185,0.0012811359246687332
1571.7745487000861,1571.7745487000861,0.9998688245120553,0.0012786455531514566
1571.7814931386758,1571.7814931386758,0.9999994446899461,0.001277111644266546
1571.7884375770793,1571.7884375770793,0.9989521767387142,0.0012765050740274186
1571.7953820155753,1571.7953820155753,1.0013213158122758,0.0012740872252593632
1571.8023264539781,1571.8023264539781,0.9991929769854557,0.0012724331010021846
1571.809270892381,1571.809270892381,1.000297962772301,0.00127099676942836
1571.8162153306905,1571.8162153306905,1.0014261700863494,0.0012705226067710673
1571.823159769001,1571.823159769001,0.999818621413931,0.001268184054292589
1571.830104207218,1571.830104207218,1.0003533289052426,0.0012679376325264702
1571.8370486454346,1571.8370486454346,0.9995025133534489,0.0012654314770622521
1571.8439930834647,1571.8439930834647,0.9986245967378682,0.0012645299237099682
1571.850937521681,1571.850937521681,0.9996215572969984,0.0012638801886388508
1571.857881959712,1571.857881959712,1.0000216230428995,0.001264168237583871
1571.8648263976497,1571.8648263976497,0.9999137469227446,0.0012620300080914114
1571.8717708356803,1571.8717708356803,0.9999314487260115,0.001261222055446045
1571.8787152736174,1571.8787152736174,1.0009275923259287,0.0012602830274610374
1571.8856597113686,1571.8856597113686,1.000465092800844,0.0012596960862073423
1571.8926041492123,1571.8926041492123,1.000275572815627,0.0012599561284188192
1571.8995485870566,1571.8995485870566,0.9991018446793198,0.001259692894900558
1571.9064930247155,1571.9064930247155,1.000480849441811,0.0012595366525581272
1571.9134374624662,1571.9134374624662,0.9997902118720928,0.0012595274411450195
1571.920381900031,1571.920381900031,0.9998380602486419,0.0012582119854832076
1571.9273263375956,1571.9273263375956,1.0010849901601326,0.0012587994487405021
1571.9342707752535,1571.9342707752535,0.9993539160740834,0.0012582980954267697
1571.941215212632,1571.941215212632,0.9997702226716886,0.0012572961356296301
1571.9481596501041,1571.9481596501041,0.9998007001175703,0.001257421045141305
1571.955104087483,1571.955104087483,1.0004262880832369,0.0012564277205601737
1571.9620485248613,1571.9620485248613,0.9992095769507662,0.0012562818486452846
1571.968992962146,1571.968992962146,0.9994489389363593,0.0012553208365027326
1571.9759373993384,1571.9759373993384,1.00065386361705,0.0012553084602586718
1571.9828818365306,1571.9828818365306,0.9995472889016291,0.0012548383442422427
1571.9898262738166,1571.9898262738166,0.9999862849216663,0.0012536081891757977
1571.996770710823,1571.996770710823,1.001401938687024,0.0012524806945713482
1572.0037151479216,1572.0037151479216,1.0006039818251615,0.0012518193686217164
1572.0106595847415,1572.0106595847415,0.9987768871765151,0.0012510852640275493
1572.0176040219335,1572.0176040219335,1.0006367040188426,0.0012510920800835512
1572.024548458846,1572.024548458846,0.9995994972950468,0.001249136430007927
1572.0314928956668,1572.0314928956668,0.999982493197729,0.0012484929500709457
1572.0384373324864,1572.0384373324864,0.9997262217402012,0.0012483627053556834
1572.045381769213,1572.045381769213,1.0001055209878655,0.0012474476621963193
1572.05232620566,1572.05232620566,0.9997297948270811,0.001247571320053796
1572.0592706424793,1572.0592706424793,0.9998075784569803,0.0012450882526667056
1572.06621507902,1572.06621507902,0.9996340253979928,0.0012445626573443147
1572.0731595156542,1572.0731595156542,0.9997515492761686,0.0012431295937084513
1572.0801039520081,1572.0801039520081,1.0014462807069937,0.0012432857332673962
1572.087048388455,1572.087048388455,0.9993511229346794,0.0012410878875279844
1572.0939928249022,1572.0939928249022,1.0007878125224952,0.00124024916747812
1572.1009372612561,1572.1009372612561,0.9996519624708073,0.0012399313012558043
1572.1078816975169,1572.1078816975169,1.0018590584817186,0.001239206239165036
1572.1148261336855,1572.1148261336855,0.9977965017986687,0.0012360099237430572
1572.1217705699469,1572.1217705699469,0.9991345664466437,0.0012367030123266872
1572.1287150060211,1572.1287150060211,1.000626143972747,0.001235459973553133
1572.1356594420954,1572.1356594420954,0.9998060657795842,0.0012345320320441442
1572.142603878077,1572.142603878077,0.9991221578090521,0.0012348161586431799
1572.1495483141514,1572.1495483141514,1.0011841784876947,0.0012349598300131488
1572.1564927500403,1572.1564927500403,1.0007003660148566,0.0012329421794875087
1572.163437185929,1572.163437185929,1.0007880636084274,0.0012327605327653185
1572.1703816217243,1572.1703816217243,0.9995888232272486,0.0012323225076956007
1572.1773260574262,1572.1773260574262,0.9999169072103584,0.0012317568851372138
1572.1842704932217,1572.1842704932217,0.9990042747785832,0.0012309506578977946
1572.1912149289233,1572.1912149289233,1.000340763020329,0.0012303518869589134
1572.1981593643463,1572.1981593643463,0.999396393484824,0.0012317367738307586
1572.2051037999559,1572.2051037999559,0.9999862052020262,0.0012305524928626604
1572.2120482353785,1572.2120482353785,1.0006643945816756,0.0012312615960633042
1572.2189926708947,1572.2189926708947,0.9997837549935552,0.0012303401090168983
1572.2259371062237,1572.2259371062237,1.0008929184257211,0.0012298793709656702
1572.232881541553,1572.232881541553,0.9987667493982751,0.001230762134356684
1572.2398259767895,1572.2398259767895,0.9995050975870038,0.0012286546708675902
1572.2467704121202,1572.2467704121202,1.0016807813257629,0.0012286640137273309
1572.2537148471704,1572.2537148471704,0.9982227796072929,0.0012282709292304526
1572.26065928222,1572.26065928222,1.000273676997158,0.0012268060495627103
1572.2676037173635,1572.2676037173635,0.9994506749902561,0.0012266429889800654
1572.2745481523204,1572.2745481523204,1.0008832492563118,0.0012263901847277593
1572.2814925872772,1572.2814925872772,1.0024396260679556,0.0012265685989068297
1572.2884370221423,1572.2884370221423,0.9992794333452097,0.0012239446859784267
1572.295381457006,1572.295381457006,0.999461465822016,0.0012242015884101364
1572.3023258915905,1572.3023258915905,0.999844355276845,0.0012238394404618226
1572.3092703265477,1572.3092703265477,0.998360062176727,0.0012221549281649202
1572.3162147610385,1572.3162147610385,1.0002439028029162,0.001222379244225565
1572.3231591955298,1572.3231591955298,1.001198265646424,0.001220782484180098
1572.3301036300215,1572.3301036300215,0.999065673178037,0.0012198107826913978
1572.3370480645137,1572.3370480645137,0.9996407706390851,0.001218923989779518
1572.343992499005,1572.343992499005,0.99919326828333,0.001218488216962261
1572.3509369334965,1572.3509369334965,1.0005748789229556,0.0012165785150332646
1572.3578813678946,1572.3578813678946,0.9977278461006318,0.0012149264195685562
1572.364825802013,1572.364825802013,1.0013111404364372,0.0012151065052165104
1572.371770236318,1572.371770236318,1.0006540823885388,0.0012151297241034232
1572.3787146704378,1572.3787146704378,1.0010371918074608,0.0012140279355602602
1572.385659104557,1572.385659104557,0.9992384855665417,0.0012130513380267682
1572.392603538489,1572.392603538489,1.0009070119298762,0.0012117496983995119
1572.399547972515,1572.399547972515,0.999628081421965,0.0012111308805673176
1572.4064924064473,1572.4064924064473,1.0003953289439267,0.0012113700614182136
1572.4134368402865,1572.4134368402865,1.000556365568387,0.0012097584382202613
1572.4203812740336,1572.4203812740336,0.9971702993460646,0.0012091458457552822
1572.4273257077803,1572.4273257077803,1.0001100628051378,0.0012080704544271202
1572.4342701415267,1572.4342701415267,1.000811225523203,0.0012086233476846
1572.4412145750866,1572.4412145750866,0.9987230425526704,0.0012068013108794654
1572.4481590086464,1572.4481590086464,0.9996995683844064,0.001206551069999871
1572.4551034421133,1572.4551034421133,1.0006777241751081,0.0012067798675598478
1572.4620478755799,1572.4620478755799,1.0010141682014255,0.0012051188991213473
1572.468992309048,1572.468992309048,1.0011176614750477,0.0012063553028346555
1572.4759367423287,1572.4759367423287,1.0003167104182324,0.001204754597201188
1572.482881175516,1572.482881175516,0.9990698945938185,0.0012041111980631149
1572.4898256087968,1572.4898256087968,0.9992022707610376,0.0012034736446277605
1572.4967700418906,1572.4967700418906,1.0002251628716947,0.0012036198795452172
1572.5037144749851,1572.5037144749851,0.9994560729682084,0.0012036140201248148
1572.5106589079865,1572.5106589079865,0.9987070474934526,0.0012040939539614231
1572.5176033409884,1572.5176033409884,1.001434263459808,0.001203897568002523
1572.5245477738965,1572.5245477738965,1.0004702272370287,0.0012027669406530675
1572.5314922067118,1572.5314922067118,1.0001736050871195,0.0012025121440917253
1572.5384366395263,1572.5384366395263,1.0008674893516452,0.0012021693366839488
1572.5453810722481,1572.5453810722481,1.000213128710055,0.0012022298166111198
1572.5523255048763,1572.5523255048763,1.0001041402686939,0.0012019268066988929
1572.559269937506,1572.559269937506,0.9983126455887602,0.0012013856462227289
1572.5662143701352,1572.5662143701352,0.9991996841663493,0.0012021061903145901
1572.5731588025774,1572.5731588025774,1.001198957193261,0.0012027869686182487
1572.5801032349266,1572.5801032349266,0.9994277265322623,0.0012007826001516927
1572.5870476673688,1572.5870476673688,1.0002354365996862,0.0012028175007684316
1572.5939920997182,1572.5939920997182,0.9996435893819016,0.0012028927259244353
1572.6009365318812,1572.6009365318812,1.0002216467749157,0.001201742753610587
1572.6078809640453,1572.6078809640453,1.0002123629993427,0.0012024245340815504
1572.6245476011431,1572.6245476011431,1.0006097691401565,0.0012025763778579905
1572.6314920329337,1572.6314920329337,0.9999629994545863,0.001202036742240883
1572.6384364650037,1572.6384364650037,1.0001050817447488,0.0012021488952901923
1572.645380896794,1572.645380896794,1.0007787242514639,0.0012018039310943973
1572.6523253284918,1572.6523253284918,0.9994412023965378,0.0012026782402833266
1572.659269760283,1572.659269760283,0.9995363066452502,0.0012031396437294619
1572.6662141919805,1572.6662141919805,0.998809092114338,0.0012022293051203786
1572.6731586234914,1572.6731586234914,0.9992042995442221,0.001201124554704233
1572.6801030550953,1572.6801030550953,1.001116280248434,0.0012022019602908308
1572.6870474865132,1572.6870474865132,0.9982179698961706,0.0012015796882674102
1572.693991917931,1572.693991917931,1.002325695099764,0.0012029631226687148
1572.7009363492568,1572.7009363492568,1.000133489009476,0.001202208733512415
1572.7078807805822,1572.7078807805822,0.9997175417627927,0.0012003808879717322
1572.7148252118136,1572.7148252118136,0.9999243972076499,0.001200243801523262
1572.721769643045,1572.721769643045,0.9991079751944417,0.0012006521047772827
1572.7287140739973,1572.7287140739973,1.001430253462376,0.0012008366886731316
1572.7356585050431,1572.7356585050431,0.9999553750409437,0.0011994560274465414
1572.742602935995,1572.742602935995,0.9989509695859298,0.0011987819722017806
1572.7495473670413,1572.7495473670413,0.9996148828785814,0.0011989164946320748
1572.7564917978075,1572.7564917978075,0.9985462566301578,0.0011979016998406387
1572.7634362286667,1572.7634362286667,1.0009766918461218,0.0011989304260152287
1572.7703806593395,1572.7703806593395,1.0000287034370705,0.001198344872103643
1572.7773250900123,1572.7773250900123,1.0006622944964483,0.001197201981552074
1572.784269520685,1572.784269520685,1.0014289473486468,0.001198434312990271
1572.7912139510786,1572.7912139510786,0.9998109557797579,0.0011956992382404607
1572.7981583816595,1572.7981583816595,0.999344373333359,0.0011956768512714103
1572.805102812053,1572.805102812053,1.0015575900488853,0.0011964380573388678
1572.8120472423532,1572.8120472423532,0.9974541185610771,0.0011943025496270851
1572.8189916725605,1572.8189916725605,1.0009905569975728,0.0011944636895134986
1572.8259361027679,1572.8259361027679,0.9992216350069697,0.0011952211793029273
1572.8328805330677,1572.8328805330677,0.9997612294055465,0.0011940646115155427
1572.8398249629024,1572.8398249629024,1.002309953960753,0.001194976443124365
1572.8467693932039,1572.8467693932039,0.9992486069577167,0.0011926728381802482
1572.8537138230388,1572.8537138230388,1.000433103480659,0.00119407875473721
1572.8606582528735,1572.8606582528735,0.9983398598422077,0.0011928595483530642
1572.8676026827084,1572.8676026827084,0.9981347835440426,0.001192390350832029
1572.8745471125428,1572.8745471125428,1.0018780571306087,0.0011921572930848126
1572.881491542191,1572.881491542191,1.0013437466706572,0.0011922300415676248
1572.8884359717463,1572.8884359717463,0.9994025593488439,0.0011910443683758281
