time,time,flux,flux_err
1325.3003473746548,1325.3003473746548,1.0000154343032603,0.00019095532036161858
1325.3086805851171,1325.3086805851171,1.000127374951916,0.0001910259461923456
1325.3170137957936,1325.3170137957936,0.9998575794552598,0.00019103248739810424
1325.3246525724437,1325.3246525724437,0.9999199173096418,0.00017442811358674124
1325.3315969149983,1325.3315969149983,1.0000373812355268,0.00017446273108859495
1325.3385412577395,1325.3385412577395,0.9998101282338979,0.00017447096036106848
1325.345485600574,1325.345485600574,0.9998866127725243,0.00017449754480513942
1325.3524299436408,1325.3524299436408,1.000049634963717,0.00017453595544536106
1325.359374286824,1325.359374286824,1.0001177839083844,0.00017457475569169725
1325.3663186301474,1325.3663186301474,1.000244782922977,0.0001746069095755925
1325.37326297361,1325.37326297361,1.000230397841839,0.00017461247597237776
1325.3802073172824,1325.3802073172824,0.9999415066133901,0.00017461320305185216
1325.387151661048,1325.387151661048,1.0001825589773032,0.0001746577389521728
1325.3940960049995,1325.3940960049995,0.9997671655215037,0.00017464749682074342
1325.4010403490677,1325.4010403490677,0.9996070012734621,0.00017464464362507132
1325.4079846932757,1325.4079846932757,1.0000017652662954,0.00017468201816164076
1325.4149290376463,1325.4149290376463,0.9998156338096715,0.0001746964575350991
1325.421873382157,1325.421873382157,1.0000482807560673,0.00017472660470803868
1325.4288177268304,1325.4288177268304,1.000165923948923,0.00017475112630786963
1325.4357620715737,1325.4357620715737,1.0000746731911772,0.00017475953361477227
1325.4427064165034,1325.4427064165034,1.0003518809935814,0.0001747887180140295
1325.4496507615727,1325.4496507615727,0.9998993520855987,0.00017477193292383394
1325.4565951067586,1325.4565951067586,0.999974186882062,0.00017479285843378576
1325.463539452107,1325.463539452107,0.9995502130303787,0.0001747711874470611
1325.4704837975955,1325.4704837975955,1.00041717906304,0.00017486447114557034
1325.4774281432005,1325.4774281432005,1.000167659192853,0.00017484884480333456
1325.4843724889215,1325.4843724889215,1.0000581248313425,0.00017487554320275782
1325.491316834806,1325.491316834806,0.9996104238306291,0.00017485972415586592
1325.49826118083,1325.49826118083,0.9998279079402206,0.00017489602502816318
1325.505205526947,1325.505205526947,1.000216214020797,0.00017495554371930062
1325.5121498732274,1325.5121498732274,0.9999955355740662,0.0001749523055601813
1325.5190942196,1325.5190942196,1.0000656824631737,0.00017499018270400037
1325.5260385661363,1325.5260385661363,1.000010701313489,0.00017500108176968422
1325.5329829127888,1325.5329829127888,0.9999604492561632,0.00017502547157910824
1325.5399272595578,1325.5399272595578,1.0000021945580713,0.00017505408489956333
1325.5468716064436,1325.5468716064436,1.0000295372348482,0.00017506913797167063
1325.5538159534449,1325.5538159534449,1.0000942402588016,0.00017508493701409234
1325.5607603006333,1325.5607603006333,0.9997047813760295,0.00017506261306479243
1325.567704647868,1325.567704647868,0.9999615045772483,0.00017511152170504582
1325.5746489952421,1325.5746489952421,1.0000326834160294,0.00017514919028573323
1325.5815933427566,1325.5815933427566,0.9999556695014791,0.00017514692252188814
1325.5885376903632,1325.5885376903632,1.0000772757868475,0.0001751680906340172
1325.5954820381103,1325.5954820381103,1.00015262676476,0.00017518599520496123
1325.6024263859504,1325.6024263859504,1.0001986902377134,0.0001751995815414736
1325.60937073393,1325.60937073393,0.9999929118524697,0.0001751992789726201
1325.6163150820032,1325.6163150820032,1.0001726414182137,0.00017521549144470424
1325.6232594302155,1325.6232594302155,0.9998784421068718,0.00017519589522265187
1325.6302037784978,1325.6302037784978,0.9997401899050115,0.00017519564576805175
1325.6371481268966,1325.6371481268966,1.0000703081465505,0.0001752273224445699
1325.644092475435,1325.644092475435,1.0002532292523694,0.00017524937198382356
1325.6510368240668,1325.6510368240668,0.9997303687065996,0.0001752198084279974
1325.6579811727916,1325.6579811727916,1.000051491005969,0.00017524360948604757
1325.664925521656,1325.664925521656,1.0000505484563347,0.0001752535040703453
1325.6718698706134,1325.6718698706134,1.0000866902298298,0.00017524877367336628
1325.6788142196642,1325.6788142196642,1.0003687580851388,0.00017526169034286026
1325.6857585688317,1325.6857585688317,0.9999414750757752,0.00017523739275595332
1325.692702918092,1325.692702918092,1.0000050838658068,0.00017524837741041837
1325.6996472674452,1325.6996472674452,1.0002094399946238,0.0001752735910553624
1325.7065916169386,1325.7065916169386,0.9999897977819421,0.00017526392014179868
1325.7135359665012,1325.7135359665012,0.9997196225890406,0.00017524634593696955
1325.7204803161574,1325.7204803161574,0.9998903578532052,0.00017526334612340022
1325.72742466593,1325.72742466593,1.0000508950556926,0.00017529081089298702
1325.7343690158186,1325.7343690158186,1.000169911766944,0.00017531251878285953
1325.7413133657778,1325.7413133657778,1.0000834883234042,0.00017531071709240258
1325.748257715806,1325.748257715806,1.0000502265021907,0.0001753148290354061
1325.7552020659512,1325.7552020659512,0.9997295528669404,0.00017530318638048797
1325.7621464162128,1325.7621464162128,1.0000669530836443,0.00017535051847270374
1325.7690907665208,1325.7690907665208,1.0000839031614572,0.0001753670787305949
1325.7760351169684,1325.7760351169684,1.0002170646678803,0.00017538318061406958
1325.7829794675094,1325.7829794675094,1.0000622742324967,0.00017539348854609193
1325.789923818097,1325.789923818097,0.9995485457296456,0.00017535591182584056
1325.7968681687773,1325.7968681687773,0.999941495844598,0.00017540102963567385
1325.8038125195742,1325.8038125195742,0.9999526145637443,0.0001754084694646927
1325.8107568704413,1325.8107568704413,1.0001316344082665,0.000175436937299424
1325.817701221401,1325.817701221401,1.0000866369446924,0.00017544014514522073
1325.8246455725007,1325.8246455725007,1.000192646418252,0.00017544877570913368
1325.8315899236236,1325.8315899236236,0.9999834766163371,0.0001754413551782543
1325.8385342748163,1325.8385342748163,0.9998609307639841,0.00017544092143422754
1325.8454786261022,1325.8454786261022,1.0002140087387894,0.00017546676704432242
1325.8524229774807,1325.8524229774807,0.9998097406939557,0.00017542213071691817
1325.859367328977,1325.859367328977,0.9998606744373308,0.00017543439959359885
1325.8663116805187,1325.8663116805187,0.9999503727692209,0.00017542979438659102
1325.8732560321075,1325.8732560321075,0.9999834996980294,0.00017542295035113937
1325.8802003838123,1325.8802003838123,1.00009171971712,0.00017542853886031305
1325.8871447356337,1325.8871447356337,1.0002085141027144,0.00017542327977144095
1325.8940890875017,1325.8940890875017,0.999931594880769,0.00017539406036866484
1325.9010334394166,1325.9010334394166,1.0000682499000493,0.00017539468959874442
1325.9079777914471,1325.9079777914471,1.0001531038160523,0.00017539507075509407
1325.914922143548,1325.914922143548,0.9996953788842735,0.00017533471067421276
1325.921866495695,1325.921866495695,0.9998185364611837,0.00017535419926309906
1325.9288108479595,1325.9288108479595,1.0001611650341766,0.00017538204103981057
1325.9357552002461,1325.9357552002461,0.99965887599199,0.00017533463699401304
1325.9426995526733,1325.9426995526733,1.0003388377914042,0.00017537278030265162
1325.9496439051231,1325.9496439051231,1.0000221242221825,0.00017534644466121299
1325.9565882576665,1325.9565882576665,0.9998744567530926,0.0001753264415829267
1325.9643659325775,1325.9643659325775,1.000227323388335,0.00017536530617593977
1325.9718658334664,1325.9718658334664,0.9999599456818797,0.0001753337303647226
1325.978810186219,1325.978810186219,1.0001102862056555,0.00017533688333065965
1325.9857545390416,1325.9857545390416,0.9997959382994084,0.0001753162466778536
1325.992698891934,1325.992698891934,0.9999110017312436,0.00017531615034982792
1325.9996432449195,1325.9996432449195,1.0000068692005537,0.00017534609260976946
1326.0065875979285,1326.0065875979285,0.9999548217619129,0.00017535343275709524
1326.0135319510305,1326.0135319510305,1.00039461442385,0.0001754014373412426
1326.020476304179,1326.020476304179,0.9998521208810457,0.00017535684434198602
1326.027420657421,1326.027420657421,1.0002675976489703,0.00017540337944735296
1326.0343650106859,1326.0343650106859,1.0000769339636941,0.00017540070572317335
1326.0413093640434,1326.0413093640434,0.9999720936542763,0.0001753752067671852
1326.0482537174253,1326.0482537174253,1.0001428281645122,0.00017539823990780294
1326.0551980709229,1326.0551980709229,0.9999126429945102,0.00017538433664834126
1326.0621424244673,1326.0621424244673,0.9999427326538157,0.00017538555342729422
1326.0690867780584,1326.0690867780584,0.9999985084001579,0.00017540346917861873
1326.0760311317185,1326.0760311317185,1.0001829417086077,0.00017541275907515956
1326.0829754854267,1326.0829754854267,1.000052522422526,0.00017540981374477384
1326.0899198392037,1326.0899198392037,0.9998012806721157,0.00017538037963331636
1326.0968641930508,1326.0968641930508,1.0000323621651002,0.00017540021626696254
1326.1038085469447,1326.1038085469447,0.9999075764484093,0.0001753899925849293
1326.1107529008846,1326.1107529008846,1.0004965950911913,0.00017543867686575554
1326.1176972548478,1326.1176972548478,0.9999791338001428,0.00017539811781188075
1326.124641608951,1326.124641608951,0.9996421816274992,0.0001753624655675896
1326.1315859630545,1326.1315859630545,1.0000801580284369,0.00017539327401095
1326.1385303172272,1326.1385303172272,0.9997863060829053,0.00017536783254528724
1326.1454746714471,1326.1454746714471,1.0002709700366181,0.0001754140759256316
1326.1524190257364,1326.1524190257364,0.9997624182950833,0.00017536406695015856
1326.1593633800721,1326.1593633800721,0.9998819470756658,0.00017537237497284566
1326.1663077344551,1326.1663077344551,0.9999476862276442,0.00017538687773462774
1326.173252088907,1326.173252088907,0.9997338972488821,0.00017535118194059114
1326.180196443383,1326.180196443383,1.0003172076483036,0.00017540359455158635
1326.1871407979286,1326.1871407979286,1.000105190975613,0.00017537036043407077
1326.1940851524737,1326.1940851524737,1.0002290970739318,0.0001753727082416071
1326.2010295071595,1326.2010295071595,0.9999311195370998,0.00017536452942911365
1326.2079738618445,1326.2079738618445,0.9998534909322669,0.00017535446568788204
1326.2149182166,1326.2149182166,0.9997191637672209,0.0001753408007916855
1326.221862571355,1326.221862571355,1.0000509486320908,0.00017536082248743827
1326.2288069262263,1326.2288069262263,1.0002872570511636,0.00017538663296092272
1326.2357512810745,1326.2357512810745,0.9999285961447374,0.00017535879121084074
1326.2426956360387,1326.2426956360387,0.9997956233291113,0.00017534241729014226
1326.2496399909805,1326.2496399909805,0.9999920260063966,0.00017535191619697833
1326.256584346038,1326.256584346038,0.9999656479496568,0.00017535259197119126
1326.2635287010962,1326.2635287010962,1.000059382490053,0.00017535021238250528
1326.2704730562004,1326.2704730562004,1.0001285833703772,0.000175355955396047
1326.277417411351,1326.277417411351,1.0000924440414303,0.00017533912482893232
1326.284361766549,1326.284361766549,0.9999022786957514,0.00017534078541820455
1326.291306121816,1326.291306121816,0.9999630050642352,0.00017532666146418666
1326.2982504771066,1326.2982504771066,0.9998434306282172,0.00017531915086415367
1326.3051948324437,1326.3051948324437,1.0004346535783317,0.00017535453247944594
1326.3121391878044,1326.3121391878044,0.9998939532576673,0.0001753264578627477
1326.3190835432347,1326.3190835432347,0.9998737154704325,0.00017532754497416
1326.3260278986877,1326.3260278986877,0.9997614682505572,0.00017532108709968633
1326.3329722541885,1326.3329722541885,0.999943458745431,0.00017534330149824808
1326.3399166097117,1326.3399166097117,1.0003811265758726,0.00017538414668595123
1326.3474165137675,1326.3474165137675,1.0001713840541093,0.00017536546703953657
1326.3565830631867,1326.3565830631867,0.9997825938316198,0.00017534615664747407
1326.3635274188498,1326.3635274188498,0.9998683955100018,0.00017536053771488887
1326.3704717746064,1326.3704717746064,1.0001519174155233,0.00017538725214136233
1326.3774161302695,1326.3774161302695,1.0000883647788334,0.00017538265130517775
1326.3843604861186,1326.3843604861186,0.9997740158609837,0.0001753622166144222
1326.391304841945,1326.391304841945,1.0000670026455531,0.00017538215477546422
1326.3982491977943,1326.3982491977943,0.9998739694355535,0.00017538053466348218
1326.4051935536902,1326.4051935536902,1.0000899191878472,0.00017539335468411967
1326.412137909633,1326.412137909633,0.9998432898507948,0.00017538822288484294
1326.4190822655987,1326.4190822655987,0.9999270091796646,0.00017539919297525835
1326.4260266216345,1326.4260266216345,1.0003026965814692,0.0001754155040334295
1326.4329709776466,1326.4329709776466,0.9998818053402296,0.00017539235787891494
1326.439915333752,1326.439915333752,1.000140484864285,0.00017541241167993982
1326.4468596898578,1326.4468596898578,1.0000149892383154,0.00017541293252266684
1326.4538040460097,1326.4538040460097,0.9999738350105953,0.00017540719394402605
1326.460748402185,1326.460748402185,0.9998006508992547,0.0001753858123611935
1326.467692758407,1326.467692758407,1.0000347418008189,0.0001754050992408783
1326.474637114652,1326.474637114652,0.9999458625807385,0.00017541008593422247
1326.4815814709207,1326.4815814709207,1.0001886014146637,0.0001754412850397984
1326.488525827282,1326.488525827282,1.0001110649616973,0.00017543995278476642
1326.4954701836439,1326.4954701836439,1.0000635731455765,0.00017543222445001177
1326.5024145400052,1326.5024145400052,0.9997884902781283,0.00017541549546520695
1326.5093588963673,1326.5093588963673,1.0001865987274794,0.000175454156958557
1326.516303252822,1326.516303252822,0.9997185897077575,0.0001754208236554458
1326.5232476092765,1326.5232476092765,1.0000648352328736,0.00017545537148167816
1326.5301919657782,1326.5301919657782,0.9996834353144699,0.00017544082919842936
1326.5371363223258,1326.5371363223258,1.0003012070581576,0.00017548957222679676
1326.544080678874,1326.544080678874,1.000138131872919,0.00017548451386875067
1326.551025035445,1326.551025035445,1.0000737001986504,0.00017550040205364367
1326.5579693920627,1326.5579693920627,0.999785180813214,0.00017547615753040326
1326.5649137486805,1326.5649137486805,0.9998780021979838,0.0001754839206605784
1326.5718581053911,1326.5718581053911,1.000088139367771,0.0001754951036414423
1326.578802462079,1326.578802462079,1.000188957133148,0.00017551060480113819
1326.5857468188362,1326.5857468188362,0.9999952586667815,0.00017550197437375448
1326.5926911755707,1326.5926911755707,1.000034524135558,0.00017550726751920897
1326.599635532351,1326.599635532351,0.9997267237348344,0.0001754881283208628
1326.6065798891552,1326.6065798891552,1.0000679569981652,0.0001755145254490675
1326.6135242459827,1326.6135242459827,0.9999172455274838,0.00017551666593735712
1326.6204686028564,1326.6204686028564,0.9998440346275229,0.0001755194435093195
1326.6274129597537,1326.6274129597537,1.0001441092229102,0.0001755305429714385
1326.634357316697,1326.634357316697,1.0001767922342126,0.00017554424399294442
1326.641301673641,1326.641301673641,1.0001908882566377,0.00017554512208625765
1326.6482460305847,1326.6482460305847,1.0001490934835788,0.00017554403176981483
1326.6551903875284,1326.6551903875284,1.000077775454467,0.0001755365782320643
1326.6621347445653,1326.6621347445653,0.9996542284066854,0.00017549559268683582
1326.669079101602,1326.669079101602,0.9997150502502427,0.0001754860171848993
1326.6760234586623,1326.6760234586623,1.000060018869161,0.00017551042670138013
1326.6829678157223,1326.6829678157223,0.9999704335201512,0.0001754790737654305
1326.6910232699865,1326.6910232699865,0.999985727249659,0.00017547277999153274
1326.6982454013942,1326.6982454013942,1.0000437896412873,0.00017548306400737198
1326.7051897585475,1326.7051897585475,0.9999782228068582,0.00017545422894154039
1326.712689664303,1326.712689664303,0.9999383927145804,0.00017543456893529837
1326.7204673443825,1326.7204673443825,1.0001575357716397,0.00017546264881049034
1326.7274117015825,1326.7274117015825,1.0003408364075472,0.00017546014436606595
1326.734356058852,1326.734356058852,0.9998279430854659,0.00017540708796673184
1326.7413004161217,1326.7413004161217,1.0002135502125562,0.00017541635229897503
1326.7482447734144,1326.7482447734144,0.9995727930720409,0.000175377501361887
1326.7551891307073,1326.7551891307073,0.9999352534183821,0.00017540260935136064
1326.7621334880237,1326.7621334880237,1.0000193433867233,0.00017539757274653484
1326.7690778454096,1326.7690778454096,0.999704999547685,0.0001753739752365187
1326.7760222027491,1326.7760222027491,1.0001175778515716,0.00017539273652590108
1326.782966560159,1326.782966560159,0.9999742964371421,0.0001753871426748575
1326.789910917568,1326.789910917568,1.0000441671765796,0.0001753966460616097
1326.7968552750008,1326.7968552750008,1.0002148939484496,0.0001754206807567184
1326.8037996324335,1326.8037996324335,0.9997207296913826,0.0001753768812898635
1326.810743989936,1326.810743989936,0.9999857541289192,0.00017538913788782694
1326.8176883473914,1326.8176883473914,1.0000141497619652,0.00017538992921332957
1326.824632704871,1326.824632704871,1.0001729504015369,0.00017538746915749955
1326.8315770623967,1326.8315770623967,1.0000457546181392,0.0001753912221329692
1326.8385214199227,1326.8385214199227,0.9997065667820866,0.00017535698012301302
1326.8454657775414,1326.8454657775414,0.9999853036153755,0.0001753718302715863
1326.8524101350904,1326.8524101350904,1.0001484246183654,0.0001753837444514413
1326.859354492686,1326.859354492686,1.0001341090012326,0.00017537680871746223
1326.8662988502822,1326.8662988502822,0.9996816746064253,0.00017533236427272645
1326.8732432079244,1326.8732432079244,1.000161502794282,0.00017537060487448958
1326.880187565566,1326.880187565566,1.0001577650877953,0.00017535571709032793
1326.8871319232087,1326.8871319232087,1.0001511696876235,0.0001753440785171699
1326.8940762808968,1326.8940762808968,0.999819824845283,0.00017530287819550022
1326.901020638586,1326.901020638586,1.0002945874866649,0.00017531846262781094
1326.9079649962746,1326.9079649962746,0.9997731685236524,0.0001752726386400041
1326.9149093539868,1326.9149093539868,0.999961915754828,0.0001752745792999092
1326.9218537117454,1326.9218537117454,0.9995492373421838,0.0001752132018489349
1326.9287980694808,1326.9287980694808,0.9999207399019951,0.00017523424036269293
1326.9357424272396,1326.9357424272396,0.9999856176280921,0.00017522396087693652
1326.9426867850211,1326.9426867850211,1.000344676678063,0.00017522563478463676
1326.9496311428031,1326.9496311428031,1.0002518623087482,0.00017520972823673525
1326.9565755006315,1326.9565755006315,1.000180528665461,0.00017519120114372564
1326.963519858437,1326.963519858437,0.9996369663806715,0.00017512917764841374
1326.9704642162656,1326.9704642162656,0.9999618477209605,0.00017514341568282993
1326.9774085741399,1326.9774085741399,1.0000581236688268,0.00017513992287527207
1326.9843529319921,1326.9843529319921,1.0001171299050564,0.00017512354445608437
1326.991297289867,1326.991297289867,1.0001827100541427,0.000175121720570286
1326.9982416477426,1326.9982416477426,0.9999296081032032,0.00017508864102236117
1327.0051860056637,1327.0051860056637,0.9996286996500242,0.00017507943542705514
1327.0121303635854,1327.0121303635854,1.0000012396012372,0.00017509709220329457
1327.0190747214833,1327.0190747214833,1.0002876635708131,0.00017512090676632058
1327.0260190794284,1327.0260190794284,0.9999151797354078,0.0001750762318831492
1327.0329634373734,1327.0329634373734,1.000020766840296,0.00017509729701323734
1327.0399077953412,1327.0399077953412,0.9998495778176668,0.00017507988526489462
1327.0468521533098,1327.0468521533098,0.9998064318615187,0.00017506488283167216
1327.0537965113012,1327.0537965113012,1.0001331720287059,0.00017508857573227636
