time,time,flux,flux_err
1325.298079955952,1325.298079955952,1.0000043633153464,0.00025966881723947944
1325.3064132911343,1325.3064132911343,0.9999278268118648,0.00025977430658097556
1325.3147466266466,1325.3147466266466,0.9997730463197122,0.0002598138508301673
1325.3223855178146,1325.3223855178146,0.9998336301238963,0.0002372257976735968
1325.3293299645843,1325.3293299645843,1.0003143836777055,0.00023728974385130446
1325.3362744115634,1325.3362744115634,1.0003685535541937,0.00023735685980122954
1325.3432188587526,1325.3432188587526,1.0003202893650913,0.0002373876745576648
1325.3501633061742,1325.3501633061742,1.0002037218452962,0.00023743792083993692
1325.357107753852,1325.357107753852,0.9995784065924663,0.00023745259495618754
1325.3640522016462,1325.3640522016462,0.999677773974217,0.00023753886647065177
1325.3709966496965,1325.3709966496965,0.9999109536352794,0.00023758290262464966
1325.37794109791,1325.37794109791,1.0001964114609432,0.00023766442752841502
1325.3848855464025,1325.3848855464025,1.0001632399145328,0.00023773966960570297
1325.3918299950583,1325.3918299950583,0.9999353321351302,0.00023779757704769366
1325.3987744439232,1325.3987744439232,1.0000309524021482,0.00023786939466353832
1325.4057188929519,1325.4057188929519,0.9997320442264861,0.00023786486911614555
1325.4126633421893,1325.4126633421893,0.9999935197934352,0.0002379210701757124
1325.4196077916367,1325.4196077916367,1.0002006102467926,0.00023802332642384474
1325.4265522412702,1325.4265522412702,1.0000518244378642,0.00023807817209597866
1325.4334966911133,1325.4334966911133,1.0001806116519292,0.00023811137283103793
1325.4404411411429,1325.4404411411429,1.000006042884562,0.0002381356567131813
1325.4473855913118,1325.4473855913118,0.9999082049495561,0.0002381733062767946
1325.4543300416904,1325.4543300416904,1.0001369354228153,0.000238268913301998
1325.4612744923018,1325.4612744923018,0.9996198883478368,0.00023823772065010288
1325.4682189430064,1325.4682189430064,0.9998263726780147,0.00023832315819227132
1325.4751633938972,1325.4751633938972,1.0002228271233817,0.00023837642852972727
1325.4821078449975,1325.4821078449975,1.0000330768374632,0.0002384328435291347
1325.4890522962612,1325.4890522962612,1.000286657487924,0.00023853920811294432
1325.495996747711,1325.495996747711,0.999582358226457,0.0002385151918126988
1325.5029411993232,1325.5029411993232,1.0001333924296945,0.0002386145049582457
1325.509885651099,1325.509885651099,1.000173505438911,0.00023867258141979574
1325.5168301030376,1325.5168301030376,0.9997803799725092,0.0002387002537951156
1325.5237745551392,1325.5237745551392,1.0001315167055842,0.00023878425973695424
1325.5307190073804,1325.5307190073804,0.999952917662171,0.000238826583704884
1325.5376634598076,1325.5376634598076,0.9998619872937937,0.00023887194807177867
1325.5446079123988,1325.5446079123988,1.0000876253927327,0.00023892833321557608
1325.5515523651286,1325.5515523651286,0.9998477431495584,0.00023894948457745587
1325.5584968180453,1325.5584968180453,1.0002437792691332,0.00023904011693189398
1325.565441271078,1325.565441271078,1.0001690631582416,0.00023909104878665023
1325.572385724274,1325.572385724274,0.9996619256334112,0.00023913774506576624
1325.5793301776332,1325.5793301776332,0.999850119656748,0.00023916614641815445
1325.5862746311545,1325.5862746311545,1.0003387470519314,0.00023927290320687814
1325.5932190847464,1325.5932190847464,1.000377565284344,0.00023929357749238864
1325.6001635385478,1325.6001635385478,1.0000643845311439,0.00023930716393543512
1325.6071079924652,1325.6071079924652,1.000096267271668,0.00023931926854634623
1325.6140524464995,1325.6140524464995,0.9991787137417735,0.0002392524451674866
1325.6209969007427,1325.6209969007427,0.9995144158343223,0.00023930076618131958
1325.6279413550565,1325.6279413550565,1.000589873510553,0.00023941568820326598
1325.6348858095562,1325.6348858095562,0.999835384115919,0.0002393480196523381
1325.641830264149,1325.641830264149,0.9998963003301975,0.00023939556909578484
1325.6487747189049,1325.6487747189049,1.000322241789764,0.00023946255463408334
1325.655719173777,1325.655719173777,1.0002778086879753,0.00023944985934377998
1325.6626636287892,1325.6626636287892,1.0000959472624635,0.00023941368423055707
1325.6696080839172,1325.6696080839172,0.9998479530753425,0.00023935887729191504
1325.6765525391854,1325.6765525391854,0.9998405537673124,0.00023932019212729222
1325.6834969945699,1325.6834969945699,0.9997516875762751,0.0002394064057791803
1325.690441450094,1325.690441450094,1.000016687721671,0.00023940802585334814
1325.697385905735,1325.697385905735,1.0000145057912648,0.00023943284668226012
1325.704330361492,1325.704330361492,1.0001407761318037,0.0002394638889848634
1325.7112748173884,1325.7112748173884,1.000102696002938,0.00023950933508090142
1325.718219273355,1325.718219273355,1.0002054417694999,0.00023949513445464782
1325.7251637294614,1325.7251637294614,1.000035916497379,0.00023952807418115043
1325.7321081857071,1325.7321081857071,0.9999903913060809,0.00023954449744344376
1325.7390526420234,1325.7390526420234,0.9997511887705961,0.00023958311418547065
1325.7459970985014,1325.7459970985014,0.9998824687805399,0.0002396160850136862
1325.7529415550505,1325.7529415550505,0.9999144727224538,0.00023965884883499002
1325.7598860117155,1325.7598860117155,0.9995249330120771,0.00023964810586469664
1325.766830468497,1325.766830468497,1.0003961657584137,0.000239777410101521
1325.773774925395,1325.773774925395,1.000060253421831,0.00023977626297752493
1325.780719382409,1325.780719382409,1.000331817112178,0.00023984023860239252
1325.7876638394932,1325.7876638394932,1.0002091344911188,0.00023984862554106822
1325.7946082966942,1325.7946082966942,0.9999017270414796,0.000239828617635162
1325.8015527540342,1325.8015527540342,0.9998372295177849,0.00023987412815997666
1325.8084972114214,1325.8084972114214,1.0000525511246523,0.00023992846280995725
1325.8154416689242,1325.8154416689242,0.9999837053593368,0.00023993481334408959
1325.8223861265208,1325.8223861265208,1.0000203977154616,0.00023995229523998723
1325.8293305842567,1325.8293305842567,0.9997058731183973,0.00023997802589842814
1325.836275042086,1325.836275042086,1.0000401198018671,0.00024003220239898326
1325.8432194999618,1325.8432194999618,1.0001510170907337,0.0002400016229369686
1325.8501639579767,1325.8501639579767,0.9997916869183504,0.00023996139378872297
1325.8571084160626,1325.8571084160626,1.0001757634910153,0.00023998743068073082
1325.864052874241,1325.864052874241,0.9999011732637942,0.00023995310513344744
1325.8709973325126,1325.8709973325126,1.0001782587580406,0.00023995056885436181
1325.8779417908775,1325.8779417908775,0.9997506552451647,0.00023987219474299478
1325.8848862493585,1325.8848862493585,1.000115468701802,0.00023986372766931488
1325.8918307078861,1325.8918307078861,1.000124703927695,0.0002398411078960901
1325.8987751665304,1325.8987751665304,1.000129740973659,0.00023981360430754074
1325.9057196252209,1325.9057196252209,1.0001506883128675,0.00023978267260880466
1325.9126640840282,1325.9126640840282,0.9999119318629642,0.00023971696788458195
1325.9196085429514,1325.9196085429514,0.9996750670860066,0.00023970563610855596
1325.9265530019218,1325.9265530019218,1.0001229814449164,0.00023975168231030506
1325.933497460938,1325.933497460938,0.9997617058861078,0.00023970332657408886
1325.940441920118,1325.940441920118,0.9999222370947651,0.00023968264366432736
1325.947386379321,1325.947386379321,1.0001854094948848,0.0002397292767537768
1325.9543308386171,1325.9543308386171,1.0001047004630994,0.0002397225389981673
1325.962108633133,1325.962108633133,0.9999413551319091,0.00023975730324552253
1325.9696086493664,1325.9696086493664,1.00009134837199,0.00023972289107593276
1325.9765531088954,1325.9765531088954,1.0004080569527942,0.0002397406503120753
1325.9834975685403,1325.9834975685403,0.9998169698102117,0.00023967159850103153
1325.990442028232,1325.990442028232,0.999863962920777,0.0002396873847102779
1325.9973864880174,1325.9973864880174,0.9995807473164483,0.00023969100312057085
1326.0043309478485,1326.0043309478485,0.9999640326911081,0.00023975721996780832
1326.0112754078202,1326.0112754078202,0.9998661591116786,0.0002397897375887993
1326.0182198677915,1326.0182198677915,1.0001528101286967,0.00023980737987543683
1326.0251643278327,1326.0251643278327,1.0002997404297573,0.00023986603318009773
1326.0321087879668,1326.0321087879668,1.000354831087209,0.00023990255015016474
1326.0390532481938,1326.0390532481938,0.999969125791641,0.0002398577986380337
1326.0459977084681,1326.0459977084681,0.9996023330503722,0.00023979851350211986
1326.0529421687884,1326.0529421687884,1.0000403734865495,0.00023988879817345754
1326.059886629202,1326.059886629202,0.9999580635794239,0.00023986889586444872
1326.0668310896858,1326.0668310896858,1.0003554539700301,0.00023992116197185345
1326.0737755502385,1326.0737755502385,0.9998876427798378,0.00023989040303864996
1326.080720010816,1326.080720010816,1.0001446893435912,0.00023994585168449515
1326.0876644715086,1326.0876644715086,1.000202437976595,0.00023994085469134792
1326.0946089322483,1326.0946089322483,1.000016559424731,0.0002399411238412614
1326.1015533930579,1326.1015533930579,0.9996670333966288,0.00023988862513000462
1326.1084978539136,1326.1084978539136,0.9998964302927466,0.0002399171109126835
1326.1154423148396,1326.1154423148396,1.000103923373591,0.00023997213952029367
1326.1223867758117,1326.1223867758117,0.9999776216197755,0.0002399569787319328
1326.1293312368778,1326.1293312368778,0.9999411955011654,0.00023992721262703693
1326.136275698013,1326.136275698013,1.0000489201319762,0.00023994162649980806
1326.1432201591483,1326.1432201591483,1.0003989355531282,0.0002399801902885353
1326.1501646203537,1326.1501646203537,0.999674422313549,0.0002399118026977619
1326.1571090816053,1326.1571090816053,0.9999482826409556,0.0002399552286655515
1326.1640535429738,1326.1640535429738,1.0001940081486675,0.00023996896317144784
1326.170998004365,1326.170998004365,0.9999376056350023,0.00023995706612962628
1326.1779424658034,1326.1779424658034,1.0000743689267386,0.00023998076899498373
1326.1848869273113,1326.1848869273113,1.0000169897220395,0.00023993979026019885
1326.1918313888652,1326.1918313888652,0.999979053626402,0.00023993104617081243
1326.1987758504904,1326.1987758504904,0.9998769903768796,0.0002399135870208273
1326.2057203121608,1326.2057203121608,0.9999523416311991,0.00023996961445386464
1326.2126647738787,1326.2126647738787,1.0004353862694202,0.00024000327362139542
1326.2196092356426,1326.2196092356426,0.9994621879656765,0.00023989030532836197
1326.2265536974764,1326.2265536974764,0.9998744514651559,0.0002399441157331829
1326.2334981593335,1326.2334981593335,0.9999149123514715,0.00023994136652652864
1326.2404426212836,1326.2404426212836,1.000325218388438,0.00023996477416195406
1326.2473870832578,1326.2473870832578,1.00006122628053,0.00023994481135488992
1326.2543315452774,1326.2543315452774,1.0003240118594525,0.000240004857145383
1326.261276007368,1326.261276007368,0.9999726518297287,0.0002399763145887763
1326.2682204695043,1326.2682204695043,0.9998231689040139,0.00023994041658191876
1326.275164931664,1326.275164931664,1.0003083921846536,0.00023999681656298755
1326.2821093938708,1326.2821093938708,0.9997729000145259,0.0002399629197553757
1326.289053856147,1326.289053856147,0.9996747530632518,0.0002399758955820347
1326.2959983184464,1326.2959983184464,1.0000594544809813,0.00023997341925351942
1326.302942780839,1326.302942780839,0.9998463672929278,0.00023997009358823134
1326.3098872432317,1326.3098872432317,0.9997376265499479,0.00024000290384938483
1326.3168317056945,1326.3168317056945,1.0003190103845678,0.00024003555242991712
1326.3237761681798,1326.3237761681798,1.000228449431588,0.0002400786778683179
1326.3307206307363,1326.3307206307363,1.0001968633185618,0.0002400692129722457
1326.337665093315,1326.337665093315,1.0001466468187528,0.0002400855832941548
1326.3451651129712,1326.3451651129712,0.9997500999684847,0.00024005451407198915
1326.3543318036952,1326.3543318036952,1.000302370954262,0.00024013583550989013
1326.3612762664138,1326.3612762664138,0.9995380697286438,0.00024008875065488697
1326.3682207291793,1326.3682207291793,0.9996659140754774,0.00024012130200692545
1326.3751651920375,1326.3751651920375,0.999962887812576,0.00024020161640315443
1326.3821096549193,1326.3821096549193,0.9999657029880659,0.00024020947015052384
1326.389054117801,1326.389054117801,1.0001362400304232,0.00024023877259393158
1326.3959985806825,1326.3959985806825,1.000293058306943,0.00024025113650563522
1326.4029430436804,1326.4029430436804,1.000308207681209,0.00024026630235790121
1326.4098875067023,1326.4098875067023,1.0002421069999494,0.0002402789960334942
1326.4168319697467,1326.4168319697467,0.9996418255243084,0.00024023978482131558
1326.4237764328377,1326.4237764328377,0.999861034182366,0.0002402771390216591
1326.4307208959754,1326.4307208959754,0.9994969585201015,0.00024030534263625212
1326.4376653591364,1326.4376653591364,1.0000327251095693,0.00024034793010644073
1326.444609822344,1326.444609822344,1.000430009583507,0.0002404394145627943
1326.4515542855984,1326.4515542855984,0.9999439808507802,0.00024040178804158986
1326.4584987488756,1326.4584987488756,1.0001014136087039,0.00024044556528054727
1326.4654432121763,1326.4654432121763,1.000092272804923,0.0002404652476281732
1326.4723876755238,1326.4723876755238,1.0003961631365677,0.00024050941075337814
1326.479332138918,1326.479332138918,0.9995087791405851,0.00024045037396140429
1326.4862766023348,1326.4862766023348,1.0000808215529489,0.00024053360183565542
1326.4932210657987,1326.4932210657987,0.9997177712218006,0.0002405235500480396
1326.5001655292622,1326.5001655292622,1.0001291860889119,0.0002405723542345104
1326.5071099928423,1326.5071099928423,0.9998062289942855,0.00024059820260508412
1326.514054456376,1326.514054456376,1.0000064838091745,0.00024061330629997554
1326.5209989199561,1326.5209989199561,1.0003576590610375,0.00024064037181888617
1326.5279433836063,1326.5279433836063,0.9999738418890172,0.00024069421026275375
1326.534887847256,1326.534887847256,0.9999347916798899,0.00024064972730002278
1326.5418323109527,1326.5418323109527,0.9997710654346699,0.0002406837772874966
1326.5487767746724,1326.5487767746724,0.999947955376058,0.00024072817616785537
1326.5557212384156,1326.5557212384156,0.9999760505285844,0.00024076102747539575
1326.562665702205,1326.562665702205,1.0001353077754707,0.00024077221223862012
1326.5696101660415,1326.5696101660415,0.9999992318051076,0.0002407385352902918
1326.576554629878,1326.576554629878,1.0000695521873684,0.00024077902897509865
1326.5834990937606,1326.5834990937606,1.000161463688886,0.00024079931647096208
1326.590443557667,1326.590443557667,0.9999882920849265,0.00024079414858811627
1326.597388021596,1326.597388021596,1.0000656436708277,0.00024084249669692985
1326.6043324855723,1326.6043324855723,0.9996992471823507,0.0002407939902530853
1326.6112769495714,1326.6112769495714,1.0002629505561833,0.00024091580852944163
1326.618221413617,1326.618221413617,0.9999996544921904,0.00024087160513940764
1326.625165877663,1326.625165877663,0.9999802220419447,0.00024085871423081768
1326.6321103417317,1326.6321103417317,1.0000048849144823,0.0002409270964964504
1326.639054805871,1326.639054805871,0.9995595868760067,0.00024087563643050038
1326.6459992700097,1326.6459992700097,1.0005684077185253,0.00024096318410719793
1326.652943734172,1326.652943734172,0.9999225393625384,0.00024087301196026628
1326.659888198381,1326.659888198381,0.9996220284474114,0.0002408384134061908
1326.6668326625895,1326.6668326625895,0.9999951017488172,0.00024087988828116303
1326.6737771268452,1326.6737771268452,1.0000162375891464,0.00024085715616118655
1326.6807215911238,1326.6807215911238,1.0000285270504483,0.0002408166599267804
1326.6887771697427,1326.6887771697427,0.9997130303061599,0.00024077449688632673
1326.695999412653,1326.695999412653,1.000438705839593,0.00024081553574740086
1326.7029438769782,1326.7029438769782,1.0002619122056486,0.00024076718210564577
1326.7104438985202,1326.7104438985202,1.0001248097877262,0.0002407520075831049
1326.7182216986707,1326.7182216986707,0.9996360840292458,0.0002406647142156687
1326.7251661631121,1326.7251661631121,0.9998123478465786,0.00024065636910048548
1326.7321106276004,1326.7321106276004,1.000298675456705,0.0002407113888832301
1326.7390550920657,1326.7390550920657,1.0001270080340052,0.00024063325633177845
1326.7459995565998,1326.7459995565998,0.9998058246550148,0.0002406292177439755
1326.7529440211115,1326.7529440211115,0.9998092878184833,0.000240665958869615
1326.7598884857161,1326.7598884857161,0.9999247733494272,0.00024061631059877766
1326.7668329502508,1326.7668329502508,1.0004274746802313,0.0002406820918304113
1326.7737774148786,1326.7737774148786,1.0001156223153305,0.00024063427390500153
1326.7807218795065,1326.7807218795065,0.9997290210773977,0.00024059954706295573
1326.7876663441577,1326.7876663441577,0.9997143264731954,0.0002405905853367805
1326.7946108088786,1326.7946108088786,1.0001687959135646,0.0002406710421921658
1326.8015552735535,1326.8015552735535,1.0002483602067134,0.00024070143067644276
1326.8084997382975,1326.8084997382975,1.0001368577719723,0.00024067582453341651
1326.8154442030414,1326.8154442030414,0.9994424561871351,0.0002406400540021153
1326.8223886678093,1326.8223886678093,1.0001413602891183,0.00024066388753882982
1326.8293331326,1326.8293331326,1.0000359851022809,0.00024067751191766826
1326.8362775974144,1326.8362775974144,0.9999388671223933,0.00024068466255580152
1326.843222062252,1326.843222062252,0.9998826699152573,0.00024068169099193448
1326.8501665270892,1326.8501665270892,1.00011339752565,0.00024069140296035553
1326.857110991973,1326.857110991973,0.9999883404760027,0.00024068059231829443
1326.8640554568806,1326.8640554568806,1.0000470887555666,0.00024066648385624796
1326.870999921788,1326.870999921788,1.0004895411884067,0.00024070494997192096
1326.8779443867181,1326.8779443867181,0.999764677409518,0.0002405942200955003
1326.8848888516725,1326.8848888516725,1.000025758200212,0.0002405970218218961
1326.8918333166491,1326.8918333166491,0.9999926671408161,0.00024056986202583802
1326.8987777816496,1326.8987777816496,0.9997387621531267,0.00024047123894779988
1326.9057222466733,1326.9057222466733,1.0000830112350578,0.00024048829092919417
1326.9126667116973,1326.9126667116973,0.9997943894792156,0.00024042351132970966
1326.9196111767674,1326.9196111767674,1.0000250592256783,0.00024035456929489174
1326.9265556418377,1326.9265556418377,0.9999110714911325,0.00024035212547618374
1326.9335001069314,1326.9335001069314,1.0000294369962714,0.00024028641894098605
1326.9404445720243,1326.9404445720243,1.0001574833383762,0.00024025563437706686
1326.9473890371648,1326.9473890371648,1.000075619262767,0.00024018624136548577
1326.954333502305,1326.954333502305,1.0000786765421676,0.00024019263220889298
1326.961277967515,1326.961277967515,0.9996882206740738,0.00024008041138331646
1326.968222432632,1326.968222432632,1.0001380984417338,0.00024010857096484536
1326.975166897818,1326.975166897818,1.000090266867581,0.00024007677987624194
1326.982111363075,1326.982111363075,1.0002540203009043,0.0002400501056879874
1326.9890558283546,1326.9890558283546,1.0000169715561504,0.00023997695154644448
1326.996000293565,1326.996000293565,1.0000752499741457,0.00023994064648604282
1327.0029447588677,1327.0029447588677,0.9998470892646909,0.00023996265796869518
1327.0098892241244,1327.0098892241244,0.9996488049726692,0.00023991957626878432
1327.0168336894274,1327.0168336894274,0.9998435451959498,0.0002399687070991593
1327.0237781547771,1327.0237781547771,1.0003288731642381,0.00023999045608445166
1327.0307226201035,1327.0307226201035,0.9999093837139454,0.00023996239848795737
1327.0376670854525,1327.0376670854525,0.9998539406809425,0.00023997721899509452
1327.0446115508262,1327.0446115508262,1.000089676026216,0.0002399882718039456
1327.051556016222,1327.051556016222,1.000018156672758,0.00023998144166713863
