time,time,flux,flux_err
1570.9199387514582,1570.9199387514582,0.9995805633187619,0.0004849704314865101
1570.9282721772336,1570.9282721772336,0.9990930651046286,0.00048383580024270994
1570.935911150976,1570.935911150976,0.9999453431959882,0.0004408270455661326
1570.9428556725459,1570.9428556725459,0.9990134351070807,0.00044001207640813756
1570.9498001940233,1570.9498001940233,0.9984481850743574,0.0004392118432286816
1570.956744715594,1570.956744715594,0.9970392275139766,0.00043831458526344055
1570.9636892371639,1570.9636892371639,0.9970305530912242,0.00043772952203396075
1570.9706337587336,1570.9706337587336,0.9989165374307302,0.0004370874687727974
1570.9775782803035,1570.9775782803035,0.9967856904373636,0.000435790327633546
1570.984522801874,1570.984522801874,0.9971288535033704,0.00043524147148815625
1570.9914673234448,1570.9914673234448,0.9984932816937061,0.0004347208617305696
1570.9984118450147,1570.9984118450147,0.9985220003473557,0.0004337608738395458
1571.0053563665845,1571.0053563665845,0.9986743661660871,0.0004330217430399746
1571.0123008881544,1571.0123008881544,0.9980248647007276,0.00043153988649443227
1571.0192454097246,1571.0192454097246,0.9977631989712602,0.00043007849900563637
1571.0261899312957,1571.0261899312957,0.9974383581521007,0.00042926733725273523
1571.0331344528654,1571.0331344528654,0.9967433117373039,0.0004277630575615245
1571.040078974435,1571.040078974435,0.9963460718919042,0.00042645385900944786
1571.0470234960983,1571.0470234960983,0.9986631079735575,0.0004274120482252353
1571.0539680176682,1571.0539680176682,1.0014506814218775,0.000429172677584401
1571.060912539239,1571.060912539239,1.0014549484691178,0.0004277735262451226
1571.0678570608095,1571.0678570608095,0.9998942151371908,0.00042636859511462294
1571.0748015823795,1571.0748015823795,1.0002645590940815,0.0004251934818515649
1571.0817461039492,1571.0817461039492,0.999571713656797,0.00042391453878499184
1571.0886906255193,1571.0886906255193,1.0006530818167578,0.00042277592281332263
1571.0956351470898,1571.0956351470898,0.9995283968085626,0.00042170464587517107
1571.1025796686604,1571.1025796686604,1.0001968078466945,0.00042081441242005957
1571.10952419023,1571.10952419023,0.9998135877317468,0.0004197974684008895
1571.1164687118003,1571.1164687118003,0.9984409950755413,0.0004192009060210333
1571.123413233277,1571.123413233277,1.0013762488000295,0.0004187012568777292
1571.1303577548474,1571.1303577548474,1.0004213408798424,0.00041784152929951894
1571.1373022763248,1571.1373022763248,1.0003555562332844,0.00041711109851407
1571.1442467978948,1571.1442467978948,1.0001152868862317,0.00041651411752696536
1571.151191319372,1571.151191319372,0.9999331239848084,0.00041590472763422727
1571.1581358408482,1571.1581358408482,0.9996986508973226,0.00041549191391437553
1571.1650803624186,1571.1650803624186,0.9988042299827138,0.0004147575741476004
1571.1720248838963,1571.1720248838963,0.9987595158092434,0.0004142521794770139
1571.1789694053732,1571.1789694053732,1.000695785379116,0.00041390424403444493
1571.1859139268502,1571.1859139268502,1.0013267274955135,0.0004135855002687891
1571.1928584482334,1571.1928584482334,1.0009919628191026,0.00041311672280327713
1571.1998029697102,1571.1998029697102,1.0005908766190887,0.0004125873691505975
1571.2067474912817,1571.2067474912817,0.9993688724718031,0.00041239590785177436
1571.2136920126652,1571.2136920126652,0.9998616761570108,0.0004118736884628874
1571.2206365340487,1571.2206365340487,1.0001256647635945,0.00041146186497126384
1571.2275810555254,1571.2275810555254,0.9994484022909071,0.00041104187013498567
1571.2345255767227,1571.2345255767227,0.9993547947800799,0.00041065989600286144
1571.2414700982008,1571.2414700982008,0.999393593122696,0.00041024337443572025
1571.2484146195848,1571.2484146195848,1.0002988625055451,0.00041016370179299433
1571.2553591408753,1571.2553591408753,1.0009138299569984,0.00040968210165408735
1571.2623036622588,1571.2623036622588,1.0001986501882936,0.0004094245757485544
1571.2692481835495,1571.2692481835495,1.0008000250141982,0.00040915134546566005
1571.2761927048402,1571.2761927048402,1.0003447990024783,0.000408554791480349
1571.2831372261317,1571.2831372261317,0.9983951920176691,0.00040802450003353096
1571.2900817474222,1571.2900817474222,0.9998930657723026,0.00040764875348435465
1571.2970262686197,1571.2970262686197,0.999804478762892,0.0004071688666851642
1571.3039707899102,1571.3039707899102,1.001082063118873,0.0004071290993592037
1571.3109153111077,1571.3109153111077,0.9998420052797108,0.00040633021051526537
1571.317859832306,1571.317859832306,0.999165119080174,0.0004058891766120779
1571.3248043535036,1571.3248043535036,1.0005279875690662,0.00040537510816212994
1571.3317488746081,1571.3317488746081,0.9996155337756308,0.000404766390272739
1571.338693395805,1571.338693395805,1.0001028471267983,0.0004040817357688172
1571.3456379169095,1571.3456379169095,1.0004499329103964,0.00040362487050427576
1571.3525824380145,1571.3525824380145,0.9994143851764316,0.00040300060764453396
1571.3595269591192,1571.3595269591192,1.0004453783212643,0.0004026577079584831
1571.3664714802237,1571.3664714802237,1.0004528521804064,0.000402102088523782
1571.3734160012348,1571.3734160012348,0.999045225215006,0.0004015065181536717
1571.3803605222456,1571.3803605222456,0.9999163010890122,0.000401252915655259
1571.3873050432571,1571.3873050432571,1.0007561137791767,0.0004007710300204197
1571.394249564176,1571.394249564176,0.9998429453818763,0.00040014881672859927
1571.4011940852802,1571.4011940852802,0.9998679714179989,0.0003997920829063211
1571.4081386061052,1571.4081386061052,1.0001058402824872,0.0003992996949253412
1571.415083127023,1571.415083127023,1.0001639030204534,0.0003989557483388696
1571.4220276480341,1571.4220276480341,1.0002304749549307,0.00039853922635824796
1571.4289721687667,1571.4289721687667,0.9992017015009873,0.0003982219575612067
1571.4359166896852,1571.4359166896852,1.0001666792392958,0.0003980866941114715
1571.44286121051,1571.44286121051,1.0009064264649474,0.0003978926144281505
1571.449805731149,1571.449805731149,0.9995517472843503,0.00039739531554478316
1571.45675025216,1571.45675025216,1.000322180893619,0.00039753206183952317
1571.4636947728916,1571.4636947728916,1.0003755392896072,0.00039730148804759834
1571.4706392935313,1571.4706392935313,0.9983775353971079,0.00039697525432301733
1571.47758381417,1571.47758381417,1.0000262897260799,0.0003968999479877967
1571.4845283348086,1571.4845283348086,0.9995961869454906,0.0003969080531966877
1571.4914728554475,1571.4914728554475,0.9992863832277535,0.0003968535362728372
1571.498417376086,1571.498417376086,1.0010653379771046,0.00039695050208259634
1571.505361896725,1571.505361896725,1.0011205272373869,0.0003968588428736204
1571.5123064173645,1571.5123064173645,1.0006153768730048,0.0003968525754395274
1571.5192509380026,1571.5192509380026,0.9993386053788184,0.00039662943577392824
1571.5261954582688,1571.5261954582688,1.000468056601682,0.00039656101795882207
1571.5331399788145,1571.5331399788145,0.9988381616635467,0.00039624974637035137
1571.5400844994529,1571.5400844994529,1.000612581483483,0.0003965012747388064
1571.5470290196272,1571.5470290196272,0.9991668755691924,0.0003959706846581432
1571.5539735402658,1571.5539735402658,1.0000233616940606,0.0003960972711216981
1571.5609180604386,1571.5609180604386,1.0004927270348531,0.0003960810414591847
1571.567862580891,1571.567862580891,1.0000591025125298,0.00039603877119663425
1571.5748071011571,1571.5748071011571,1.0000605070653787,0.0003958780959202143
1571.5817516214233,1571.5817516214233,0.999284041530743,0.0003957968543246471
1571.5886961416904,1571.5886961416904,0.9998222897755553,0.00039589537562165417
1571.5956406618632,1571.5956406618632,1.0010291882050968,0.0003955418064693531
1571.6025851821294,1571.6025851821294,1.000066484214984,0.0003958206353370246
1571.6095297022096,1571.6095297022096,1.0002252430094196,0.00039579039252107524
1571.6164742223823,1571.6164742223823,0.9992602591262132,0.0003955417837887256
1571.623418742463,1571.623418742463,0.9999358210115086,0.00039544996577433147
1571.6303632625436,1571.6303632625436,0.9996134818055452,0.0003954453185388315
1571.6373077825297,1571.6373077825297,0.9999963157919488,0.00039544972433247646
1571.6442523026096,1571.6442523026096,1.0005845381358414,0.0003954530257196374
1571.6511968225032,1571.6511968225032,1.0006157999398213,0.0003954204031199949
1571.658141342397,1571.658141342397,1.0000921918241825,0.00039537875181565476
1571.6650858623848,1571.6650858623848,0.9995348168583824,0.0003953831419156821
1571.6720303822783,1571.6720303822783,1.0002475988254793,0.0003953787384783744
1571.6789749019856,1571.6789749019856,1.0001400497266606,0.0003952760705402727
1571.6859194218787,1571.6859194218787,0.9996807714581932,0.0003952131220600843
1571.6928639415862,1571.6928639415862,0.9998739566485998,0.0003952414831706748
1571.699808461294,1571.699808461294,0.9998567060920127,0.0003950225430397569
1571.706752981002,1571.706752981002,0.9999002118625956,0.0003949801479265134
1571.7136975006163,1571.7136975006163,1.000836152728176,0.0003949200079936643
1571.7206420203233,1571.7206420203233,0.9992098028480324,0.00039466008308856014
1571.7275865398444,1571.7275865398444,1.0001340916856578,0.0003944913118947765
1571.7345310595517,1571.7345310595517,0.9991155455434877,0.0003942923020874366
1571.74147557898,1571.74147557898,0.9994492262249874,0.0003937918034298306
1571.7484200985018,1571.7484200985018,1.0011403609156342,0.0003937276567841856
1571.75536461793,1571.75536461793,1.000670377605627,0.0003935103799787546
1571.7623091372648,1571.7623091372648,0.9992763402610324,0.00039327739357696153
1571.7692536566924,1571.7692536566924,1.0001917348397906,0.00039279533027083416
1571.7761981760273,1571.7761981760273,0.9999145706329768,0.00039270915264033444
1571.7831426952694,1571.7831426952694,1.0011620005383777,0.0003923837299782885
1571.790087214605,1571.790087214605,0.9991964607558763,0.00039215678133303923
1571.7970317337536,1571.7970317337536,1.0002909344727993,0.00039188559674441383
1571.8039762529947,1571.8039762529947,0.9990854504923945,0.0003915500064690182
1571.8109207720504,1571.8109207720504,0.9999330909771016,0.0003913419644684805
1571.8178652911986,1571.8178652911986,1.0008358704222349,0.0003915109316733372
1571.8248098102554,1571.8248098102554,0.9997638699632306,0.00039097837866187556
1571.8317543293108,1571.8317543293108,1.0001456341014834,0.00039104461027921584
1571.838698848366,1571.838698848366,0.999216529322928,0.00039051389571278177
1571.845643367235,1571.845643367235,1.0004092237702278,0.00039050024456116397
1571.852587886197,1571.852587886197,1.0005146236380003,0.00039061443821107903
1571.8595324049734,1571.8595324049734,0.9996977487822829,0.00039042929997704274
1571.8664769239367,1571.8664769239367,1.00112404732461,0.00039019838625865074
1571.8734214426195,1571.8734214426195,0.9988040312696945,0.0003900059733152266
1571.8803659613955,1571.8803659613955,1.0001649188423123,0.0003899896983356664
1571.8873104801712,1571.8873104801712,0.999318275834824,0.0003898892548898753
1571.8942549988542,1571.8942549988542,1.0000987872861753,0.00038992150565871634
1571.901199517351,1571.901199517351,0.9997452251691318,0.00038977364804273004
1571.9081440360346,1571.9081440360346,1.0004966760214955,0.0003900266222006666
1571.9150885545314,1571.9150885545314,1.0006037353409298,0.00038986488507274303
1571.922033073121,1571.922033073121,1.000222125300049,0.00038970825148293376
1571.9289775914315,1571.9289775914315,0.9994484135926944,0.00038953108561638587
1571.935922109835,1571.935922109835,0.9995961499032532,0.0003895968496200933
1571.9428666285175,1571.9428666285175,1.0000272724070989,0.00038958905746154244
1571.9498111468292,1571.9498111468292,0.999990280772597,0.00038973825229926984
1571.9567556651396,1571.9567556651396,0.9999803689104816,0.0003892511267307958
1571.9637001831702,1571.9637001831702,0.9999423843853433,0.00038939597966964777
1571.9706447012943,1571.9706447012943,1.0015019772417864,0.00038950507183055426
1571.9775892196044,1571.9775892196044,0.9996915589402455,0.0003891811196914374
1571.9845337377285,1571.9845337377285,1.000251000602849,0.0003890836378596065
1571.991478255761,1571.991478255761,0.9991938980930207,0.0003889183794793446
1571.9984227737918,1571.9984227737918,0.9990207397964015,0.00038896413795945923
1572.0053672918225,1572.0053672918225,0.9994445455115105,0.000388815207843141
1572.0123118097604,1572.0123118097604,1.000496871474318,0.00038886606235852527
1572.0192563276048,1572.0192563276048,0.9998187012179809,0.00038885619643621645
1572.0262008455427,1572.0262008455427,0.9993523655185509,0.00038859156204033504
1572.0331453633885,1572.0331453633885,1.000733251016764,0.0003885800667186136
1572.040089881047,1572.040089881047,1.0008100714750168,0.00038857970766047634
1572.0470343987984,1572.0470343987984,0.9992211771309689,0.00038821056115524434
1572.05397891655,1572.05397891655,0.9995520774350231,0.0003880946368116123
1572.060923434115,1572.060923434115,1.0002440943033746,0.00038829822330623394
1572.0678679517737,1572.0678679517737,0.9994237476965037,0.0003879655449775154
1572.0748124692468,1572.0748124692468,1.0005475789338338,0.0003876484964576645
1572.0817569868123,1572.0817569868123,1.0006940591196218,0.00038783187567254586
1572.0887015041912,1572.0887015041912,0.9986884631218647,0.0003874634162445743
1572.09564602157,1572.09564602157,1.0003679439906983,0.0003875728303599454
1572.1025905389492,1572.1025905389492,0.9997840351172345,0.0003871938070524834
1572.1095350562346,1572.1095350562346,1.0009155522635997,0.00038727947059805383
1572.1164795736152,1572.1164795736152,0.9998038524223553,0.000387045623735375
1572.1234240907147,1572.1234240907147,1.000494158804773,0.0003870185034536604
1572.130368607907,1572.130368607907,0.9999311995218936,0.00038710002255058117
1572.137313125007,1572.137313125007,0.9991607391359724,0.00038665486016248513
1572.1442576421996,1572.1442576421996,0.9993611747287361,0.0003868275881750764
1572.151202159113,1572.151202159113,1.0006040179912503,0.00038680602639693375
1572.1581466761204,1572.1581466761204,1.0000337395912178,0.0003865953912921801
1572.1650911930337,1572.1650911930337,1.0010336759741854,0.0003868633752579783
1572.1720357099473,1572.1720357099473,0.9996480504293173,0.0003866817964281449
1572.1789802266744,1572.1789802266744,0.9995204666415262,0.0003864131168157314
1572.1859247435875,1572.1859247435875,1.0001731536170535,0.0003865100009276983
1572.1928692602216,1572.1928692602216,0.9996168460179407,0.00038628307597377915
1572.199813776949,1572.199813776949,1.0001360376353472,0.00038620286178327445
1572.2067582936768,1572.2067582936768,0.9997567721474885,0.000386123396056707
1572.2137028102177,1572.2137028102177,0.999183724512692,0.00038619034755170103
1572.2206473267586,1572.2206473267586,1.000536825437234,0.0003860613275217713
1572.2275918432058,1572.2275918432058,0.9999493901121068,0.0003859556761261156
1572.2345363596537,1572.2345363596537,1.0015393760108267,0.00038615944465867735
1572.2414808761011,1572.2414808761011,0.9997950952046992,0.0003860222838016008
1572.248425392364,1572.248425392364,1.0002339699294096,0.0003858726589731839
1572.2553699087186,1572.2553699087186,0.9998062876422452,0.00038562450259643874
1572.2623144249796,1572.2623144249796,0.9986841031850856,0.00038549358419432653
1572.2692589411479,1572.2692589411479,1.0001426414402288,0.0003857083296314444
1572.2762034571301,1572.2762034571301,1.0000557658286335,0.0003854917277072158
1572.2831479734843,1572.2831479734843,0.99995817885567,0.00038542805637599263
1572.2900924895607,1572.2900924895607,0.9995453945509872,0.00038533803958928686
1572.2970370055427,1572.2970370055427,1.0011993235402816,0.00038532343473647276
1572.3039815215247,1572.3039815215247,1.000808298920705,0.0003852836919153931
1572.3109260371343,1572.3109260371343,0.9988618188804788,0.0003851621595237979
1572.317870553023,1572.317870553023,0.9998059326785189,0.00038503220353506803
1572.324815068912,1572.324815068912,1.0003065178936859,0.0003850009229955523
1572.331759584522,1572.331759584522,1.0000062060577481,0.0003848937927118239
1572.3387041002254,1572.3387041002254,1.0003742712221204,0.0003848968900855222
1572.345648615928,1572.345648615928,0.9992331058913001,0.00038447153993849864
1572.352593131444,1572.352593131444,0.9997713037414148,0.0003847183718561022
1572.3595376469607,1572.3595376469607,1.0006527951832052,0.0003846322454499927
1572.3664821624766,1572.3664821624766,1.000254155641096,0.00038438159402885577
1572.3734266779,1572.3734266779,0.999816549630044,0.0003841405555958421
1572.3803711933247,1572.3803711933247,0.9998179805342409,0.0003841656655669952
1572.3873157085613,1572.3873157085613,0.9995621805065964,0.00038404479884869325
1572.3942602238913,1572.3942602238913,0.9999159309358638,0.0003838123995791074
1572.4012047390354,1572.4012047390354,1.0002277333206557,0.00038374040757266744
1572.4081492541786,1572.4081492541786,1.0003771282957228,0.00038360311770538954
1572.4150937693228,1572.4150937693228,0.9996274626104693,0.0003832231759009098
1572.4220382843741,1572.4220382843741,1.0003546213346044,0.0003833491776953502
1572.428982799332,1572.428982799332,1.000568914934362,0.00038323834162540303
1572.4359273143832,1572.4359273143832,1.000711025012163,0.0003832635004402888
1572.4428718291542,1572.4428718291542,0.9989239526417618,0.000383032832057265
1572.4498163440185,1572.4498163440185,0.9992676599201481,0.00038307848942838304
1572.45676085879,1572.45676085879,1.0007198676747429,0.00038309685332024414
1572.4637053735612,1572.4637053735612,0.9986171929474855,0.0003829203869721166
1572.4706498882406,1572.4706498882406,1.0011757152648042,0.00038274135020820675
1572.4775944028256,1572.4775944028256,1.0001399084062097,0.000382725212504044
1572.4845389174104,1572.4845389174104,0.9995288396311673,0.00038271460931028184
1572.4914834319022,1572.4914834319022,1.0009359833877354,0.00038268124831451647
1572.498427946394,1572.498427946394,1.0000277120640075,0.00038254705623741263
1572.5053724607928,1572.5053724607928,0.9985627376955438,0.0003824403160125915
1572.512316975099,1572.512316975099,0.9996524069312664,0.00038231607209169205
1572.5192614893122,1572.5192614893122,1.0010798897104056,0.0003824903329702446
1572.526206003618,1572.526206003618,0.9998418924059065,0.0003821616349587167
1572.5331505178303,1572.5331505178303,0.9999727789630868,0.0003823943565654822
1572.5400950319495,1572.5400950319495,1.0001981862414344,0.00038234626085832034
1572.5470395459756,1572.5470395459756,1.0004520098497847,0.0003825101836218238
1572.553984060095,1572.553984060095,1.0008460223148417,0.0003824202004485777
1572.5609285739363,1572.5609285739363,0.9995707881009185,0.0003823012554288533
1572.5678730878694,1572.5678730878694,1.0001226240280443,0.00038234538365434855
1572.5748176016161,1572.5748176016161,0.9994523989467655,0.00038228352747986895
1572.5817621156427,1572.5817621156427,0.9992370967664073,0.0003825146634127459
1572.588706629296,1572.588706629296,0.9992976924246438,0.0003825181320507044
1572.5956511429497,1572.5956511429497,0.9997463436352408,0.00038232368654270057
1572.6025956566036,1572.6025956566036,1.0003606719421227,0.0003826131437441825
1572.6114846339883,1572.6114846339883,1.0011718888408023,0.0003828586458314361
1572.6262070024682,1572.6262070024682,1.0004065893730183,0.00038256227090777237
1572.6331515157497,1572.6331515157497,0.9993814780196134,0.00038245802493766057
1572.6400960290307,1572.6400960290307,1.001166109394181,0.00038276056329856676
1572.6470405423115,1572.6470405423115,0.9994876721793553,0.0003826760188159764
1572.6539850555007,1572.6539850555007,0.9993445571826467,0.0003828008350247825
1572.6609295686894,1572.6609295686894,0.9993364158456561,0.0003827062479600147
1572.6678740817838,1572.6678740817838,0.9978449443890206,0.00038246868771043955
1572.6748185946926,1572.6748185946926,0.9991556064893347,0.00038254246049717233
1572.6817631077872,1572.6817631077872,0.999151721954499,0.00038249719257109024
