time,time,flux,flux_err
1385.9577208571775,1385.9577208571775,1.0000548467078982,0.004449470459263524
1385.9660541749652,1385.9660541749652,0.9988302110135926,0.004452267924035519
1385.9736930493314,1385.9736930493314,1.0020870660950791,0.004067917044709901
1385.980637480432,1385.980637480432,1.0016118509953402,0.004068947398408731
1385.9875819115337,1385.9875819115337,1.0038612083914953,0.004070789507258315
1385.9945263426346,1385.9945263426346,0.9966197416278815,0.004070491259242348
1386.001470773735,1386.001470773735,0.9996397568516248,0.004072226362424103
1386.0084152045574,1386.0084152045574,0.995329099736146,0.004068752805034343
1386.0153596353791,1386.0153596353791,0.9995918763678361,0.004072029881802067
1386.022304066014,1386.022304066014,1.000019905519856,0.004072361799246424
1386.0292484965564,1386.0292484965564,1.0024518135301226,0.004069972346233288
1386.0361929270994,1386.0361929270994,0.9992122716535781,0.004067844061613246
1386.0431373573615,1386.0431373573615,0.999629478393104,0.004065593441125139
1386.050081787718,1386.050081787718,0.99037214064632,0.004061283219717173
1386.057026217888,1386.057026217888,1.0051913641564987,0.004067159780582673
1386.0639706479644,1386.0639706479644,1.0052289363340887,0.0040659448400694066
1386.0709150778544,1386.0709150778544,1.003618772943443,0.004067328470223048
1386.0778595078386,1386.0778595078386,1.0035880192770965,0.004064755765931889
1386.0848039377286,1386.0848039377286,1.0022646559040154,0.0040635889730624205
1386.0917483674325,1386.0917483674325,1.0020993718786086,0.004065908387168216
1386.098692797044,1386.098692797044,0.9955206284736506,0.004058692315337649
1386.1056372265616,1386.1056372265616,0.9922156071241262,0.004052092425711784
1386.1125816559857,1386.1125816559857,0.9898310765908203,0.0040481946362726775
1386.1195260853178,1386.1195260853178,1.0040837666535782,0.004050818266362068
1386.1264705145563,1386.1264705145563,1.0028798204485647,0.004043000699425292
1386.1334149437012,1386.1334149437012,0.999556243527915,0.004032250330818011
1386.140359372847,1386.140359372847,0.9991794787040504,0.004021967002346761
1386.1473038017132,1386.1473038017132,0.9967149292493124,0.004012984829493198
1386.1542482304853,1386.1542482304853,1.0007273648128892,0.004005243087729836
1386.1611926592584,1386.1611926592584,1.0067553221717918,0.00399633658553346
1386.1681370880315,1386.1681370880315,1.0017049248008383,0.003989222756013366
1386.1750815168039,1386.1750815168039,0.994844896060217,0.0039811533804775855
1386.1820259452038,1386.1820259452038,1.0104570703423172,0.0039849024349170965
1386.1889703736047,1386.1889703736047,0.99921064104048,0.003979573607551318
1386.1959148020046,1386.1959148020046,0.9983930059862324,0.003978767459925801
1386.2028592302183,1386.2028592302183,0.9933516416237065,0.00397925541805655
1386.2098036583398,1386.2098036583398,0.996432907435833,0.003989069145871599
1386.2167480863677,1386.2167480863677,1.004785549776947,0.003997493939253466
1386.223692514301,1386.223692514301,1.0035619286609672,0.003999600315518151
1386.2306369421435,1386.2306369421435,0.9993884435882834,0.004002034791337056
1386.2375813699853,1386.2375813699853,1.0018645768501604,0.004009435136066277
1386.2445257976397,1386.2445257976397,0.9936329489358517,0.004014187851974598
1386.2514702252952,1386.2514702252952,0.9945214542672991,0.004019782078300449
1386.2584146526713,1386.2584146526713,0.9968085917927063,0.004030562476148765
1386.26535908014,1386.26535908014,0.9974725941086804,0.004039252058896274
1386.2723035073295,1386.2723035073295,1.0011747298886664,0.004052178395996931
1386.2792479346126,1386.2792479346126,1.0092683813636758,0.004064553302933815
1386.2861923617088,1386.2861923617088,1.1022657343073812,0.004104807491059461
1386.2931367888045,1386.2931367888045,1.0255712181235612,0.004008804025897297
1386.3000812157154,1386.3000812157154,0.9932970438545891,0.004007438788884374
1386.3070256425328,1386.3070256425328,0.9965171060421861,0.004023238900083743
1386.3139700693487,1386.3139700693487,0.9981462800285549,0.004037846024945715
1386.3209144958869,1386.3209144958869,0.991435442033729,0.0040497897053080305
1386.3278589225179,1386.3278589225179,1.0040968488113347,0.0040642896701458524
1386.3348033492407,1386.3348033492407,0.9989529057969971,0.00407239852525438
1386.3417477753135,1386.3417477753135,0.9915470305613724,0.004077701522857589
1386.3486922016652,1386.3486922016652,1.0065110758468787,0.004087551878321423
1386.3556366280163,1386.3556366280163,1.0069609066690255,0.004096131120738719
1386.362581054088,1386.362581054088,1.0029182946806885,0.004095274432754054
1386.3700810340897,1386.3700810340897,1.001671980821472,0.004095933424933839
1386.3778587911486,1386.3778587911486,0.999576366111134,0.004096901952969371
1386.384803217034,1386.384803217034,0.9999559319012125,0.004092227634085185
1386.3917476428269,1386.3917476428269,0.9948984548406068,0.004085513589449736
1386.3986920684335,1386.3986920684335,0.9922078809764535,0.004080140079388782
1386.4056364939456,1386.4056364939456,0.9945412756986978,0.004073702559329105
1386.412580919459,1386.412580919459,0.992347148770768,0.004064304586768356
1386.4195253447867,1386.4195253447867,1.001339057979009,0.004060329206175092
1386.4264697700196,1386.4264697700196,0.9997833975183956,0.004050419338458489
1386.433414195347,1386.433414195347,1.0051635940155748,0.0040381320598702
1386.4403586203948,1386.4403586203948,1.0041575582005098,0.004028129524858972
1386.4473030453487,1386.4473030453487,1.003017083076792,0.004019968380937807
1386.4542474703962,1386.4542474703962,1.0030096140532325,0.004011749812137233
1386.4611918951648,1386.4611918951648,0.9998983708495729,0.004003284516243277
1386.468136319933,1386.468136319933,1.0000998416963565,0.003998066715617721
1386.4750807446076,1386.4750807446076,1.0015422615243184,0.003999935346776823
1386.4820251691895,1386.4820251691895,1.000149842747562,0.00399708637173312
1386.4889695935856,1386.4889695935856,0.9998553210146259,0.003998294723000445
1386.4959140180733,1386.4959140180733,0.9949931904898716,0.0039983111454179755
1386.5028584421898,1386.5028584421898,0.9978719368473621,0.0040003480360237525
1386.5098028663065,1386.5098028663065,0.9968928103390307,0.004005195370297668
1386.5167472905155,1386.5167472905155,1.0037946108541216,0.004012709925875725
1386.523691714538,1386.523691714538,0.9982330104684161,0.004013754292341882
1386.5306361386552,1386.5306361386552,1.005754803892433,0.004018091756771256
1386.5375805623985,1386.5375805623985,1.0037052835461302,0.004023402272484341
1386.5445249862348,1386.5445249862348,1.0018827535994799,0.004027028760469708
1386.5514694098856,1386.5514694098856,0.9997588859625942,0.004027679824387586
1386.5584138334434,1386.5584138334434,0.9910077606122736,0.004027921700847967
1386.5656360338714,1386.5656360338714,0.9992020995698642,0.004031896121214519
1386.5736915651019,1386.5736915651019,0.9983250878185057,0.004034959629740356
1386.5806359883802,1386.5806359883802,1.000659338540196,0.004042046324880043
1386.5875804115647,1386.5875804115647,0.9973468948245994,0.004041112874218208
1386.594524834656,1386.594524834656,1.0040011586828683,0.004046496192939028
1386.601469257748,1386.601469257748,0.9978883846232595,0.004047893020582621
1386.608413680747,1386.608413680747,1.001654521049781,0.004049539575497659
1386.6153581034655,1386.6153581034655,1.0028643298630864,0.004049800692542678
1386.6223025262784,1386.6223025262784,1.0041804355474475,0.00404713709011387
1386.6292469489977,1386.6292469489977,0.9979348938601691,0.00404625520597341
1386.63619137153,1386.63619137153,0.9992010517073417,0.004051412198659752
1386.6431357940633,1386.6431357940633,0.9910582680392637,0.004055208977254072
1386.6500802164105,1386.6500802164105,0.998479326679027,0.004066624593664992
1386.6570246387564,1386.6570246387564,1.0062181096710983,0.004077530417472665
1386.6639690610104,1386.6639690610104,1.0074076403480408,0.004086856022585303
1386.6709134830776,1386.6709134830776,1.0066118360718712,0.004097333548179501
1386.6778579052384,1386.6778579052384,1.0066561574872135,0.004100135289637058
1386.6848023270254,1386.6848023270254,0.99934586138312,0.004103600902871956
1386.6917467490932,1386.6917467490932,0.989703199616528,0.004103844936795731
1386.6986911709746,1386.6986911709746,0.9928622053964027,0.0041024659373315705
1386.705635592389,1386.705635592389,0.9855546765380782,0.0040990217236357976
1386.712580014177,1386.712580014177,0.9943857196930008,0.004100554568653271
1386.7195244356863,1386.7195244356863,1.002016332221086,0.0041003264580910664
1386.7264688571945,1386.7264688571945,1.0054421766016421,0.004094062412613659
1386.7334132785163,1386.7334132785163,1.0005319810718993,0.004082780874837062
1386.7403576997458,1386.7403576997458,1.0074641580271197,0.00407239239354428
1386.747302120975,1386.747302120975,0.9949101509656035,0.004055103635471102
1386.7542465420172,1386.7542465420172,1.003832058047209,0.004042422078496857
1386.7611909630607,1386.7611909630607,0.9989577662457177,0.004027221844755273
1386.7681353840105,1386.7681353840105,1.0007125572588673,0.004015835615283522
1386.7753575816453,1386.7753575816453,0.9991753510018071,0.004007032324120011
1386.7834131097084,1386.7834131097084,1.0002259230513963,0.004001332390221284
1386.7903575303787,1386.7903575303787,0.9998948907489258,0.003999482797298027
1386.7973019508631,1386.7973019508631,0.997810997712002,0.0039968676529509185
1386.8042463713466,1386.8042463713466,1.0016276810066007,0.003997336881938219
1386.8111907917378,1386.8111907917378,1.0034403003506158,0.004002968192460613
1386.818135212036,1386.818135212036,1.003441734796066,0.004004742105252951
1386.8250796322395,1386.8250796322395,1.0036817283700294,0.00401166437257044
1386.8320240523517,1386.8320240523517,1.0049259662636696,0.004017385330715097
1386.8389684723704,1386.8389684723704,0.9954051286160835,0.004024512465712094
1386.8459128922952,1386.8459128922952,0.994680589457808,0.004028876463742054
1386.8528573121273,1386.8528573121273,0.9966730678377038,0.004035541091307503
1386.8598017318664,1386.8598017318664,0.9996170093633261,0.00404337313048862
1386.866746151699,1386.866746151699,1.0004363371084235,0.004047506322334037
1386.8736905712508,1386.8736905712508,0.9962722241471635,0.004048345534748967
1386.8806349907109,1386.8806349907109,1.0005576610393265,0.004048433846335301
1386.887579410171,1386.887579410171,0.991643490327917,0.004046125358323366
1386.8945238296296,1386.8945238296296,1.0041233360936925,0.004051340363557682
1386.9014682486236,1386.9014682486236,1.000546955250766,0.004045530644755857
1386.9084126678977,1386.9084126678977,1.0075143594936506,0.0040437358959374975
1386.9153570869846,1386.9153570869846,0.9968051292242469,0.004033652377649965
1386.9223015059779,1386.9223015059779,1.0012188725277151,0.004034118967198327
1386.929245924879,1386.929245924879,1.0028337945603605,0.004032346181463115
1386.936190343687,1386.936190343687,1.0003864173710038,0.004031843366362664
1386.943134762401,1386.943134762401,0.9933039137583022,0.0040324202253441835
1386.9500791811158,1386.9500791811158,0.9968315691804545,0.004037232660118131
1386.9570235996441,1386.9570235996441,1.0058225494805946,0.0040491557714876485
1386.9639680180794,1386.9639680180794,1.0074095825555616,0.004062512718572138
1386.970912436607,1386.970912436607,1.0086583690538706,0.004072115501909809
1386.9778568548566,1386.9778568548566,1.003692428388975,0.004075705813461145
1386.9856346032548,1386.9856346032548,0.9968784856081319,0.004079195228680003
1386.9931345747802,1386.9931345747802,0.9953561296540056,0.00408386677638658
1387.0000789928429,1387.0000789928429,0.9883338032347229,0.004085441148536506
1387.0070234107195,1387.0070234107195,0.9939687059229432,0.004086951745469065
1387.0139678286885,1387.0139678286885,0.998968666105305,0.004088599071710275
1387.0209122463789,1387.0209122463789,0.9985012835532698,0.00408757346784977
1387.0278566640693,1387.0278566640693,0.9983043069836025,0.004085674448138053
1387.0348010816663,1387.0348010816663,1.0054205350288086,0.004080562151086513
1387.0417454991693,1387.0417454991693,1.0038450078617127,0.004071936267519798
1387.048689916487,1387.048689916487,0.9989095831536577,0.004063064847125941
1387.0556343340847,1387.0556343340847,1.002334310051846,0.00405808947650859
1387.0625787512158,1387.0625787512158,1.004467903440564,0.004050158860208345
1387.0695231683467,1387.0695231683467,1.0019638398701933,0.004042600359037777
1387.0764675854784,1387.0764675854784,0.9994998311515755,0.004038160604057877
1387.08341200261,1387.08341200261,0.9984120935435937,0.0040338713470122415
1387.0903564192745,1387.0903564192745,0.9957974989243814,0.004029609468040202
1387.0973008363133,1387.0973008363133,0.9982833698024305,0.004029229885230089
1387.104245252979,1387.104245252979,0.9948840363763811,0.004030364522941908
1387.1111896696448,1387.1111896696448,0.9994739316743864,0.00403213796623314
1387.1181340862165,1387.1181340862165,1.0083540623956846,0.004036782386273847
1387.1250785027896,1387.1250785027896,1.005906929272402,0.004036144670508556
1387.132022919083,1387.132022919083,0.9986885507013499,0.004035921116463668
1387.1389673354686,1387.1389673354686,1.002412717231926,0.004039099899485842
1387.1459117517618,1387.1459117517618,0.9993318994603186,0.004038938570897051
1387.1528561678692,1387.1528561678692,0.9945108939680504,0.0040376106120445536
1387.159800583976,1387.159800583976,0.9936976033457319,0.004042679059106312
1387.166744999896,1387.166744999896,1.0037097781383184,0.0040476661830299455
1387.17368941591,1387.17368941591,1.0022993864156948,0.0040492195225461615
1387.1806338316446,1387.1806338316446,1.0062628279682932,0.004058554657451919
1387.1875782473785,1387.1875782473785,0.9942791424321935,0.004054219532244944
1387.1945226630196,1387.1945226630196,0.9988180600042359,0.004055572221498228
1387.2014670786612,1387.2014670786612,0.9924736184358492,0.004051619315057581
1387.208411494023,1387.208411494023,1.0081847760901241,0.004055872052411252
1387.2153559095702,1387.2153559095702,1.0006385593672829,0.004050192474167745
1387.2223003248394,1387.2223003248394,0.9980658544695599,0.004046787614115605
1387.2292447400155,1387.2292447400155,1.0004877872128897,0.004048824271679416
1387.2361891552837,1387.2361891552837,0.9926184392283453,0.004046113121085558
1387.24313357018,1387.24313357018,0.9984957492612831,0.00404981436421798
1387.2500779853553,1387.2500779853553,1.0099667757981394,0.004058084072862422
1387.2570224001588,1387.2570224001588,1.0046069800517377,0.004057812785233314
1387.263966814961,1387.263966814961,1.0005810770537757,0.004060309522851091
1387.2709112297644,1387.2709112297644,1.0014888237493333,0.004063686446548901
1387.2778556442881,1387.2778556442881,1.0032628665261045,0.004064885018963309
1387.2848000589047,1387.2848000589047,0.9996853212699154,0.004065581271923567
1387.2917444733346,1387.2917444733346,0.991491969064992,0.004064189400609826
1387.2986888877656,1387.2986888877656,0.9914244403333627,0.004063991937928206
1387.30563330201,1387.30563330201,0.9954298292890018,0.004068071572945241
1387.3134110459366,1387.3134110459366,1.0014424615772932,0.004071789208941955
1387.3220221194545,1387.3220221194545,1.008607927704365,0.004071798920582972
1387.329244310105,1387.329244310105,1.0000243859075397,0.004065008150333575
1387.3370220536597,1387.3370220536597,1.0017833432755352,0.004061513288276903
1387.344522020622,1387.344522020622,0.9983895960719582,0.004056597595404962
1387.3517442109003,1387.3517442109003,0.9977785568406446,0.004053888823770848
1387.359799730768,1387.359799730768,1.0046608538998776,0.004047735577206405
1387.3667441443597,1387.3667441443597,0.996434308113118,0.00404243193988653
1387.3736885578592,1387.3736885578592,0.9996124576894682,0.004040316549660665
1387.3806329712654,1387.3806329712654,1.0005054173067702,0.004038953602096021
1387.3875773845778,1387.3875773845778,1.0028040356647197,0.004039050357974158
1387.3945217977976,1387.3945217977976,0.9949630861726151,0.004034889412195896
1387.4014662110176,1387.4014662110176,0.9933556793073841,0.004037683071989825
1387.4084106240514,1387.4084106240514,1.0048616221880706,0.004049407964901385
1387.4153550369906,1387.4153550369906,1.0118918719165086,0.004056128961331632
1387.4222994499314,1387.4222994499314,1.0033185524880037,0.004057707281340283
1387.4292438627792,1387.4292438627792,1.0034394886056517,0.004065196697466553
1387.436188275533,1387.436188275533,1.0029489639249534,0.004065864093456764
1387.4431326880076,1387.4431326880076,0.9959905742552934,0.004064293971382022
1387.450077100948,1387.450077100948,0.9859672514145361,0.004065203748931086
1387.4570215134231,1387.4570215134231,0.9905306858915248,0.004065366914234412
1387.4639659257107,1387.4639659257107,0.9931127465471311,0.004067066974039248
1387.4709103379064,1387.4709103379064,1.006053899829537,0.004071487957352949
1387.477854750288,1387.477854750288,1.0090711720381407,0.004071715295014713
1387.4847991623906,1387.4847991623906,1.0014910269603912,0.004065250263270805
1387.4917435744917,1387.4917435744917,1.0017655223825777,0.0040591843927533944
1387.4986879865014,1387.4986879865014,1.0016124972216363,0.0040555495614390865
1387.5056323984177,1387.5056323984177,1.00197082273661,0.004048766600902797
1387.51257681024,1387.51257681024,0.998195588188247,0.004041500023007646
1387.5195212219692,1387.5195212219692,0.9986832675208979,0.0040374768652944575
1387.5264656336992,1387.5264656336992,1.0003007742396801,0.004036378221550554
1387.5334100452433,1387.5334100452433,0.9999057835430201,0.004037789942815522
1387.540354456786,1387.540354456786,0.9905412664112816,0.004035347616054829
1387.5472988682363,1387.5472988682363,1.0009980227661632,0.004043965192607822
1387.5542432795937,1387.5542432795937,1.0074395905293696,0.004049446163403257
1387.5611876908579,1387.5611876908579,1.006441989440558,0.004057109776976507
1387.5681321019345,1387.5681321019345,1.0115801404756166,0.004062298235655472
1387.575076513106,1387.575076513106,1.002271443919465,0.0040620346907413755
1387.5820209241838,1387.5820209241838,1.0094010282004882,0.004068561860380115
1387.5889653350755,1387.5889653350755,0.9965438964308797,0.004063909714016071
1387.595909745873,1387.595909745873,0.9910712351607529,0.004059036606115741
1387.6028541566716,1387.6028541566716,0.9884112399806092,0.00405602989653101
1387.6097985673773,1387.6097985673773,0.9922330517009357,0.004051998736556569
1387.616742977989,1387.616742977989,0.9961177648560613,0.00405004719266085
1387.6236873885073,1387.6236873885073,1.0032569115986782,0.004045060172223211
1387.6306317988408,1387.6306317988408,1.00282071189815,0.00403957729104703
1387.63757620936,1387.63757620936,1.0012227908890736,0.004026979963288721
1387.6445206195056,1387.6445206195056,1.0059304961114441,0.004021429260088865
1387.6514650296522,1387.6514650296522,1.0089189950264812,0.004016661220902407
1387.6584094397988,1387.6584094397988,0.9997262920321248,0.004008835945090787
1387.6653538499454,1387.6653538499454,1.0064048462929205,0.00400749725891702
1387.672298259905,1387.672298259905,0.99971780507016,0.00400557349360027
1387.6792426697723,1387.6792426697723,0.9953525101164994,0.004006477417530416
1387.6861870795462,1387.6861870795462,0.998962707814794,0.004010401891888831
1387.6931314892267,1387.6931314892267,0.9920610945122069,0.004011780082505101
1387.7000758989072,1387.7000758989072,0.999789406201986,0.00401899019693728
1387.7070203084022,1387.7070203084022,0.9950305555894685,0.004022317800673397
1387.7139647178967,1387.7139647178967,0.9958205467447602,0.004030806932231173
1387.7209091272045,1387.7209091272045,1.000470942173268,0.004042434197306187
1387.7278535366056,1387.7278535366056,1.0017628789502053,0.004052262302653263
1387.7347979458214,1387.7347979458214,1.005068408876269,0.004063376110666902
1387.7417423549437,1387.7417423549437,0.9990270968627801,0.004074827372996484
1387.7486867640646,1387.7486867640646,1.0020297522317283,0.004089038946485545
1387.7736866359353,1387.7736866359353,1.0086948229916932,0.004110696050916187
