time,time,flux,flux_err
1491.6404051817942,1491.6404051817942,0.9995344977145404,0.0005245092970525445
1491.6487388449134,1491.6487388449134,1.0002109912577277,0.0005239259685993323
1491.6563780359845,1491.6563780359845,0.9998619394198813,0.00047783709545729544
1491.663322755163,1491.663322755163,1.0003799430326357,0.00047750683532795204
1491.6702674743415,1491.6702674743415,1.0006256139792593,0.000477157592783331
1491.6772121935194,1491.6772121935194,1.000011714673026,0.00047689848162965197
1491.6841569126045,1491.6841569126045,0.9997597297631463,0.0004760389809561088
1491.6911016316894,1491.6911016316894,0.9997564075590111,0.0004759276985816715
1491.6980463507746,1491.6980463507746,1.0001628319403806,0.0004755110288395262
1491.7049910697665,1491.7049910697665,0.9997446985243045,0.00047538330251805164
1491.7119357888516,1491.7119357888516,1.0002841868921828,0.0004753216485111544
1491.7188805078436,1491.7188805078436,1.0000162114655855,0.0004746950523347112
1491.7258252266495,1491.7258252266495,0.9998841418467375,0.00047426463045247463
1491.7327699456412,1491.7327699456412,0.9998376951419379,0.0004738366209316717
1491.739714664447,1491.739714664447,0.9999046067004921,0.0004734071668588838
1491.7466593833456,1491.7466593833456,1.0004107901947066,0.0004734331890443334
1491.7536041019653,1491.7536041019653,0.9998407007745023,0.00047361052308278543
1491.7605488206777,1491.7605488206777,1.0000514292091438,0.00047303938211473815
1491.7674935396694,1491.7674935396694,0.9997759393944172,0.0004725460534617397
1491.774438258289,1491.774438258289,1.0006205871354257,0.0004722607700307921
1491.7813829769082,1491.7813829769082,0.9997170238487533,0.00047194797438585766
1491.788327695062,1491.788327695062,0.9998454792131326,0.00047162423575320127
1491.7952724136815,1491.7952724136815,1.0000822209907656,0.000471229926683929
1491.8022171323012,1491.8022171323012,1.00019521264667,0.00047133678430615956
1491.8091618504545,1491.8091618504545,0.9994527678770806,0.0004709397924545362
1491.8161065688878,1491.8161065688878,1.0003250616546768,0.0004705672681513006
1491.8230512871346,1491.8230512871346,1.0000381324129939,0.00047047689850575623
1491.8299960053814,1491.8299960053814,0.9997888036660794,0.0004700865389073635
1491.836940723442,1491.836940723442,1.0000583219366352,0.00046985481271036067
1491.8438854415024,1491.8438854415024,1.0002084813486938,0.00046966971188407006
1491.8508301595627,1491.8508301595627,0.9997381551989516,0.00046921423679292356
1491.8577748775308,1491.8577748775308,1.000105293626932,0.00046897300781823437
1491.8647195954052,1491.8647195954052,1.0002780738463124,0.0004686324123554275
1491.8716643131863,1491.8716643131863,0.999691078608653,0.0004687986664060304
1491.8786090310607,1491.8786090310607,1.0002947546119003,0.0004682032995772291
1491.8855537487489,1491.8855537487489,1.0000523749147863,0.00046828728494571385
1491.892498466344,1491.892498466344,0.9997422907515157,0.0004681659259098186
1491.8994431838453,1491.8994431838453,1.0000522306013804,0.000467609188577318
1491.9063879014404,1491.9063879014404,0.9996586932877676,0.00046765471145780073
1491.9133326186634,1491.9133326186634,1.0004214693356395,0.0004677565178530977
1491.9202773361644,1491.9202773361644,0.999837553268257,0.00046748668888559763
1491.9272220533871,1491.9272220533871,1.000062088372934,0.00046775875475898196
1491.9341667705164,1491.9341667705164,1.0001008360954897,0.00046698518122723624
1491.9411114876452,1491.9411114876452,1.000022374499538,0.000467314908540269
1491.9480562046817,1491.9480562046817,0.9997141396205567,0.0004670728455089637
1491.955000921625,1491.955000921625,1.0001649734766644,0.0004667122538172812
1491.9619456384746,1491.9619456384746,0.9998530077412505,0.0004667574694788072
1491.9688903553244,1491.9688903553244,0.9999469983702258,0.0004666742501655759
1491.975835071988,1491.975835071988,1.0002812617503107,0.00046679412127780375
1491.9827797885584,1491.9827797885584,1.0001352560706684,0.00046682304201272435
1491.989724505222,1491.989724505222,0.9994517626989057,0.00046665882144241556
1491.9966692215135,1491.9966692215135,0.9999417113011315,0.0004662713044230814
1492.0036139378046,1492.0036139378046,1.0002472332773886,0.00046676039244408454
1492.0105586541888,1492.0105586541888,0.9998007277319745,0.0004668304853616822
1492.0175033703867,1492.0175033703867,1.0005004610898145,0.0004663326520636487
1492.024448086678,1492.024448086678,0.9998730751424201,0.0004667160910497633
1492.0313928026894,1492.0313928026894,1.0000252096324274,0.0004666917445130163
1492.0383375187012,1492.0383375187012,1.000008655656238,0.00046680705786641193
1492.045282234527,1492.045282234527,1.0001884868275814,0.0004665524050961863
1492.0522269502587,1492.0522269502587,1.0001691480303994,0.0004670214851327459
1492.059171665991,1492.059171665991,0.999616131857089,0.00046690284045209946
1492.0661163816305,1492.0661163816305,0.9993821538155852,0.00046678188858908875
1492.0730610970832,1492.0730610970832,1.0006014270241124,0.0004665206807224903
1492.0800058125362,1492.0800058125362,1.0001353552193768,0.000466329975213081
1492.0869505278029,1492.0869505278029,0.9998880132263215,0.0004667724056484905
1492.0938952430693,1492.0938952430693,0.9998398856080726,0.00046677666575965044
1492.100839958243,1492.100839958243,0.9998301991164456,0.00046669968889377357
1492.10778467323,1492.10778467323,0.9997216730278993,0.00046660633513655875
1492.1147293882173,1492.1147293882173,1.0007193653018585,0.00046670984931008455
1492.1216741031114,1492.1216741031114,0.999977282973199,0.0004667525793109227
1492.1286188178194,1492.1286188178194,0.9998375305314239,0.000466435866061076
1492.135563532527,1492.135563532527,1.0003317847626616,0.0004661697299279836
1492.142508247049,1492.142508247049,0.9996204754010319,0.00046639020866920633
1492.1494529615707,1492.1494529615707,0.9993929258893468,0.0004662379965307585
1492.1563976759057,1492.1563976759057,1.0009731789887106,0.00046647577211447457
1492.163342390148,1492.163342390148,0.9998073046855618,0.0004667793097466685
1492.1702871045768,1492.1702871045768,0.9994301749100079,0.0004664718345426601
1492.1772318185394,1492.1772318185394,1.0005611487164618,0.00046648467715117826
1492.1841765325019,1492.1841765325019,0.9996335264651235,0.00046629574703643936
1492.1911212464647,1492.1911212464647,1.0002276073723357,0.0004668133180526936
1492.1980659602411,1492.1980659602411,1.0002013649900052,0.00046663474240968343
1492.2050106739246,1492.2050106739246,1.0002406778793964,0.00046664640463024145
1492.211955387515,1492.211955387515,0.9997754973051901,0.0004666268498766093
1492.2189001010122,1492.2189001010122,0.9999210822605035,0.00046691354932994927
1492.2258448143225,1492.2258448143225,0.9990807044718532,0.00046657828491121245
1492.2327895277267,1492.2327895277267,1.0002400221045993,0.00046656607958022334
1492.2397342409447,1492.2397342409447,1.0001121359160223,0.00046672994674828744
1492.2466789539758,1492.2466789539758,0.999741682856137,0.0004666616540267366
1492.2536236670073,1492.2536236670073,0.999942121210203,0.00046651239337144326
1492.2605683799459,1492.2605683799459,0.9996726422648388,0.00046674898567653216
1492.2675130926973,1492.2675130926973,1.0004921890025948,0.0004664870706116577
1492.2744578053566,1492.2744578053566,1.0001836727513185,0.00046656856899552344
1492.2814025179227,1492.2814025179227,1.0002000522266798,0.00046696970913951514
1492.2883472304882,1492.2883472304882,1.0001249374081103,0.0004667354550713705
1492.2952919427748,1492.2952919427748,1.0000275739353177,0.00046663952116797355
1492.3022366551545,1492.3022366551545,1.0002499141400887,0.0004665761486378823
1492.309181367255,1492.309181367255,0.9996920005902646,0.00046651798346427286
1492.3161260793545,1492.3161260793545,1.00019014574551,0.00046670838114980776
1492.3230707912687,1492.3230707912687,0.9999291684495939,0.00046643362545088063
1492.3300155031825,1492.3300155031825,0.9995089320982891,0.00046607918867326787
1492.336960215003,1492.336960215003,1.0001531228464784,0.00046644544258669506
1492.3439049266376,1492.3439049266376,1.001219803489331,0.0004667707306911636
1492.350849638179,1492.350849638179,1.0008599324026832,0.00046621866777339145
1492.3577943494406,1492.3577943494406,0.9989171099267125,0.0004661370712459705
1492.364739060889,1492.364739060889,1.0003260127354479,0.0004666383705750595
1492.371683772058,1492.371683772058,1.0000103587069142,0.00046643939795126414
1492.3786284832263,1492.3786284832263,0.9993192775845886,0.00046622195425076495
1492.385573194209,1492.385573194209,1.0002474416983032,0.0004664218736988676
1492.3925179050989,1492.3925179050989,1.0002689692356335,0.00046661923163896066
1492.399462615895,1492.399462615895,0.999865551468805,0.00046662414095279887
1492.406407326598,1492.406407326598,1.0000170133145434,0.00046650072105947706
1492.4133520372084,1492.4133520372084,0.9997905397314666,0.0004668947302886754
1492.4202967477247,1492.4202967477247,1.0002281847120997,0.00046653147615016276
1492.4272414579623,1492.4272414579623,0.9997512214264056,0.00046638950303171144
1492.434186168293,1492.434186168293,1.0003098038887885,0.00046655853160674474
1492.4411308785307,1492.4411308785307,0.9996502463098255,0.00046657282032819416
1492.4480755884892,1492.4480755884892,1.000535732490341,0.00046655719581304236
1492.4550202984472,1492.4550202984472,1.0000571675790426,0.0004665708959117048
1492.4619650082186,1492.4619650082186,0.9997682422157428,0.0004663705634290097
1492.4689097178975,1492.4689097178975,0.99967159174687,0.0004664949142117342
1492.4758544276694,1492.4758544276694,1.0001871001161868,0.0004663189249408353
1492.4827991369752,1492.4827991369752,0.9998207502522245,0.00046657790233025986
1492.4897438462817,1492.4897438462817,0.9993830189373691,0.00046629395019019275
1492.496688555588,1492.496688555588,1.0013999922393972,0.00046683327441723844
1492.503633264894,1492.503633264894,1.0004733880850964,0.00046653528424599595
1492.5105779740138,1492.5105779740138,0.9998460350002116,0.0004665402396073383
1492.5175226829474,1492.5175226829474,0.999986665937022,0.0004664451743423167
1492.524467391788,1492.524467391788,1.0000793825439813,0.0004665528730149572
1492.5314121005354,1492.5314121005354,0.9998988213886463,0.0004662747761038025
1492.5383568090963,1492.5383568090963,0.9997064974151038,0.0004664432203505798
1492.5453015176577,1492.5453015176577,1.000224762849362,0.000466379398045095
1492.5522462260321,1492.5522462260321,1.0008373512859254,0.00046644973324689985
1492.559190934314,1492.559190934314,0.9999757131699731,0.000466537315345466
1492.566135642503,1492.566135642503,0.9994318102021215,0.00046633948594750703
1492.573080350598,1492.573080350598,1.000149307754061,0.00046682292478649465
1492.5800250585073,1492.5800250585073,0.9991971059148428,0.00046654491911769823
1492.5869697663234,1492.5869697663234,0.9995896765484596,0.0004664050561515639
1492.5939144740457,1492.5939144740457,1.000357329974932,0.0004668265527957279
1492.6008591817695,1492.6008591817695,1.0002522695828946,0.0004667121056146736
1492.607803889213,1492.607803889213,1.0006609045797645,0.00046659243217545416
1492.6147485965635,1492.6147485965635,1.0003234257800782,0.0004666768509537803
1492.6216933040068,1492.6216933040068,0.9997421295857105,0.00046648702043073536
1492.6286380109848,1492.6286380109848,0.9993758882323462,0.0004666698324562946
1492.6355827179625,1492.6355827179625,0.9999921724516051,0.0004664587794526263
1492.6425274249402,1492.6425274249402,1.0002015964866888,0.00046683817096589
1492.6494721319184,1492.6494721319184,0.9991028805472937,0.0004665802371386409
1492.6564168387097,1492.6564168387097,1.0011811438430358,0.0004662709178285581
1492.6633615453152,1492.6633615453152,1.0000197750554936,0.00046664096537286595
1492.6703062518272,1492.6703062518272,0.9999896889662322,0.00046636732549655834
1492.6772509582465,1492.6772509582465,0.9998738896857106,0.00046645663114031034
1492.684195664479,1492.684195664479,0.9998056435564877,0.0004664910631269175
1492.691140370712,1492.691140370712,0.99930061539033,0.00046649828247087723
1492.6980850766654,1492.6980850766654,1.0005281290666148,0.0004665110596167559
1492.7050297827116,1492.7050297827116,1.0002150647432115,0.0004663827531601014
1492.711974488572,1492.711974488572,0.9999722118238781,0.0004662027299171379
1492.7189191942464,1492.7189191942464,1.0004072534111488,0.0004669063663380002
1492.725863899827,1492.725863899827,0.9996825279420548,0.0004668784605445851
1492.7328086052216,1492.7328086052216,1.0000767816908454,0.0004667317583461757
1492.7397533107096,1492.7397533107096,1.000215312770476,0.00046663881772142986
1492.7466980159174,1492.7466980159174,0.9995498011409086,0.0004663227915922423
1492.753642721126,1492.753642721126,0.9996676982093863,0.0004667258416834753
1492.7605874261485,1492.7605874261485,1.0001102293539628,0.00046669631279253385
1492.7675321309846,1492.7675321309846,1.0004932591908438,0.0004665839426261762
1492.7744768360062,1492.7744768360062,0.9995646218541164,0.00046669146863872476
1492.7814215407493,1492.7814215407493,0.9999426581765091,0.00046617781059614567
1492.7883662453053,1492.7883662453053,1.0002803623902463,0.0004669131836656625
1492.7953109495822,1492.7953109495822,0.9996686135833123,0.00046647630288326053
1492.802255654046,1492.802255654046,1.0002503839168435,0.0004664906338753006
1492.8092003583226,1492.8092003583226,1.0003144441701088,0.00046700420051155775
1492.8161450624134,1492.8161450624134,1.0003553393029163,0.00046689137196498267
1492.8230897665044,1492.8230897665044,1.0004494585015273,0.00046677851358803933
1492.8300344703157,1492.8300344703157,0.9994911810093287,0.00046679436438744614
1492.8369791741268,1492.8369791741268,0.9997515961079004,0.00046665656964015105
1492.843923877845,1492.843923877845,0.9997519342506147,0.0004665571984622693
1492.850868581284,1492.850868581284,0.9992603946904813,0.0004667722368933354
1492.8578132848158,1492.8578132848158,0.999510583111576,0.00046699836969712083
1492.8647579881615,1492.8647579881615,1.000370577187439,0.00046662079092490565
1492.8717026914142,1492.8717026914142,1.0000267871907433,0.0004665035074745018
1492.8786473944801,1492.8786473944801,1.001086639543498,0.0004671748772297813
1492.8855920975468,1492.8855920975468,1.0005064319667398,0.00046681347739886464
1492.892536800427,1492.892536800427,0.9996709102367347,0.0004665673845603691
1492.8994815031206,1492.8994815031206,0.9996205446902635,0.00046642481990790736
1492.9064262058141,1492.9064262058141,1.0004577899382192,0.0004663442112911108
1492.9133709082287,1492.9133709082287,0.9991616095306691,0.0004665524620169455
1492.920315610922,1492.920315610922,0.9998514013054015,0.0004667564061598177
1492.9272603132438,1492.9272603132438,1.0005812357638892,0.00046679492362365204
1492.934205015193,1492.934205015193,1.0002507670667877,0.00046648894143668407
1492.941149717421,1492.941149717421,0.999800369328198,0.00046649420865241395
1492.9480944192765,1492.9480944192765,0.9999926578665452,0.0004669386843382206
1492.9550391212254,1492.9550391212254,1.000108640178225,0.0004664575837288676
1492.9619838228944,1492.9619838228944,1.0000523758521838,0.00046675041275288617
1492.9689285245636,1492.9689285245636,0.9996248347054346,0.0004665063948345219
1492.975873226047,1492.975873226047,0.9997364111185162,0.00046678290047016035
1492.9828179274366,1492.9828179274366,0.9995749275199313,0.0004666829204477102
1492.9897626286404,1492.9897626286404,1.0007001397310802,0.00046679252620496057
1492.9967073298437,1492.9967073298437,1.0002162857769863,0.0004666593178108649
1493.0036520309545,1493.0036520309545,1.0000549542270831,0.0004668617957001818
1493.0105967318786,1493.0105967318786,0.9996388589042435,0.00046674379078522207
1493.01754143271,1493.01754143271,1.0000424315512162,0.000466792809376535
1493.0244861334481,1493.0244861334481,1.0005494151977217,0.00046662838869600194
1493.0314308339994,1493.0314308339994,0.9996348279395502,0.0004666014555711862
1493.0383755345513,1493.0383755345513,0.9999527064684115,0.00046678825105882254
1493.0453202349167,1493.0453202349167,0.9996989456410997,0.0004667821050519983
1493.0522649350028,1493.0522649350028,1.0003181304449313,0.00046671624709655545
1493.0592096354615,1493.0592096354615,1.0001701039874598,0.0004665819065281972
1493.0661543354547,1493.0661543354547,0.999668704719656,0.00046663750251156366
1493.0730990352608,1493.0730990352608,1.00004780737336,0.00046645389677574836
1493.0800437349747,1493.0800437349747,0.9999617518562622,0.00046652642064270983
1493.0869884346882,1493.0869884346882,0.9998844345828545,0.0004664641053448872
1493.0939331343084,1493.0939331343084,0.9999075899014871,0.0004668271858075669
1493.100877833743,1493.100877833743,0.9999227473317026,0.0004667967757652785
1493.1078225330843,1493.1078225330843,1.0000684598260643,0.0004670977469844453
1493.1147672323318,1493.1147672323318,1.0003976787179376,0.0004666562463777107
1493.1217119313933,1493.1217119313933,1.000156350104597,0.00046684580093247195
1493.128656630362,1493.128656630362,1.000058668282223,0.00046670866435255043
1493.1356013292373,1493.1356013292373,1.0000401769218872,0.0004665493518516069
1493.1425460280193,1493.1425460280193,0.9999279542254375,0.0004663744040155889
1493.1494907267086,1493.1494907267086,1.0001059911955577,0.000466722886744778
1493.1564354252116,1493.1564354252116,0.99916293624189,0.0004663276910366862
1493.1633801236208,1493.1633801236208,0.9998355886715127,0.00046697853812389814
1493.1703248219378,1493.1703248219378,1.0000924573570966,0.0004665289927770269
1493.1772695201612,1493.1772695201612,1.000008168387116,0.0004666748496125286
1493.1842142181981,1493.1842142181981,1.000088506555411,0.0004666806990390033
1493.1911589162353,1493.1911589162353,0.9994987292830017,0.0004666619486265619
1493.1981036139,1493.1981036139,1.0007614616312008,0.00046672372280730435
1493.2050483115643,1493.2050483115643,1.000505279031728,0.00046693437348116284
1493.2119930092292,1493.2119930092292,0.9998290624954638,0.0004663895383799223
1493.218937706894,1493.218937706894,0.999678229565443,0.0004663987226676949
1493.225882404279,1493.225882404279,1.0000948199970652,0.0004666711168568533
1493.232827101571,1493.232827101571,0.9993136500334577,0.0004669225607331893
1493.239771798677,1493.239771798677,1.0008222222638212,0.00046665787114566774
1493.2467164957825,1493.2467164957825,1.0004534837403212,0.00046693683513769244
1493.2536611927023,1493.2536611927023,0.9999530902115333,0.0004668178043982633
1493.2606058894357,1493.2606058894357,1.00001374164052,0.0004669709088285804
1493.267550586262,1493.267550586262,1.0008594085719256,0.0004668977548453098
1493.2744952827159,1493.2744952827159,1.0009480008535392,0.0004668726754452044
1493.2814399792635,1493.2814399792635,1.0001426288576512,0.0004669350497128903
1493.2883846756242,1493.2883846756242,0.9991190283504187,0.0004666261731568897
1493.2953293718917,1493.2953293718917,0.9998704086534429,0.0004669819404950869
1493.3022740679735,1493.3022740679735,0.9999578317776731,0.0004665561708522125
1493.3092187640545,1493.3092187640545,1.0004997676934584,0.00046701222633900656
1493.3161634598566,1493.3161634598566,0.9999263558775882,0.00046661319908464775
1493.3231081556582,1493.3231081556582,0.9998935713633491,0.00046687162011493715
1493.3300528513676,1493.3300528513676,1.000344590971403,0.00046664689872674735
1493.3369975467967,1493.3369975467967,1.0006460279158584,0.0004666181209275224
1493.3439422425058,1493.3439422425058,0.9995624696364723,0.000466703873210328
1493.3508869378422,1493.3508869378422,0.9999843282194896,0.00046667222845495955
1493.3578316327125,1493.3578316327125,0.999610283364875,0.00046663829655755327
1493.364776328049,1493.364776328049,1.0000930364918008,0.0004666975184621225
1493.3717210229195,1493.3717210229195,1.0004472624273744,0.0004669320662125255
1493.3786657178832,1493.3786657178832,0.9992966067161747,0.00046675185054329514
1493.3856104125678,1493.3856104125678,0.9998060403766589,0.00046667793452603916
1493.3925551072523,1493.3925551072523,0.9995936224052195,0.00046661829771700797
