time,time,flux,flux_err
1354.1122802894706,1354.1122802894706,28263.586,20.036652
1354.1136692026994,1354.1136692026994,28255.314,20.033426
1354.1164470289223,1354.1164470289223,28286.703,20.04052
1354.117835942151,1354.117835942151,28250.312,20.030735
1354.1192248551465,1354.1192248551465,28270.645,20.030386
1354.1206137683746,1354.1206137683746,28276.72,20.038902
1354.1220026813698,1354.1220026813698,28263.553,20.030252
1354.1233915945986,1354.1233915945986,28287.56,20.039585
1354.1247805078276,1354.1247805078276,28279.277,20.037355
1354.1261694208229,1354.1261694208229,28272.55,20.037134
1354.1275583340512,1354.1275583340512,28283.164,20.042547
1354.1289472470462,1354.1289472470462,28236.209,20.025148
1354.1303361602745,1354.1303361602745,28269.484,20.033976
1354.1317250732704,1354.1317250732704,28277.018,20.040052
1354.1331139864988,1354.1331139864988,28252.064,20.03636
1354.1345028997266,1354.1345028997266,28305.385,20.043283
1354.1358918127228,1354.1358918127228,28271.91,20.039669
1354.1372807259509,1354.1372807259509,28270.486,20.035175
1354.1386696389468,1354.1386696389468,28248.94,20.029112
1354.140058552175,1354.140058552175,28269.668,20.032543
1354.1414474651697,1354.1414474651697,28242.754,20.022255
1354.1428363783984,1354.1428363783984,28287.863,20.038197
1354.1442252913944,1354.1442252913944,28248.953,20.033806
1354.1456142046227,1354.1456142046227,28304.021,20.042727
1354.147003117618,1354.147003117618,28268.1,20.036013
1354.148392030846,1354.148392030846,28272.361,20.037432
1354.149780943842,1354.149780943842,28290.178,20.044998
1354.151169857071,1354.151169857071,28284.01,20.038607
1354.1525587700658,1354.1525587700658,28293.227,20.040478
1354.1539476832936,1354.1539476832936,28236.438,20.023867
1354.1553365962895,1354.1553365962895,28301.451,20.04178
1354.1567255095185,1354.1567255095185,28294.432,20.041817
1354.1581144225138,1354.1581144225138,28294.473,20.037498
1354.1595033357412,1354.1595033357412,28268.766,20.033726
1354.1608922487371,1354.1608922487371,28273.838,20.036224
1354.1622811619661,1354.1622811619661,28248.459,20.025808
1354.1636700749614,1354.1636700749614,28266.783,20.034681
1354.1650589881897,1354.1650589881897,28256.562,20.028233
1354.1664479011847,1354.1664479011847,28284.002,20.041258
1354.1678368144137,1354.1678368144137,28255.06,20.026003
1354.1692257274099,1354.1692257274099,28247.203,20.02908
1354.1706146406373,1354.1706146406373,28259.77,20.027191
1354.1720035536325,1354.1720035536325,28271.68,20.034025
1354.1733924666287,1354.1733924666287,28233.854,20.027601
1354.1747813798565,1354.1747813798565,28277.252,20.032091
1354.1761702928525,1354.1761702928525,28260.605,20.032118
1354.1775592060808,1354.1775592060808,28270.36,20.03287
1354.1789481190763,1354.1789481190763,28262.938,20.03097
1354.180337032305,1354.180337032305,28291.248,20.04173
1354.1817259453,1354.1817259453,28219.168,20.021404
1354.1831148582962,1354.1831148582962,28255.963,20.032032
1354.1845037715243,1354.1845037715243,28280.363,20.037647
1354.1858926845189,1354.1858926845189,28228.268,20.0209
1354.1872815977479,1354.1872815977479,28254.588,20.036541
1354.188670510744,1354.188670510744,28273.713,20.040325
1354.190059423739,1354.190059423739,28270.002,20.03442
1354.1914483369674,1354.1914483369674,28224.414,20.020403
1354.1928372499626,1354.1928372499626,28274.469,20.040228
1354.1942261631916,1354.1942261631916,28275.928,20.037916
1354.1956150761876,1354.1956150761876,28280.787,20.034304
1354.1970039891821,1354.1970039891821,28263.182,20.032154
1354.1983929024102,1354.1983929024102,28265.832,20.027409
1354.1997818154064,1354.1997818154064,28299.271,20.041899
1354.2011707284023,1354.2011707284023,28241.438,20.025484
1354.2025596416302,1354.2025596416302,28278.291,20.036234
1354.203948554625,1354.203948554625,28279.045,20.03829
1354.2053374676211,1354.2053374676211,28277.531,20.035051
1354.20672638085,1354.20672638085,28267.39,20.033632
1354.208115293845,1354.208115293845,28286.709,20.04148
1354.2095042068404,1354.2095042068404,28302.035,20.04488
1354.2108931200687,1354.2108931200687,28283.725,20.044134
1354.2122820330646,1354.2122820330646,28267.14,20.033503
1354.2136709460606,1354.2136709460606,28283.6,20.03751
1354.215059859288,1354.215059859288,28247.635,20.023626
1354.2164487722835,1354.2164487722835,28274.537,20.033371
1354.2178376852794,1354.2178376852794,28232.426,20.017475
1354.2192265982746,1354.2192265982746,28262.871,20.030268
1354.2206155115036,1354.2206155115036,28268.916,20.032677
1354.2220044244987,1354.2220044244987,28283.902,20.043459
1354.2233933374941,1354.2233933374941,28242.713,20.032032
1354.22478225049,1354.22478225049,28278.604,20.03703
1354.2261711637184,1354.2261711637184,28256.107,20.026215
1354.2275600767134,1354.2275600767134,28274.68,20.034414
1354.228948989709,1354.228948989709,28270.682,20.034328
1354.230337902937,1354.230337902937,28228.883,20.024334
1354.2317268159331,1354.2317268159331,28275.893,20.036198
1354.233115728929,1354.233115728929,28287.604,20.043295
1354.2345046419243,1354.2345046419243,28235.328,20.024632
1354.2358935549196,1354.2358935549196,28289.74,20.0378
1354.237282468148,1354.237282468148,28269.219,20.039358
1354.2386713811438,1354.2386713811438,28226.182,20.021818
1354.2400602941398,1354.2400602941398,28283.559,20.03864
1354.2414492071343,1354.2414492071343,28236.166,20.025682
1354.2428381201298,1354.2428381201298,28259.67,20.0287
1354.2442270333586,1354.2442270333586,28272.965,20.039074
1354.2456159463545,1354.2456159463545,28242.945,20.022356
1354.24700485935,1354.24700485935,28240.875,20.024445
1354.2483937723446,1354.2483937723446,28288.697,20.03998
1354.2497826853405,1354.2497826853405,28295.725,20.044317
1354.2511715985693,1354.2511715985693,28251.854,20.031813
1354.2525605115648,1354.2525605115648,28257.273,20.030087
1354.2539494245598,1354.2539494245598,28252.414,20.028915
1354.2553383375553,1354.2553383375553,28297.291,20.040257
1354.2567272505512,1354.2567272505512,28244.844,20.02588
1354.2581161635471,1354.2581161635471,28255.072,20.02546
1354.2595050765417,1354.2595050765417,28264.715,20.033356
1354.26089398977,1354.26089398977,28293.672,20.041594
1354.262282902766,1354.262282902766,28261.027,20.030664
1354.2636718157614,1354.2636718157614,28259.633,20.02921
1354.2650607287574,1354.2650607287574,28275.418,20.039743
1354.2664496417526,1354.2664496417526,28296.752,20.047861
1354.2678385547479,1354.2678385547479,28274.227,20.032925
1354.2692274677438,1354.2692274677438,28272.322,20.035713
1354.2706163807393,1354.2706163807393,28258.736,20.026407
1354.2720052937348,1354.2720052937348,28280.203,20.035917
1354.2733942069626,1354.2733942069626,28287.18,20.04291
1354.274783119958,1354.274783119958,28295.398,20.040806
1354.276172032954,1354.276172032954,28270.139,20.037188
1354.27756094595,1354.27756094595,28270.637,20.030537
1354.2789498589455,1354.2789498589455,28271.594,20.035767
1354.2803387719405,1354.2803387719405,28271.627,20.040884
1354.281727684936,1354.281727684936,28283.559,20.034882
1354.283116597932,1354.283116597932,28230.469,20.0242
1354.2845055109274,1354.2845055109274,28290.906,20.039488
1354.285894423922,1354.285894423922,28269.283,20.03034
1354.2872833369179,1354.2872833369179,28279.566,20.035692
1354.2886722499138,1354.2886722499138,28279.55,20.034822
1354.2900611629098,1354.2900611629098,28242.809,20.023388
1354.2914500759052,1354.2914500759052,28281.084,20.039011
1354.2928389888998,1354.2928389888998,28227.809,20.023151
1354.2942279018957,1354.2942279018957,28238.025,20.017305
1354.2956168148917,1354.2956168148917,28265.217,20.031944
1354.2970057278865,1354.2970057278865,28279.33,20.038826
1354.2983946408817,1354.2983946408817,28254.379,20.023664
1354.2997835538777,1354.2997835538777,28229.588,20.0256
1354.3011724668736,1354.3011724668736,28269.252,20.035685
1354.3025613798698,1354.3025613798698,28267.416,20.033985
1354.3039502928646,1354.3039502928646,28256.645,20.028362
1354.3053392058596,1354.3053392058596,28313.389,20.047354
1354.3067281188555,1354.3067281188555,28275.146,20.035587
1354.308117031851,1354.308117031851,28268.295,20.024565
1354.309505944847,1354.309505944847,28282.418,20.036972
1354.3108948578424,1354.3108948578424,28269.848,20.032274
1354.3122837708377,1354.3122837708377,28284.848,20.041006
1354.3136726838338,1354.3136726838338,28288.91,20.035837
1354.3150615968289,1354.3150615968289,28253.352,20.0301
1354.3164505095915,1354.3164505095915,28252.043,20.026012
1354.3178394225868,1354.3178394225868,28267.014,20.031616
1354.319228335582,1354.319228335582,28270.436,20.031832
1354.320617248578,1354.320617248578,28275.145,20.041025
1354.3220061615739,1354.3220061615739,28256.545,20.025324
1354.3233950745694,1354.3233950745694,28244.416,20.026148
1354.3247839875648,1354.3247839875648,28255.5,20.026033
1354.3261729005599,1354.3261729005599,28256.582,20.024529
1354.3275618135558,1354.3275618135558,28256.568,20.032858
1354.3289507263185,1354.3289507263185,28256.826,20.032063
1354.330339639313,1354.330339639313,28281.363,20.031046
1354.331728552309,1354.331728552309,28263.918,20.033133
1354.3331174653051,1354.3331174653051,28282.83,20.032906
1354.3345063783013,1354.3345063783013,28261.592,20.029772
1354.3358952912963,1354.3358952912963,28258.178,20.02635
1354.337284204058,1354.337284204058,28279.254,20.03729
1354.3386731170542,1354.3386731170542,28276.22,20.035517
1354.3400620300504,1354.3400620300504,28260.002,20.028152
1354.341450943045,1354.341450943045,28286.72,20.033491
1354.34283985604,1354.34283985604,28275.617,20.034796
1354.3442287690361,1354.3442287690361,28265.785,20.031044
1354.3456176817995,1354.3456176817995,28261.035,20.029034
1354.3470065947954,1354.3470065947954,28275.094,20.033915
1354.34839550779,1354.34839550779,28273.9,20.038948
1354.3497844207852,1354.3497844207852,28260.568,20.028532
1354.3511733335486,1354.3511733335486,28247.133,20.02747
1354.3525622465436,1354.3525622465436,28280.834,20.029741
1354.353951159539,1354.353951159539,28288.055,20.03771
1354.3553400725343,1354.3553400725343,28302.004,20.043047
1354.3567289852977,1354.3567289852977,28257.146,20.030014
1354.3581178982936,1354.3581178982936,28276.744,20.03233
1354.3595068112888,1354.3595068112888,28270.428,20.034548
1354.360895724284,1354.360895724284,28287.303,20.03787
1354.3622846370467,1354.3622846370467,28257.146,20.028906
1354.3636735500418,1354.3636735500418,28253.482,20.02089
1354.365062463038,1354.365062463038,28231.752,20.023445
1354.3664513758013,1354.3664513758013,28259.473,20.023893
1354.3678402887963,1354.3678402887963,28297.936,20.044674
1354.3692292017918,1354.3692292017918,28273.8,20.031647
1354.370618114787,1354.370618114787,28272.111,20.033684
1354.3720070275504,1354.3720070275504,28280.79,20.03897
1354.3733959405454,1354.3733959405454,28254.686,20.022533
1354.37478485354,1354.37478485354,28263.365,20.036432
1354.3761737663033,1354.3761737663033,28258.95,20.030197
1354.3775626792994,1354.3775626792994,28266.611,20.031382
1354.3789515922954,1354.3789515922954,28254.75,20.020697
1354.3803405050578,1354.3803405050578,28292.049,20.039381
1354.3817294180526,1354.3817294180526,28288.463,20.03625
1354.3831183308157,1354.3831183308157,28254.557,20.027472
1354.3845072438116,1354.3845072438116,28242.523,20.025291
1354.3858961568062,1354.3858961568062,28262.938,20.028826
1354.3872850695689,1354.3872850695689,28271.412,20.027454
1354.3886739825648,1354.3886739825648,28242.006,20.028645
1354.390062895328,1354.390062895328,28280.174,20.036549
1354.3914518083238,1354.3914518083238,28258.455,20.027472
1354.3928407213184,1354.3928407213184,28245.678,20.021633
1354.394229634081,1354.394229634081,28282.152,20.036192
1354.395618547077,1354.395618547077,28279.18,20.040903
1354.3970074598396,1354.3970074598396,28246.457,20.025185
1354.3983963728347,1354.3983963728347,28264.418,20.03311
1354.3997852855973,1354.3997852855973,28249.393,20.03015
1354.4011741985933,1354.4011741985933,28297.848,20.04058
1354.4025631115892,1354.4025631115892,28274.66,20.02946
1354.4039520243518,1354.4039520243518,28259.559,20.031445
1354.4053409373469,1354.4053409373469,28258.738,20.032892
1354.4067298501095,1354.4067298501095,28250.275,20.02205
1354.408118763105,1354.408118763105,28294.678,20.037983
1354.409507675868,1354.409507675868,28276.686,20.034388
1354.410896588864,1354.410896588864,28270.826,20.034666
1354.4122855016265,1354.4122855016265,28251.61,20.028841
1354.4136744146217,1354.4136744146217,28234.26,20.018251
1354.4150633273844,1354.4150633273844,28250.484,20.025124
1354.4164522403803,1354.4164522403803,28231.996,20.020786
1354.417841153143,1354.417841153143,28253.785,20.029518
1354.4192300661375,1354.4192300661375,28290.055,20.037624
1354.4206189789006,1354.4206189789006,28262.668,20.031458
1354.4220078918966,1354.4220078918966,28275.502,20.024372
1354.4233968046597,1354.4233968046597,28285.967,20.039385
1354.4247857174223,1354.4247857174223,28260.414,20.028002
1354.4261746304169,1354.4261746304169,28250.668,20.025003
1354.42756354318,1354.42756354318,28282.078,20.029858
1354.428952456176,1354.428952456176,28265.57,20.03216
1354.4303413689377,1354.4303413689377,28283.217,20.031229
1354.4317302819331,1354.4317302819331,28275.361,20.035894
1354.4331191946962,1354.4331191946962,28250.24,20.022297
1354.4345081074594,1354.4345081074594,28275.227,20.02476
1354.4358970204553,1354.4358970204553,28256.191,20.026218
1354.437285933217,1354.437285933217,28277.959,20.037218
1354.4386748459797,1354.4386748459797,28255.52,20.026415
1354.4400637589756,1354.4400637589756,28248.008,20.026726
1354.4414526717383,1354.4414526717383,28229.006,20.01889
1354.4428415847335,1354.4428415847335,28299.773,20.036451
1354.444230497496,1354.444230497496,28246.951,20.024826
1354.445619410259,1354.445619410259,28251.996,20.022163
1354.447008323255,1354.447008323255,28265.973,20.028221
1354.4483972360176,1354.4483972360176,28279.44,20.040003
1354.4497861487803,1354.4497861487803,28280.69,20.029495
1354.4511750617753,1354.4511750617753,28245.676,20.023684
1354.452563974538,1354.452563974538,28283.861,20.040007
1354.453952887301,1354.453952887301,28234.654,20.016207
1354.4553418000642,1354.4553418000642,28255.65,20.026741
1354.4567307130596,1354.4567307130596,28289.396,20.029816
1354.458119625822,1354.458119625822,28264.234,20.036993
1354.4595085385845,1354.4595085385845,28286.178,20.036554
1354.4608974515804,1354.4608974515804,28250.795,20.02674
1354.462286364343,1354.462286364343,28231.098,20.021502
1354.4636752771048,1354.4636752771048,28239.01,20.019655
1354.465064189868,1354.465064189868,28255.773,20.026003
1354.4664531028639,1354.4664531028639,28270.182,20.029694
1354.467842015627,1354.467842015627,28282.22,20.035156
1354.4692309283896,1354.4692309283896,28255.127,20.025818
1354.4706198411513,1354.4706198411513,28263.72,20.029102
1354.4720087541473,1354.4720087541473,28258.465,20.029758
1354.4733976669104,1354.4733976669104,28280.035,20.035692
1354.4747865796724,1354.4747865796724,28247.564,20.024282
1354.4761754924348,1354.4761754924348,28283.633,20.033155
1354.4775644051979,1354.4775644051979,28293.434,20.041761
1354.478953318194,1354.478953318194,28282.09,20.035547
1354.4803422309574,1354.4803422309574,28289.29,20.034193
1354.4817311437191,1354.4817311437191,28261.129,20.034575
1354.4831200564813,1354.4831200564813,28281.623,20.031336
1354.4845089692446,1354.4845089692446,28264.252,20.02444
1354.485897882007,1354.485897882007,28234.035,20.021841
1354.4872867950025,1354.4872867950025,28237.482,20.024454
1354.4886757077647,1354.4886757077647,28256.824,20.026066
1354.490064620528,1354.490064620528,28256.486,20.029451
1354.4914535332914,1354.4914535332914,28274.828,20.03667
1354.4928424460536,1354.4928424460536,28247.621,20.02341
1354.4942313588163,1354.4942313588163,28271.748,20.032833
1354.4956202715787,1354.4956202715787,28227.201,20.017752
1354.497009184341,1354.497009184341,28279.209,20.037313
1354.4983980971042,1354.4983980971042,28290.281,20.039183
1354.4997870101004,1354.4997870101004,28288.584,20.039919
1354.5011759228628,1354.5011759228628,28270.912,20.032902
1354.5025648356254,1354.5025648356254,28270.828,20.035645
1354.5039537483876,1354.5039537483876,28233.318,20.014626
1354.505342661151,1354.505342661151,28291.922,20.038437
1354.5067315739134,1354.5067315739134,28259.172,20.025686
1354.5081204866751,1354.5081204866751,28252.967,20.02566
1354.5095093994382,1354.5095093994382,28246.137,20.024961
1354.5108983122016,1354.5108983122016,28235.822,20.024866
1354.512287224965,1354.512287224965,28266.514,20.03326
1354.513676137727,1354.513676137727,28285.383,20.028957
1354.5150650504888,1354.5150650504888,28299.705,20.040203
1354.5164539632522,1354.5164539632522,28249.494,20.030104
1354.5178428760155,1354.5178428760155,28262.953,20.02482
1354.5192317887772,1354.5192317887772,28273.43,20.025314
1354.5206207015397,1354.5206207015397,28257.918,20.026184
1354.522009614303,1354.522009614303,28282.932,20.032715
1354.523398527066,1354.523398527066,28239.291,20.027006
1354.5247874398292,1354.5247874398292,28277.938,20.03419
1354.526176352591,1354.526176352591,28255.576,20.031162
1354.5275652653536,1354.5275652653536,28258.543,20.019398
1354.5289541781167,1354.5289541781167,28236.643,20.025429
1354.530343090879,1354.530343090879,28269.932,20.032562
1354.5317320036415,1354.5317320036415,28251.766,20.026695
1354.5331209164042,1354.5331209164042,28261.748,20.024307
1354.5345098291673,1354.5345098291673,28257.121,20.02437
1354.5358987416976,1354.5358987416976,28265.672,20.029158
1354.5372876544602,1354.5372876544602,28254.018,20.022854
1354.5386765672224,1354.5386765672224,28257.598,20.022705
1354.540065479985,1354.540065479985,28249.355,20.023796
1354.5414543927475,1354.5414543927475,28259.707,20.025488
1354.5428433055108,1354.5428433055108,28239.482,20.025211
1354.544232218274,1354.544232218274,28244.025,20.025993
1354.5456211310361,1354.5456211310361,28288.139,20.03108
1354.547010043566,1354.547010043566,28265.135,20.033531
1354.5483989563286,1354.5483989563286,28246.967,20.020937
1354.5497878690917,1354.5497878690917,28219.814,20.01375
1354.5511767818539,1354.5511767818539,28260.787,20.028893
1354.5525656946159,1354.5525656946159,28263.465,20.028502
1354.5539546073792,1354.5539546073792,28258.174,20.027193
1354.5553435199095,1354.5553435199095,28255.914,20.025377
1354.5567324326726,1354.5567324326726,28243.256,20.022133
1354.5581213454352,1354.5581213454352,28271.807,20.029278
1354.559510258197,1354.559510258197,28241.582,20.020987
1354.56089917096,1354.56089917096,28276.344,20.027374
1354.5622880834903,1354.5622880834903,28264.42,20.028822
1354.563676996252,1354.563676996252,28275.291,20.036243
1354.5650659090147,1354.5650659090147,28274.045,20.030672
1354.5664548217778,1354.5664548217778,28293.832,20.04196
1354.567843734308,1354.567843734308,28279.08,20.029991
1354.5692326470712,1354.5692326470712,28251.709,20.02351
1354.570621559833,1354.570621559833,28275.22,20.03012
1354.5720104725956,1354.5720104725956,28229.732,20.018488
1354.5733993851259,1354.5733993851259,28271.893,20.032799
1354.5747882978885,1354.5747882978885,28270.254,20.03536
1354.5761772106507,1354.5761772106507,28252.29,20.025635
1354.5775661234134,1354.5775661234134,28295.291,20.032417
1354.5789550359436,1354.5789550359436,28242.621,20.028551
1354.5803439487067,1354.5803439487067,28282.355,20.032217
1354.5817328614694,1354.5817328614694,28277.49,20.037498
1354.583121773999,1354.583121773999,28257.576,20.029203
1354.5845106867614,1354.5845106867614,28280.81,20.038614
1354.585899599524,1354.585899599524,28278.135,20.034136
1354.5872885120543,1354.5872885120543,28250.355,20.024063
1354.5886774248174,1354.5886774248174,28256.28,20.026579
1354.59006633758,1354.59006633758,28262.584,20.026007
1354.5914552501094,1354.5914552501094,28277.027,20.034088
1354.592844162872,1354.592844162872,28273.71,20.026436
1354.5942330754024,1354.5942330754024,28254.645,20.026363
1354.595621988165,1354.595621988165,28259.34,20.032042
1354.5970109009268,1354.5970109009268,28283.664,20.031124
1354.598399813457,1354.598399813457,28215.025,20.015703
