time,time,flux,flux_err
1325.3036910150065,1325.3036910150065,0.9998237008035069,0.0004500419310742028
1325.3120243073672,1325.3120243073672,0.9999842625484107,0.0004501620271044822
1325.3203575996508,1325.3203575996508,1.000164515115854,0.00045020787355172975
1325.3279964509543,1325.3279964509543,1.0001512835747288,0.0004110334982205285
1325.3349408609367,1325.3349408609367,1.000120073633205,0.0004110711779058725
1325.3418852710124,1325.3418852710124,1.000220725302989,0.0004111721417197513
1325.3488296809016,1325.3488296809016,0.9999792661326756,0.0004111963301865592
1325.3557740907913,1325.3557740907913,0.9997994520354527,0.00041122722495474256
1325.3627185006803,1325.3627185006803,0.9993030813475892,0.00041123928201706886
1325.3696629104768,1325.3696629104768,0.9998655132335863,0.00041149912587789265
1325.3766073202728,1325.3766073202728,1.000474678758181,0.00041165818363020953
1325.383551729883,1325.383551729883,1.0002097913430004,0.0004117164308829617
1325.3904961394,1325.3904961394,0.9995681413625958,0.0004117916084961456
1325.397440549196,1325.397440549196,1.0003892903160536,0.000412053982531083
1325.4043849585264,1325.4043849585264,1.000365900987537,0.0004121446618291381
1325.4113293678577,1325.4113293678577,0.9999523910597402,0.0004121989091054124
1325.4182737771878,1325.4182737771878,0.9996969840749262,0.0004122604174480479
1325.4252181866116,1325.4252181866116,1.0002964952520446,0.0004123921871353422
1325.432162595849,1325.432162595849,0.9997675219095165,0.0004124077498499542
1325.4391070051795,1325.4391070051795,0.9996784012747222,0.00041245532544766295
1325.4460514145103,1325.4460514145103,0.9996162362586798,0.00041247216805814335
1325.4529958237474,1325.4529958237474,1.000095810474581,0.0004126505835459285
1325.4599402327058,1325.4599402327058,0.9999877046623874,0.00041267954784947986
1325.4668846419431,1325.4668846419431,1.00054009725557,0.0004127685235297778
1325.473829050901,1325.473829050901,0.9998170157672657,0.0004127464397418386
1325.4807734598592,1325.4807734598592,1.0004704179934572,0.00041289650996529563
1325.487717868817,1325.487717868817,1.0000648243483299,0.00041293497464751385
1325.4946622777754,1325.4946622777754,1.0000410188768372,0.0004130131542866346
1325.5016066866403,1325.5016066866403,0.9997312122557901,0.00041300040784157855
1325.5085510954118,1325.5085510954118,1.0001030186812994,0.0004130726220813701
1325.5154955042772,1325.5154955042772,0.9998760803449004,0.000413167174777883
1325.5224399130486,1325.5224399130486,0.9993912565225159,0.00041317984099123255
1325.5293843217273,1325.5293843217273,1.000081886961624,0.0004133320007962642
1325.5363287304058,1325.5363287304058,0.9999827039875082,0.00041335742904010454
1325.5432731390845,1325.5432731390845,1.0005320145367618,0.00041356816079253874
1325.5502175476704,1325.5502175476704,1.00048235563481,0.0004135921088686295
1325.5571619563489,1325.5571619563489,1.0004206028304163,0.00041361672638898564
1325.5641063649346,1325.5641063649346,1.0002116389638294,0.00041367620532734175
1325.571050773427,1325.571050773427,0.9993288770637825,0.0004135562664789814
1325.577995181826,1325.577995181826,0.9997098548466775,0.0004136749876986594
1325.584939590412,1325.584939590412,1.0000567274963874,0.0004138613534452932
1325.591883998811,1325.591883998811,0.9997651157568217,0.0004138560943271992
1325.59882840721,1325.59882840721,1.0005369602263268,0.0004140346606200236
1325.6057728156095,1325.6057728156095,1.0004113873739133,0.00041399841535535547
1325.6127172239153,1325.6127172239153,0.9996697286144969,0.0004139014229119175
1325.6196616323148,1325.6196616323148,0.9995848738540776,0.0004139893044136196
1325.626606040621,1325.626606040621,1.000049299125203,0.0004140528445325094
1325.6335504488338,1325.6335504488338,1.0003551047522719,0.00041410854447742815
1325.640494857047,1325.640494857047,1.0003082078587144,0.00041416418827360706
1325.6474392654459,1325.6474392654459,0.9999909371710318,0.00041409763242342986
1325.6543836735661,1325.6543836735661,0.9998798235031275,0.0004141260120028989
1325.661328081779,1325.661328081779,0.9996962686309698,0.00041419571096229686
1325.6682724898988,1325.6682724898988,1.0003623310302079,0.0004142977719997965
1325.6752168981118,1325.6752168981118,1.0002802592479219,0.00041440589537973586
1325.6821613061388,1325.6821613061388,0.9998254020280921,0.00041429740391383884
1325.6891057141654,1325.6891057141654,0.9993328641362555,0.0004142545670584078
1325.6960501223784,1325.6960501223784,0.9997435711942556,0.00041434632328318875
1325.7029945303123,1325.7029945303123,1.0003257177872762,0.0004145334834312525
1325.709938938432,1325.709938938432,0.9999850144293809,0.0004145731815738546
1325.7168833463652,1325.7168833463652,0.9998613988942336,0.0004145773663439335
1325.7238277543922,1325.7238277543922,0.9999742615911164,0.0004147298912689429
1325.730772162326,1325.730772162326,1.0001811003315761,0.0004148296979762459
1325.7377165702594,1325.7377165702594,1.0002167225414818,0.0004148793723414403
1325.7446609781932,1325.7446609781932,1.0002858833794912,0.000415029474095075
1325.7516053861266,1325.7516053861266,1.0003935925051861,0.0004150977216850562
1325.7585497940604,1325.7585497940604,0.9994667404621506,0.00041507951382430374
1325.7654942019008,1325.7654942019008,0.9998585311125885,0.00041526068040382083
1325.7724386097411,1325.7724386097411,0.9993840240479817,0.00041531184834510415
1325.7793830175817,1325.7793830175817,1.0002027991468183,0.00041555052932984915
1325.7863274254219,1325.7863274254219,1.000111793195751,0.00041563529944613626
1325.7932718332627,1325.7932718332627,1.000574740846409,0.00041585588537350825
1325.8002162410098,1325.8002162410098,1.0003345005346596,0.0004159517499535031
1325.8071606487574,1325.8071606487574,0.999617644988977,0.0004159021369872658
1325.8141050565978,1325.8141050565978,0.999544867381073,0.00041594257700964306
1325.821049464345,1325.821049464345,1.0004605754037257,0.00041619048219993757
1325.8279938719993,1325.8279938719993,0.9995804483483187,0.000416093775141563
1325.8349382797467,1325.8349382797467,0.9996264527279302,0.00041620357247986616
1325.8418826874008,1325.8418826874008,1.0000827449664471,0.000416359419556924
1325.8488270951482,1325.8488270951482,1.0006728515627619,0.00041644695532570017
1325.855771502802,1325.855771502802,0.9996502245484535,0.0004162561779372299
1325.8627159103635,1325.8627159103635,1.000162109498226,0.00041644064675333157
1325.8696603181106,1325.8696603181106,1.0001172601547688,0.00041638851451163687
1325.876604725672,1325.876604725672,1.0002182439913387,0.0004163782862520611
1325.8835491332331,1325.8835491332331,0.9994736167298377,0.0004162781421604378
1325.8904935409803,1325.8904935409803,1.0002085556624185,0.0004163111722508883
1325.8974379484484,1325.8974379484484,0.9995214887754154,0.0004162093011171837
1325.9043823560096,1325.9043823560096,1.0005627662898153,0.0004163909709225492
1325.91132676357,1325.91132676357,0.9998838814142246,0.0004162643866063752
1325.9182711711314,1325.9182711711314,0.9997128311057241,0.0004162376948271076
1325.9252155785991,1325.9252155785991,0.9998434736430373,0.00041630907674107727
1325.9321599861607,1325.9321599861607,1.00047809413463,0.0004163719232236314
1325.9391043936282,1325.9391043936282,1.0003179634264725,0.0004163966389550927
1325.9460488011896,1325.9460488011896,1.0001417688662355,0.0004163702491484173
1325.9529932086575,1325.9529932086575,0.9998183219770341,0.0004163563455481323
1325.9599376160322,1325.9599376160322,0.9994832364821459,0.0004163017988966228
1325.967715352434,1325.967715352434,0.9998857395608617,0.00041644425357073594
1325.9752153124618,1325.9752153124618,0.9999899720568152,0.0004164649592064755
1325.9821597198365,1325.9821597198365,1.0002480053838596,0.0004165107064316
1325.9891041273045,1325.9891041273045,0.9999740415309055,0.00041653132494817567
1325.996048534679,1325.996048534679,1.0000700302016574,0.0004166474168522256
1326.0029929420543,1326.0029929420543,0.9996858899808128,0.00041660808374464333
1326.0099373493356,1326.0099373493356,1.0005135137729213,0.00041684707277792326
1326.0168817567107,1326.0168817567107,0.9998973013403873,0.0004167947942946879
1326.0238261641784,1326.0238261641784,1.0001692590634395,0.0004170325274362864
1326.0307705714604,1326.0307705714604,0.9996790497258697,0.00041702972259066387
1326.0377149786486,1326.0377149786486,1.0000256441556616,0.00041711921936099793
1326.0446593861166,1326.0446593861166,1.0001604613220882,0.00041710547402381236
1326.0516037933053,1326.0516037933053,0.9997145989571672,0.0004171277667317049
1326.058548200587,1326.058548200587,0.9999194080218686,0.0004172658206953013
1326.0654926079617,1326.0654926079617,1.0005228920361007,0.00041738967057987196
1326.0724370150572,1326.0724370150572,0.9997863429178715,0.00041735327151435763
1326.0793814224314,1326.0793814224314,1.000207249845573,0.0004174115792715369
1326.0863258295278,1326.0863258295278,0.9998700961740437,0.00041741099401495856
1326.0932702369023,1326.0932702369023,0.9997739522885718,0.0004173626994632542
1326.100214643998,1326.100214643998,1.0000206740858393,0.0004174894730252346
1326.1071590511865,1326.1071590511865,0.9994836666887654,0.0004174471195736606
1326.1141034584678,1326.1141034584678,1.0003055295289496,0.0004175943851204779
1326.1210478654702,1326.1210478654702,0.9999194050205507,0.0004175824594575553
1326.1279922728447,1326.1279922728447,1.000518457770594,0.0004177099273131096
1326.1349366799407,1326.1349366799407,1.0003043730020786,0.0004177057915247089
1326.1418810869425,1326.1418810869425,1.0003114395127553,0.0004177095366049149
1326.1488254940382,1326.1488254940382,0.9999101900969315,0.0004176876691091365
1326.1557699014131,1326.1557699014131,0.9987807528283212,0.000417536331793564
1326.1627143084152,1326.1627143084152,1.0000640033722539,0.0004177693262631019
1326.1696587154177,1326.1696587154177,1.000286331854212,0.00041780366742292016
1326.1766031224197,1326.1766031224197,1.0002090405805188,0.00041787069416916283
1326.1835475294222,1326.1835475294222,0.9998728957449188,0.00041775872367928637
1326.1904919364245,1326.1904919364245,1.0004160781865326,0.0004178496284712401
1326.1974363434263,1326.1974363434263,0.9997213217641155,0.00041779631546796074
1326.2043807504292,1326.2043807504292,0.999749305978448,0.0004177446238140645
1326.2113251578967,1326.2113251578967,0.9998321589163682,0.00041772779689558436
1326.218269564527,1326.218269564527,1.0000106480451612,0.0004177722167297334
1326.2252139714358,1326.2252139714358,1.0001187326903929,0.000417795744605091
1326.2321583784383,1326.2321583784383,1.000099246978531,0.00041778171958807233
1326.2391027854403,1326.2391027854403,1.000371636222955,0.0004178380528635431
1326.2460471924423,1326.2460471924423,1.0002481764604048,0.0004178339067848244
1326.252991599445,1326.252991599445,0.9999429479928817,0.0004178226757802935
1326.259936006447,1326.259936006447,0.9996313370806146,0.00041776879651426725
1326.2668804134496,1326.2668804134496,0.9992849224157684,0.0004177493539532677
1326.2738248200794,1326.2738248200794,1.0002571657027468,0.00041789174914660135
1326.2807692269885,1326.2807692269885,1.0006430012277459,0.00041792652329403923
1326.287713633991,1326.287713633991,0.999884821731411,0.0004178056543890676
1326.2946580408068,1326.2946580408068,0.9998697664835972,0.00041780528321157625
1326.3016024475296,1326.3016024475296,0.9998021813095048,0.000417921473990422
1326.3085468545316,1326.3085468545316,1.0006679697960679,0.00041810094208974007
1326.315491261255,1326.315491261255,1.000667545709705,0.00041813599925055213
1326.3224356680707,1326.3224356680707,0.9997530876839897,0.0004179643755094405
1326.3293800748866,1326.3293800748866,1.0000466061806015,0.00041809126320884046
1326.33632448161,1326.33632448161,1.0001540178919834,0.0004180632998598958
1326.3432688884259,1326.3432688884259,0.9998630070214803,0.0004181327390101591
1326.3507688477089,1326.3507688477089,1.000286448875159,0.0004182870954576556
1326.3599354644862,1326.3599354644862,1.0000758514584334,0.00041825724727236996
1326.366879871302,1326.366879871302,0.999451012477145,0.0004182115012075975
1326.373824278025,1326.373824278025,0.9995294098449794,0.00041823548312464937
1326.3807686846546,1326.3807686846546,0.99952362254921,0.0004182483347315945
1326.3877130913777,1326.3877130913777,0.999974393767717,0.0004183095548576471
1326.3946574981005,1326.3946574981005,1.000470753174755,0.0004184403534728356
1326.4016019046371,1326.4016019046371,1.0003496139104036,0.000418495584868082
1326.408546311267,1326.408546311267,1.0003955081641005,0.00041855444104453213
1326.415490717897,1326.415490717897,1.0004904008226247,0.0004187058308122776
1326.4224351245266,1326.4224351245266,0.9999901578016145,0.0004185959024593492
1326.4293795311564,1326.4293795311564,0.9998544765695471,0.00041856799572877423
1326.436323937693,1326.436323937693,0.9994839055037943,0.00041864077836684924
1326.4432683442294,1326.4432683442294,1.0001378346135115,0.00041878654828402114
1326.4502127507662,1326.4502127507662,1.0001443865047663,0.0004188744637642387
1326.4571571573028,1326.4571571573028,0.999558368148271,0.0004188928568899333
1326.4641015638394,1326.4641015638394,0.9998310296775665,0.000418966192980952
1326.4710459702828,1326.4710459702828,1.0000681601468397,0.0004190490777692327
1326.4779903768194,1326.4779903768194,0.9999083324117086,0.0004190101748180326
1326.4849347832635,1326.4849347832635,0.9997934517074499,0.000418991803238585
1326.4918791897994,1326.4918791897994,1.000039743732254,0.00041908682685646995
1326.4988235962435,1326.4988235962435,0.9998342768759276,0.00041910166127496335
1326.5057680025934,1326.5057680025934,1.0008037055712355,0.0004193694812899162
1326.5127124090372,1326.5127124090372,1.0001056039940068,0.00041930851352381567
1326.5196568154806,1326.5196568154806,1.0002692938899964,0.00041938408093574375
1326.526601221738,1326.526601221738,0.9996933868953052,0.0004193078536619332
1326.5335456281814,1326.5335456281814,1.0003452039960998,0.0004195036081139149
1326.5404900345316,1326.5404900345316,0.9997556056462453,0.0004193924974479921
1326.547434440789,1326.547434440789,0.9993000328816948,0.00041945303342371217
1326.5543788472326,1326.5543788472326,0.9998534341468142,0.00041961279876761095
1326.5613232533965,1326.5613232533965,0.9997486477622812,0.00041965395767357583
1326.56826765984,1326.56826765984,1.0000429635870645,0.00041974496430629985
1326.575212066004,1326.575212066004,1.0013246052106666,0.00041987436457001576
1326.5821564722617,1326.5821564722617,0.999534088868554,0.00041972926578646264
1326.5891008785184,1326.5891008785184,1.0001107578552408,0.00041981145359759077
1326.596045284683,1326.596045284683,1.0001422538727036,0.0004198348533057905
1326.60298969094,1326.60298969094,0.9996574262326261,0.0004197581183792566
1326.6099340971973,1326.6099340971973,0.999603489697581,0.00041978950610050206
1326.6168785032683,1326.6168785032683,1.000323525761777,0.00041992429383900696
1326.623822909432,1326.623822909432,0.9996451278753773,0.0004198100026271308
1326.6307673155966,1326.6307673155966,1.00034217084391,0.00041997958404458224
1326.637711721667,1326.637711721667,0.9999506996410611,0.00041996653816315154
1326.6446561278315,1326.6446561278315,1.0003163772252126,0.0004200717535537971
1326.6516005339024,1326.6516005339024,1.0002588278359137,0.00042002802097797004
1326.6585449399731,1326.6585449399731,1.0000344160764392,0.00041993872711005957
1326.6654893460445,1326.6654893460445,0.9995959116384535,0.0004198445823999297
1326.672433752022,1326.672433752022,1.0001514474088906,0.0004199624203704968
1326.6793781580934,1326.6793781580934,0.999521680895716,0.00041980620218704645
1326.6863225640711,1326.6863225640711,0.9999405869177129,0.00041988988090038124
1326.6943780748898,1326.6943780748898,1.0000002547057574,0.0004198178292981798
1326.7016002572407,1326.7016002572407,1.0004889588764,0.0004198511917358123
1326.7085446631256,1326.7085446631256,1.0001236711041308,0.00041972992382693745
1326.7160446215705,1326.7160446215705,0.9995352644532943,0.00041957809539854257
1326.7238223561094,1326.7238223561094,1.000047648233572,0.00041956910210082677
1326.730766761994,1326.730766761994,0.9996432425949345,0.00041954737447296375
1326.7377111677856,1326.7377111677856,1.0002817169001896,0.0004195789217798374
1326.7446555736703,1326.7446555736703,1.0002093664569514,0.0004194916227606321
1326.7515999794618,1326.7515999794618,0.9998590184712205,0.00041950415578201306
1326.7585443853463,1326.7585443853463,1.0000118653990602,0.00041947344674114225
1326.765488791138,1326.765488791138,1.0002179119786025,0.00041940590289804135
1326.7724331970226,1326.7724331970226,1.0005387415159546,0.0004195100399775113
1326.779377602721,1326.779377602721,0.9991371985342876,0.00041931188509924087
1326.7863220084196,1326.7863220084196,0.9997084799810736,0.00041936769215565026
1326.7932664142113,1326.7932664142113,1.0001553246119783,0.00041942828736491676
1326.8002108199096,1326.8002108199096,1.0003028555418267,0.00041948680466954286
1326.807155225515,1326.807155225515,1.000429686097209,0.0004195006738259047
1326.8140996312134,1326.8140996312134,0.9999219030965785,0.0004194117981579582
1326.8210440368184,1326.8210440368184,0.999452249146262,0.00041939518657870326
1326.827988442517,1326.827988442517,0.9996689195579662,0.0004194263610962113
1326.8349328480292,1326.8349328480292,0.9999431330467011,0.0004194754253070322
1326.8418772536347,1326.8418772536347,1.000563669882082,0.00041961410089499723
1326.84882165924,1326.84882165924,0.999903762852681,0.0004194359258509037
1326.855766064752,1326.855766064752,0.9999523420944509,0.00041944047819644754
1326.8627104702641,1326.8627104702641,1.0005826972586458,0.00041951324798782775
1326.8696548757766,1326.8696548757766,1.0000559519013346,0.0004194088403748279
1326.876599281289,1326.876599281289,0.9997947119991369,0.0004193309550489117
1326.8835436868007,1326.8835436868007,1.0002018101831571,0.00041930191776802473
1326.89048809222,1326.89048809222,0.9996872961878598,0.0004191404516762791
1326.8974324976384,1326.8974324976384,1.0002761637652227,0.0004191899485750814
1326.904376902965,1326.904376902965,0.9997048879985645,0.0004190733567187023
1326.911321308477,1326.911321308477,0.9994818839782269,0.0004188288706753085
1326.9182657137098,1326.9182657137098,0.9996929798213596,0.00041875368733343724
1326.9252101191287,1326.9252101191287,0.9999519403930852,0.00041873456319918583
1326.9321545244547,1326.9321545244547,1.000267827384024,0.00041861709724189616
1326.9390989296876,1326.9390989296876,1.000785943234644,0.00041852200330787324
1326.9460433350132,1326.9460433350132,0.9999000460776415,0.0004183296051356444
1326.9529877402463,1326.9529877402463,1.000004226862844,0.00041818486076043466
1326.959932145479,1326.959932145479,1.0002752681371025,0.00041820470511701483
1326.966876550712,1326.966876550712,0.999377890058641,0.0004179267046197149
1326.9738209558516,1326.9738209558516,1.0002437976695584,0.000417973307346669
1326.9807653610837,1326.9807653610837,0.9995480130496729,0.00041776429461144797
1326.9877097662243,1326.9877097662243,0.9997798631240518,0.00041771300102336076
1326.9946541713634,1326.9946541713634,1.0002740241772166,0.0004177275345438581
1327.0015985765035,1327.0015985765035,1.000128004188067,0.0004177302259629984
1327.008542981643,1327.008542981643,1.0000519363798925,0.0004177245953742445
1327.0154873866893,1327.0154873866893,1.000025121798831,0.000417599606602753
1327.022431791643,1327.022431791643,0.9996920015311067,0.0004175738457641201
1327.029376196689,1327.029376196689,1.000691117747763,0.00041773924099874286
1327.0363206017362,1327.0363206017362,1.0002396117219425,0.0004176589941138883
1327.0432650066891,1327.0432650066891,1.000300595702181,0.00041767652488912995
1327.0502094115495,1327.0502094115495,1.0001565070048801,0.00041766386118813033
1327.057153816689,1327.057153816689,0.999370756978555,0.0004176272903597303
1327.0649315500173,1327.0649315500173,1.0000160033504735,0.00041770480111464963
1327.0724315074374,1327.0724315074374,1.0000467894713279,0.00041773815706062695
