time,time,flux,flux_err
1354.117751050552,1354.117751050552,0.9999106785589866,9.342203071763816e-05
1354.1258529424122,1354.1258529424122,1.0001351756877224,8.529854804174134e-05
1354.1327974211956,1354.1327974211956,0.9999293548924942,8.52915320435292e-05
1354.139741899793,1354.139741899793,0.9999883174234963,8.52855528328836e-05
1354.146686378344,1354.146686378344,1.0000202657225616,8.529000491652058e-05
1354.1536308568484,1354.1536308568484,0.9999968409915374,8.529024718021192e-05
1354.1605753351664,1354.1605753351664,1.0000568028843437,8.529283603913154e-05
1354.167519813438,1354.167519813438,1.000042676682476,8.529027172030684e-05
1354.1744642916626,1354.1744642916626,0.9999377136904579,8.528462498549386e-05
1354.1814087698415,1354.1814087698415,1.0000630850093803,8.529035867979617e-05
1354.1883532478332,1354.1883532478332,1.0000255340276467,8.528959818376469e-05
1354.1952977258256,1354.1952977258256,0.9999475000872383,8.528645982674627e-05
1354.2022422036778,1354.2022422036778,1.000178325533485,8.529459730482648e-05
1354.2091866815304,1354.2091866815304,0.9999479881588261,8.528816309928791e-05
1354.216131159243,1354.216131159243,0.9998892758226235,8.528455510569233e-05
1354.2230756369092,1354.2230756369092,0.999906119618497,8.528803626723264e-05
1354.230020114342,1354.230020114342,1.0000187407087995,8.529097930478514e-05
1354.236964591869,1354.236964591869,1.0000766322946055,8.529356304711312e-05
1354.2439090692556,1354.2439090692556,0.9999966500645032,8.528859680753682e-05
1354.2508535465495,1354.2508535465495,1.000057807599605,8.529401837491846e-05
1354.257798023796,1354.257798023796,1.0000104313012617,8.528856047159955e-05
1354.2647425009968,1354.2647425009968,0.9999947423264828,8.529084310891747e-05
1354.2716869780575,1354.2716869780575,0.9999325362190816,8.52847247744115e-05
1354.2786314550253,1354.2786314550253,1.0000005959238198,8.528836869702876e-05
1354.285575931946,1354.285575931946,1.0000330227442684,8.528896897288778e-05
1354.2925204087744,1354.2925204087744,0.9999791021142419,8.528509389516105e-05
1354.2994648855554,1354.2994648855554,0.9999409649971414,8.528784360424599e-05
1354.3064093621972,1354.3064093621972,1.0001565629640858,8.529199982015663e-05
1354.3133538388856,1354.3133538388856,0.9999541394119976,8.52832009682349e-05
1354.3202983153874,1354.3202983153874,0.9999921316929623,8.528377275339647e-05
1354.3272427918896,1354.3272427918896,0.9999080416683608,8.528153807096066e-05
1354.3341872681583,1354.3341872681583,0.9999052999391838,8.52841879491094e-05
1354.3411317445207,1354.3411317445207,1.0000208974791498,8.528564526203028e-05
1354.3480762207435,1354.3480762207435,1.0000898242309701,8.528864200591595e-05
1354.3550206968728,1354.3550206968728,1.0001263988569158,8.52879192115648e-05
1354.3619651729557,1354.3619651729557,0.9999653459539359,8.52825766733237e-05
1354.3689096489925,1354.3689096489925,1.000101710255573,8.52858103575315e-05
1354.3758541248885,1354.3758541248885,0.9999596949560434,8.52754240138304e-05
1354.382798600739,1354.382798600739,0.999863552068005,8.527653569954297e-05
1354.3897430765423,1354.3897430765423,0.9999804615217389,8.528142765363383e-05
1354.3966875522524,1354.3966875522524,0.9999635935337977,8.528244982431785e-05
1354.4036320279167,1354.4036320279167,0.999936985700111,8.528008839692006e-05
1354.4105765034406,1354.4105765034406,1.0001012219969527,8.528636759462498e-05
1354.4175209789646,1354.4175209789646,0.9999743816578484,8.528100392786384e-05
1354.424465454303,1354.424465454303,1.0000101452699104,8.52809964889108e-05
1354.43140992964,1354.43140992964,1.0000096916643721,8.528032292134801e-05
1354.4383544049783,1354.4383544049783,1.0000991335076272,8.528245443597405e-05
1354.445298880176,1354.445298880176,0.9999777322451404,8.527625862369009e-05
1354.452243355328,1354.452243355328,1.0000899782818782,8.528523060241869e-05
1354.4591878303866,1354.4591878303866,0.9998596573209217,8.527288585414592e-05
1354.4661323053983,1354.4661323053983,0.9999946833757425,8.528182239088563e-05
1354.4730767803171,1354.4730767803171,0.9999752885783169,8.52809483071064e-05
1354.4800212551424,1354.4800212551424,1.00001326784754,8.528077822969326e-05
1354.4869657299678,1354.4869657299678,0.999941255250862,8.527428857474392e-05
1354.4939102046542,1354.4939102046542,1.0000421153618109,8.527466461735986e-05
1354.5008546792935,1354.5008546792935,1.0000119919707309,8.527869734488352e-05
1354.5077991538394,1354.5077991538394,0.9999658230153967,8.52775751888088e-05
1354.514743628386,1354.514743628386,1.0001756390254153,8.528480690155174e-05
1354.5216881027923,1354.5216881027923,1.0000537978862538,8.527962159144686e-05
1354.5286325771524,1354.5286325771524,0.9998811865013139,8.527499775934247e-05
1354.535577051512,1354.535577051512,1.0000529642658793,8.528219638178007e-05
1354.5425215257328,1354.5425215257328,0.9999996301478606,8.527854488360028e-05
1354.5494659999065,1354.5494659999065,0.9998941327523407,8.527228740619225e-05
1354.5564104739403,1354.5564104739403,1.0000106811255893,8.527762949344071e-05
1354.5633549480203,1354.5633549480203,0.9998994851104376,8.527456048141768e-05
1354.570299421915,1354.570299421915,1.0000048396477985,8.527706205041272e-05
1354.577243895809,1354.577243895809,0.9999583372652386,8.527536079735625e-05
1354.5841883697035,1354.5841883697035,1.0000301591642529,8.527489458643782e-05
1354.5911328434117,1354.5911328434117,1.00007771998267,8.52813956326452e-05
1354.5980773171198,1354.5980773171198,1.0000995471720622,8.52833942539902e-05
1354.6050217907814,1354.6050217907814,1.0000245922160897,8.527681373426174e-05
1354.6119662643027,1354.6119662643027,0.9999678975309176,8.527705939791376e-05
1354.6189107378245,1354.6189107378245,0.9999904997563125,8.527715685893345e-05
1354.6258552112533,1354.6258552112533,1.0000032428618433,8.527619980772747e-05
1354.6327996845887,1354.6327996845887,1.0000027297896268,8.52792149347383e-05
1354.639744157924,1354.639744157924,1.0001056695069714,8.528207918742756e-05
1354.6466886311202,1354.6466886311202,0.9998839590474127,8.52718895132775e-05
1354.6536331043621,1354.6536331043621,0.9998709886485256,8.527664028339107e-05
1354.6605775773721,1354.6605775773721,0.9999075640912979,8.527344142563096e-05
1354.6675220503816,1354.6675220503816,1.0000398160887678,8.527921175500934e-05
1354.6744665233907,1354.6744665233907,1.0000275735923077,8.527762817732937e-05
1354.681410996401,1354.681410996401,1.0000727040033803,8.527851433726263e-05
1354.6883554691772,1354.6883554691772,0.9998996758373313,8.527078722977426e-05
1354.6952999420005,1354.6952999420005,1.0000655985957354,8.527669582445932e-05
1354.7022444146842,1354.7022444146842,1.0002465594579226,8.528182268666907e-05
1354.7091888873679,1354.7091888873679,1.0000007870486038,8.527400002102524e-05
1354.7161333599583,1354.7161333599583,0.9999293279050419,8.526845742891904e-05
1354.7230778325022,1354.7230778325022,1.0000293457873684,8.52709395927353e-05
1354.7300223049526,1354.7300223049526,0.9997688670362503,8.526204922591551e-05
1354.7369667774037,1354.7369667774037,1.000007175343881,8.527125553791601e-05
1354.7439112497145,1354.7439112497145,0.9998932262931337,8.526766696223061e-05
1354.750855721979,1354.750855721979,1.000071861511487,8.527264281633123e-05
1354.7578001942434,1354.7578001942434,1.0001051526331635,8.527494773638444e-05
1354.7647446663682,1354.7647446663682,1.0000982394219755,8.527399113805556e-05
1354.771689138493,1354.771689138493,0.9999908223358892,8.52694302509382e-05
1354.7786336105246,1354.7786336105246,0.9999784987973428,8.52682581418572e-05
1354.7855780824634,1354.7855780824634,0.9999624654102384,8.526702396924671e-05
1354.7925225543088,1354.7925225543088,1.0000964415895566,8.527345213341715e-05
1354.7994670261537,1354.7994670261537,0.9999777106024883,8.526838708151492e-05
1354.8064114979993,1354.8064114979993,0.9999454308262017,8.526551749227403e-05
1354.813355969798,1354.813355969798,0.9999881044932224,8.527141925186561e-05
1354.8203004414106,1354.8203004414106,1.0000069857701763,8.527024456716633e-05
1354.8272449130232,1354.8272449130232,0.9999608663079937,8.526925530125647e-05
1354.8341893845895,1354.8341893845895,0.9998986540504106,8.5269613280408e-05
1354.8411338560622,1354.8411338560622,0.9999428658905876,8.527000324412845e-05
1354.8480783274886,1354.8480783274886,1.0001650254853263,8.527652757320962e-05
1354.855022798868,1354.855022798868,1.0000905465946377,8.527286123529325e-05
1354.8619672701548,1354.8619672701548,1.000031887250873,8.527005972616857e-05
1354.8689117413949,1354.8689117413949,1.000069899538455,8.527164703641387e-05
1354.8758562125881,1354.8758562125881,0.9997987020979462,8.526440505045749e-05
1354.8828006837352,1354.8828006837352,0.999913697029965,8.52704610072635e-05
1354.889745154789,1354.889745154789,1.0000635105838096,8.527274494939646e-05
1354.8966896257964,1354.8966896257964,0.9998977023602118,8.526544218059865e-05
1354.9036340967104,1354.9036340967104,1.0001403951178864,8.527680514922582e-05
1354.9105785676243,1354.9105785676243,1.000002025744732,8.526848049326266e-05
1354.917523038445,1354.917523038445,1.0000314213651431,8.526987998263246e-05
1354.9244675091263,1354.9244675091263,0.9999630358119653,8.526862931016165e-05
1354.9314119798541,1354.9314119798541,1.0000212057026183,8.526826187016704e-05
1354.939467565798,1354.939467565798,0.999859093366515,8.526418822735836e-05
1354.9466898153064,1354.9466898153064,1.000224265102842,8.528007550735622e-05
1354.9536342858014,1354.9536342858014,0.9999915365830588,8.527017956937577e-05
1354.9605787562498,1354.9605787562498,0.999934689094258,8.526540947738927e-05
1354.9675232266982,1354.9675232266982,0.9999296704145179,8.52625910552811e-05
1354.9744676970065,1354.9744676970065,1.000053712639546,8.52686632506111e-05
1354.9814121673157,1354.9814121673157,1.000091523093139,8.526933243211988e-05
1354.9883566375315,1354.9883566375315,0.9998693891859617,8.526517854647402e-05
1354.9953011077,1354.9953011077,0.9999643471312677,8.527076322086943e-05
1355.0022455777762,1355.0022455777762,0.9999371803116819,8.526729056990414e-05
1355.0091900478983,1355.0091900478983,1.0000168078707328,8.526961317355424e-05
1355.0161345178815,1355.0161345178815,1.000198798579249,8.527760245995656e-05
1355.0230789878174,1355.0230789878174,0.9999931094087531,8.526732615110368e-05
1355.0300234577535,1355.0300234577535,0.9999826325980603,8.526342958546404e-05
1355.0369679275504,1355.0369679275504,0.9999244362057056,8.526691657792995e-05
1355.0439123973,1355.0439123973,0.9999961382586056,8.52703513214822e-05
1355.05085686705,1355.05085686705,1.0000325656017117,8.526995380328257e-05
1355.05780133666,1355.05780133666,0.9999477418118268,8.526496988472733e-05
1355.0647458062238,1355.0647458062238,0.9999050441977289,8.526389364145631e-05
1355.0716902759275,1355.0716902759275,0.999996233739364,8.526670706918274e-05
1355.078634745258,1355.078634745258,1.0001563346051816,8.527429881524478e-05
1355.085579214728,1355.085579214728,0.9999440463234546,8.52634820889754e-05
1355.092523684106,1355.092523684106,1.0001014877520713,8.527255676020328e-05
1355.0994681534366,1355.0994681534366,1.0000215278005915,8.52670264961202e-05
1355.1064126226743,1355.1064126226743,0.9999940518665047,8.526801251261419e-05
1355.1133570919123,1355.1133570919123,0.9999413649768376,8.526480067855199e-05
1355.1203015610565,1355.1203015610565,0.9999032796370237,8.526170707344626e-05
1355.1272460301082,1355.1272460301082,1.0000276664774188,8.526621583307921e-05
1355.1341904991596,1355.1341904991596,0.9999848012811471,8.526497640597623e-05
1355.1411349681175,1355.1411349681175,0.999954536214614,8.526432757844636e-05
1355.148079437076,1355.148079437076,1.00006264240814,8.526737993494011e-05
1355.1550239059416,1355.1550239059416,1.000069532130736,8.527180446494303e-05
1355.16196837476,1355.16196837476,0.9999791634201184,8.526912564289542e-05
1355.1689128434855,1355.1689128434855,0.9999968532624106,8.527128387484211e-05
1355.1758573122108,1355.1758573122108,0.9999107764669951,8.526608460064929e-05
1355.1828017808434,1355.1828017808434,1.0000388367077884,8.526980123264384e-05
1355.189746249429,1355.189746249429,1.0000509721970294,8.526802755784062e-05
1355.1966907179215,1355.1966907179215,0.9999717000398762,8.526642897488864e-05
1355.2036351865074,1355.2036351865074,1.0000425932568688,8.527123374328862e-05
1355.21057965486,1355.21057965486,1.0000527154230587,8.527111650524221e-05
1355.2175241232133,1355.2175241232133,0.9999607082380839,8.526730869175103e-05
1355.2244685915662,1355.2244685915662,1.0001075638069092,8.527671429855951e-05
1355.231413059826,1355.231413059826,0.9999753237456586,8.527058449336259e-05
1355.2383575280394,1355.2383575280394,0.9998953338966228,8.526690783584089e-05
1355.2453019961595,1355.2453019961595,0.9997307162170719,8.526022392440558e-05
1355.2522464642327,1355.2522464642327,1.0001812960868597,8.527900057440444e-05
1355.2591909323064,1355.2591909323064,1.0000017170509685,8.52712728848008e-05
1355.266135400287,1355.266135400287,0.9999609822304221,8.527109524181742e-05
1355.2730798682205,1355.2730798682205,1.0001181023184702,8.527561672191135e-05
1355.2800243361078,1355.2800243361078,1.0000340225680466,8.527262143113574e-05
1355.2869688039018,1355.2869688039018,1.0000704063350567,8.52761291315718e-05
1355.29391327165,1355.29391327165,0.9999038918119219,8.526601721201558e-05
1355.300857739397,1355.300857739397,1.0001289990699564,8.527262339374025e-05
1355.3078022070517,1355.3078022070517,0.9998099884774352,8.526079551513182e-05
1355.3147466746598,1355.3147466746598,1.000014293531902,8.526873226704536e-05
1355.3216911421744,1355.3216911421744,0.9999727474082221,8.526709483289139e-05
1355.3286356096892,1355.3286356096892,0.9999789955006799,8.526924195677201e-05
1355.3361356345326,1355.3361356345326,1.0000801021673338,8.527776866625176e-05
1355.3439134379234,1355.3439134379234,0.9999248447276076,8.527102902180902e-05
1355.3508579053453,1355.3508579053453,1.0001430745610362,8.528004510740994e-05
1355.3578023725338,1355.3578023725338,0.9999645084313213,8.527188001043128e-05
1355.3647468397226,1355.3647468397226,0.9999685265352893,8.527103729516876e-05
1355.3716913069115,1355.3716913069115,1.0000572967459633,8.527087723294247e-05
1355.3786357741003,1355.3786357741003,0.9999135922782181,8.52647158033394e-05
1355.3855802410562,1355.3855802410562,0.9999581189921682,8.526475338245973e-05
1355.3925247081054,1355.3925247081054,0.9999569032348147,8.526771350406943e-05
1355.4003025110774,1355.4003025110774,1.0001529204465271,8.527922837663695e-05
1355.4078025352687,1355.4078025352687,0.9998736050460227,8.526800409297567e-05
1355.414747002085,1355.414747002085,1.0000266691765782,8.52704384981593e-05
1355.4216914689011,1355.4216914689011,1.0001677160573266,8.528026831939181e-05
1355.4286359355779,1355.4286359355779,1.0000111346711287,8.52675099883618e-05
1355.435580402301,1355.435580402301,0.9999059257874517,8.52651673069377e-05
1355.4425248689308,1355.4425248689308,0.9999943138138999,8.526993779176281e-05
1355.4494693354213,1355.4494693354213,0.9999485938888408,8.526612373485332e-05
1355.4564138019582,1355.4564138019582,0.9999321065650474,8.526813962403039e-05
1355.4633582684019,1355.4633582684019,1.0000864792587199,8.527836208300189e-05
1355.470302734799,1355.470302734799,0.9998755633810508,8.526350735501613e-05
1355.4772472011496,1355.4772472011496,1.0001684626948406,8.527726232169575e-05
1355.4841916674536,1355.4841916674536,0.9999712328846432,8.526732053113154e-05
1355.4911361337113,1355.4911361337113,0.9999511575012114,8.526799844179002e-05
1355.4980805998755,1355.4980805998755,0.9999790776969792,8.526847292229486e-05
1355.505025065993,1355.505025065993,1.0001508435388362,8.527661973582786e-05
1355.5119695320177,1355.5119695320177,1.0000561748883914,8.527382873379208e-05
1355.5189139980425,1355.5189139980425,0.9998743576717312,8.526631878547235e-05
1355.5258584640667,1355.5258584640667,1.0000301981207091,8.527227792823516e-05
1355.532802930045,1355.532802930045,1.0000436453199242,8.527427658780887e-05
1355.5397473958838,1355.5397473958838,0.9998992020081021,8.526158027986697e-05
1355.5466918617217,1355.5466918617217,0.9999411423325946,8.526623163880091e-05
1355.5536363275137,1355.5536363275137,1.0000252020927645,8.527010989944843e-05
1355.560580793166,1355.560580793166,0.9999896993215677,8.527307775725099e-05
1355.5675252588178,1355.5675252588178,0.9999756323759883,8.527232346418765e-05
1355.5744697244702,1355.5744697244702,1.0000430611136815,8.527402949338019e-05
1355.5814141899823,1355.5814141899823,1.0000336904150222,8.527432987544674e-05
1355.5883586555415,1355.5883586555415,0.9999634248909178,8.526817046725004e-05
1355.5953031210072,1355.5953031210072,1.0002274535649835,8.528121755879277e-05
1355.60224758638,1355.60224758638,0.9998710779842804,8.526577335009661e-05
1355.609192051706,1355.609192051706,1.0000242846124663,8.527558918586717e-05
1355.6161365170324,1355.6161365170324,0.999987434617694,8.526887674765183e-05
1355.623080982265,1355.623080982265,0.9998868105872847,8.52707977107539e-05
1355.6300254474052,1355.6300254474052,1.0000407978539247,8.527761409128665e-05
1355.6369699125917,1355.6369699125917,1.000027051767124,8.527500845966888e-05
1355.6439143776383,1355.6439143776383,0.9999772877162391,8.526876403398366e-05
1355.6508588427316,1355.6508588427316,0.999957686717446,8.52689750244025e-05
1355.657803307639,1355.657803307639,1.0000001075538552,8.527336711634074e-05
1355.6647477726856,1355.6647477726856,1.0000094903640018,8.52675086926387e-05
1355.671692237546,1355.671692237546,1.0000087628875858,8.527387793584094e-05
1355.67863670236,1355.67863670236,1.0001423406046406,8.52809680132119e-05
1355.6855811670343,1355.6855811670343,1.000004614079336,8.527647732673069e-05
1355.6925256318013,1355.6925256318013,0.9999404610815448,8.527122624600316e-05
1355.6994700964758,1355.6994700964758,1.0002001348343914,8.528139906887784e-05
1355.7064145611034,1355.7064145611034,0.9997670690856975,8.52612774623626e-05
1355.7133590256842,1355.7133590256842,0.9998901753454532,8.526530229304309e-05
1355.7203034901725,1355.7203034901725,1.0002109232795433,8.527545536145782e-05
1355.7272479546605,1355.7272479546605,1.0000016096797766,8.52728270624323e-05
1355.734192419055,1355.734192419055,1.0001248571153774,8.527438199240133e-05
1355.7411368834037,1355.7411368834037,0.9998943945335487,8.526942733690208e-05
1355.7491924619899,1355.7491924619899,0.9999982952564862,8.52713887472304e-05
1355.7564147048392,1355.7564147048392,0.9999847514432348,8.526822953674231e-05
1355.7633591690012,1355.7633591690012,1.000014378301793,8.527266672411894e-05
1355.7703036331168,1355.7703036331168,0.999940067620285,8.527063010082303e-05
1355.7772480972321,1355.7772480972321,0.999985657640473,8.52731431131927e-05
1355.7841925612543,1355.7841925612543,1.0000968570638826,8.527842361165464e-05
1355.7911370252766,1355.7911370252766,1.0000645584577352,8.527480515518543e-05
1355.7980814892062,1355.7980814892062,0.9997692419287538,8.525895721922911e-05
1355.8050259530887,1355.8050259530887,0.9997895514618229,8.526354209330177e-05
1355.8119704169246,1355.8119704169246,1.0000908801670718,8.527497252428362e-05
1355.8189148807144,1355.8189148807144,1.0000082380385318,8.526930024619385e-05
1355.8258593444102,1355.8258593444102,1.0000666558182842,8.5270022557619e-05
1355.8328038081067,1355.8328038081067,1.000157179628122,8.527935600692305e-05
1355.8397482718033,1355.8397482718033,1.000039711994089,8.527349269590439e-05
1355.8466927352663,1355.8466927352663,0.9999338323138796,8.526997633593786e-05
1355.8536371988234,1355.8536371988234,1.0000828704608993,8.527812081263505e-05
1355.8605816623335,1355.8605816623335,0.9997915926567611,8.526336576627848e-05
1355.8675261257501,1355.8675261257501,1.0000547332114045,8.527132865442249e-05
1355.8744705891208,1355.8744705891208,0.999830885481976,8.526264028916793e-05
1355.8814150524445,1355.8814150524445,1.0000545794766809,8.527444011885938e-05
1355.8883595157217,1355.8883595157217,1.0000292806470736,8.527263305059123e-05
