time,time,flux,flux_err
1325.3018709114278,1325.3018709114278,1.000272425344277,0.00016596861537191332
1325.3102042680887,1325.3102042680887,0.999908465492299,0.00016593801791443824
1325.3185376247886,1325.3185376247886,0.9998354149229597,0.000165948771552691
1325.3261765350994,1325.3261765350994,1.0000312782572451,0.00015150645889870743
1325.3331209990517,1325.3331209990517,0.9998275879730766,0.00015149684514687798
1325.3400654630975,1325.3400654630975,0.9999051621252806,0.0001515018262050167
1325.3470099271435,1325.3470099271435,1.0000778740953638,0.00015151776154716845
1325.353954391329,1325.353954391329,1.0000559190191738,0.0001515323284155634
1325.360898855468,1325.360898855468,0.9998725408084178,0.0001515291255541339
1325.3678433196537,1325.3678433196537,0.9999649760768694,0.000151539069701323
1325.3747877838853,1325.3747877838853,0.9996803590865456,0.0001515163708274182
1325.3817322481175,1325.3817322481175,1.0000593342318504,0.00015154100889579314
1325.3886767124427,1325.3886767124427,1.0002042817161536,0.0001515805380099656
1325.3956211767677,1325.3956211767677,0.9999521649964145,0.00015156715124758826
1325.4025656411395,1325.4025656411395,1.0001404132976162,0.00015159152380032066
1325.4095101055582,1325.4095101055582,0.9998846806642383,0.00015156713834972251
1325.4164545700226,1325.4164545700226,1.0000584568121096,0.00015159463454178247
1325.4233990344878,1325.4233990344878,1.0001052143268272,0.0001516051667387946
1325.4303434989993,1325.4303434989993,0.9997504378238968,0.0001515893469682088
1325.4372879635105,1325.4372879635105,1.000037879104156,0.00015161440447770022
1325.4442324281617,1325.4442324281617,0.9999733958716046,0.00015160862336416396
1325.4511768927662,1325.4511768927662,0.9999202226209569,0.00015161607892143092
1325.4581213574174,1325.4581213574174,0.9999154418428441,0.0001516415023494275
1325.4650658221615,1325.4650658221615,1.0000850230245537,0.00015163413727368032
1325.4720102868591,1325.4720102868591,1.000148354655648,0.00015165415647299665
1325.4789547516502,1325.4789547516502,0.999995304126025,0.0001516451367572775
1325.485899216441,1325.485899216441,0.9999786391446364,0.00015165780529698063
1325.492843681325,1325.492843681325,0.9999571133557342,0.00015165566300514509
1325.499788146209,1325.499788146209,0.9999719993965535,0.000151665693302071
1325.5067326110927,1325.5067326110927,1.0001316776451947,0.00015168405156938702
1325.5136770760703,1325.5136770760703,0.9999114131880932,0.0001516773938493044
1325.5206215410474,1325.5206215410474,1.000026140413736,0.0001516970519657584
1325.5275660060709,1325.5275660060709,0.9997890908296256,0.00015169757138205865
1325.5345104710943,1325.5345104710943,1.0000677627206185,0.0001517177161629021
1325.5414549362577,1325.5414549362577,1.0001726913127185,0.00015173767968016744
1325.5483994012816,1325.5483994012816,0.9999795703905576,0.0001517231020680611
1325.5553438664447,1325.5553438664447,0.9998397337703355,0.00015172219323344088
1325.5622883316553,1325.5622883316553,0.9999966511410034,0.00015174451964769926
1325.569232796865,1325.569232796865,1.0000862464519238,0.00015175559753610588
1325.5761772620747,1325.5761772620747,0.9999895348836422,0.00015175052177379418
1325.5831217275177,1325.5831217275177,1.0000828888295414,0.00015177089580458716
1325.5900661927276,1325.5900661927276,0.9999129273869567,0.00015177184362380063
1325.5970106581703,1325.5970106581703,1.0001466011810374,0.00015179129327999504
1325.6039551235199,1325.6039551235199,1.0000353298997038,0.00015179339914027525
1325.6108995889158,1325.6108995889158,0.999992930451762,0.00015180305647703973
1325.617844054359,1325.617844054359,1.0000284082874369,0.00015180003368992737
1325.624788519848,1325.624788519848,0.9998764304596405,0.00015178554754755188
1325.6317329853375,1325.6317329853375,0.9999355543609498,0.00015179747098835868
1325.63867745092,1325.63867745092,1.0001380438236134,0.00015180614961878087
1325.6456219164095,1325.6456219164095,0.9997759235622397,0.00015178101282267546
1325.6525663820387,1325.6525663820387,0.9999604952049108,0.00015179959494787405
1325.6595108477138,1325.6595108477138,0.9999399103716407,0.00015180172462646768
1325.6664553133428,1325.6664553133428,0.9999342234748341,0.00015179742556633297
1325.6733997790184,1325.6733997790184,1.0001980853314423,0.00015180580544032669
1325.6803442446944,1325.6803442446944,1.000287480740377,0.0001518154760234582
1325.6872887105096,1325.6872887105096,0.9995444559420814,0.00015176557594019904
1325.6942331762782,1325.6942331762782,1.0001771244629345,0.00015180455130476907
1325.7011776420936,1325.7011776420936,0.9999901540931827,0.0001518099769469787
1325.7081221078624,1325.7081221078624,1.0000124682885634,0.000151804241066464
1325.7150665737242,1325.7150665737242,1.0000364611419696,0.00015181157999988128
1325.722011039586,1325.722011039586,0.9999053701358344,0.00015181977652887793
1325.7289555054945,1325.7289555054945,0.9997487867355506,0.00015180939630982606
1325.7358999714493,1325.7358999714493,1.000101218780857,0.0001518439601160101
1325.7428444373577,1325.7428444373577,1.0000094423531478,0.0001518513991838916
1325.7497889033593,1325.7497889033593,1.0000446450457166,0.00015186479915609512
1325.7567333693146,1325.7567333693146,1.0001429445695404,0.00015187051177952378
1325.7636778354092,1325.7636778354092,1.0000918808822492,0.00015188819152824046
1325.7706223014106,1325.7706223014106,0.9999071535793107,0.00015187835640034423
1325.7775667675053,1325.7775667675053,0.9999783392335004,0.0001518834389167266
1325.7845112336465,1325.7845112336465,0.9997893734293187,0.0001518859995546659
1325.7914556997414,1325.7914556997414,0.9999567374829713,0.0001519074057712003
1325.7984001658826,1325.7984001658826,1.0000321043827494,0.00015191411032394102
1325.8053446320705,1325.8053446320705,0.9999158452604634,0.00015191570957259024
1325.8122890983052,1325.8122890983052,1.0001154957655096,0.00015193492126947382
1325.8192335644458,1325.8192335644458,0.9999689203776081,0.00015192425220704226
1325.826178030727,1325.826178030727,1.0002298355404733,0.00015194776152587834
1325.8331224969616,1325.8331224969616,1.0001033163998785,0.00015195657640852735
1325.8400669633356,1325.8400669633356,1.000006819014335,0.00015195131647680732
1325.8470114295235,1325.8470114295235,0.9999423573038694,0.00015194603750201454
1325.8539558958505,1325.8539558958505,0.9999705050198952,0.00015196146335511902
1325.860900362225,1325.860900362225,0.9998355201108451,0.0001519409033821366
1325.867844828599,1325.867844828599,1.0000177401681714,0.00015196241461716008
1325.8747892949734,1325.8747892949734,1.0000517419921369,0.0001519559442857554
1325.8817337613475,1325.8817337613475,0.9997591726611269,0.000151943879590933
1325.8886782277682,1325.8886782277682,0.9999737952905605,0.00015193044961592234
1325.8956226943283,1325.8956226943283,0.9999002972887311,0.00015192972191775813
1325.9025671607026,1325.9025671607026,1.0003750203777142,0.00015195531296896227
1325.9095116272163,1325.9095116272163,0.9998471181460957,0.00015192286253937773
1325.9164560936836,1325.9164560936836,1.0001060638527117,0.0001519340517691141
1325.9234005602436,1325.9234005602436,1.0002453279687686,0.00015193742135912852
1325.9303450267578,1325.9303450267578,0.999874848784225,0.00015192948546849874
1325.9372894932712,1325.9372894932712,0.9999534338266182,0.00015193035738543
1325.9442339598784,1325.9442339598784,1.0000499512099637,0.00015193726044108346
1325.951178426439,1325.951178426439,0.9997443517090792,0.00015191555541442108
1325.9581228930456,1325.9581228930456,1.0000616112469425,0.00015193009068124028
1325.9659006956176,1325.9659006956176,1.000129544139823,0.00015193064630917533
1325.9734007196273,1325.9734007196273,0.9998803241920955,0.0001519372988486058
1325.980345186281,1325.980345186281,1.0001750426231633,0.0001519566681507789
1325.9872896529344,1325.9872896529344,0.9998331946163367,0.0001519298959577177
1325.9942341195879,1325.9942341195879,0.9998954537014686,0.00015193540662714614
1326.0011785863348,1326.0011785863348,1.0000169172564597,0.00015195086405150846
1326.008123052988,1326.008123052988,1.0002830753545568,0.00015196714656925302
1326.0150675197815,1326.0150675197815,1.0000033275446851,0.0001519592023235868
1326.0220119864348,1326.0220119864348,0.999812576564878,0.000151964537035414
1326.0289564532281,1326.0289564532281,1.0000414767558565,0.00015198380629712294
1326.0359009199747,1326.0359009199747,0.999821468700306,0.0001519755291200592
1326.0428453867212,1326.0428453867212,1.0002009708473842,0.0001519981140160022
1326.049789853561,1326.049789853561,1.0000054475525288,0.00015198304656845687
1326.056734320354,1326.056734320354,1.0000460562070537,0.00015199174504535937
1326.063678787194,1326.063678787194,0.9999327822255237,0.0001519902429394855
1326.0706232539874,1326.0706232539874,0.9999971268233271,0.00015200212199224274
1326.0775677208267,1326.0775677208267,1.00004110805748,0.00015200949970852246
1326.0845121876669,1326.0845121876669,0.9999798999937328,0.00015201256568857146
1326.0914566545064,1326.0914566545064,0.9999391347142901,0.00015201591247526925
1326.098401121393,1326.098401121393,0.9999319326634705,0.00015200968174408904
1326.105345588279,1326.105345588279,1.0001278731193666,0.00015203084791419165
1326.1122900551652,1326.1122900551652,1.0000778568519055,0.00015202681765085548
1326.1192345220984,1326.1192345220984,0.999972899425291,0.00015201742876506764
1326.1261789889377,1326.1261789889377,1.0000251339514308,0.00015203150006365185
1326.1331234559177,1326.1331234559177,0.9997522585138711,0.0001520005588650846
1326.1400679228504,1326.1400679228504,0.9998974760277838,0.0001520260297897621
1326.1470123897366,1326.1470123897366,1.0002296301598892,0.00015204474640693864
1326.1539568566698,1326.1539568566698,0.9999649013426822,0.0001520233187181343
1326.1609013236025,1326.1609013236025,1.0000319402487023,0.0001520285854689755
1326.1678457905823,1326.1678457905823,1.0003430609177069,0.00015205645875381312
1326.1747902575614,1326.1747902575614,0.9999060590885802,0.00015203183941049544
1326.1817347245874,1326.1817347245874,1.000151121872425,0.0001520422159734791
1326.1886791915667,1326.1886791915667,1.0000198878242355,0.00015204403701902911
1326.1956236584995,1326.1956236584995,1.000070667297114,0.00015204178141038784
1326.2025681255259,1326.2025681255259,1.0000187195868147,0.0001520353667360661
1326.2095125925516,1326.2095125925516,1.0000857886764067,0.00015204320756901857
1326.2164570595314,1326.2164570595314,1.0000760013022194,0.00015204913949077025
1326.2234015265572,1326.2234015265572,0.9997522489723785,0.00015202644371630674
1326.2303459935833,1326.2303459935833,1.000058617596412,0.00015204616903060107
1326.2372904606095,1326.2372904606095,0.9997129535925346,0.00015203184969417917
1326.2442349276816,1326.2442349276816,1.0002511736623456,0.00015206893783175794
1326.2511793947083,1326.2511793947083,1.0000200686499487,0.00015204750957009547
1326.2581238617338,1326.2581238617338,0.9999577336956962,0.00015203494936418292
1326.2650683287602,1326.2650683287602,0.9998469143681123,0.0001520352972392084
1326.2720127958326,1326.2720127958326,1.000132231779129,0.00015204518078135417
1326.2789572629051,1326.2789572629051,1.0000546891644235,0.00015203982732934243
1326.2859017299781,1326.2859017299781,1.0001386316386984,0.0001520507569165538
1326.2928461970505,1326.2928461970505,1.0001283434578876,0.00015205339778432604
1326.2997906641228,1326.2997906641228,1.0000279458845267,0.00015204644870493088
1326.3067351311954,1326.3067351311954,0.9998455571551285,0.00015202905484432803
1326.3136795982682,1326.3136795982682,0.9999267497800656,0.0001520416561056387
1326.320624065341,1326.320624065341,0.9998901261031055,0.0001520378142701767
1326.3275685324134,1326.3275685324134,0.9999439774220586,0.00015204205971034915
1326.334512999533,1326.334512999533,0.9999504999078812,0.00015205110006200992
1326.341457466605,1326.341457466605,0.9998755958721736,0.00015205650668296105
1326.348957491034,1326.348957491034,1.0004832369244565,0.00015209588010036275
1326.358124187626,1326.358124187626,0.9998497551244465,0.00015205580511752206
1326.3650686546987,1326.3650686546987,1.000209277967604,0.00015208411737078524
1326.3720131218176,1326.3720131218176,1.000020913204984,0.00015207657350501853
1326.3789575888902,1326.3789575888902,0.9999153185400707,0.0001520693140005814
1326.3859020560094,1326.3859020560094,0.9999918574008124,0.000152082609114253
1326.3928465231286,1326.3928465231286,0.9998376422020929,0.0001520777389013789
1326.3997909902012,1326.3997909902012,0.9998641029821768,0.0001520897063891097
1326.4067354573203,1326.4067354573203,1.0000568547198743,0.00015211184255841447
1326.4136799243931,1326.4136799243931,0.9999693215076719,0.00015209903772427338
1326.4206243915123,1326.4206243915123,0.9999711432678096,0.0001521175960917533
1326.4275688586313,1326.4275688586313,1.0000395380929654,0.00015210571483265442
1326.4345133257038,1326.4345133257038,0.9998699600113069,0.00015209500570735198
1326.441457792823,1326.441457792823,1.0001917631372068,0.00015212259142250174
1326.4484022599424,1326.4484022599424,1.000065672778089,0.00015212328969182366
1326.4553467270148,1326.4553467270148,1.0001823526068083,0.0001521287118169061
1326.4622911940874,1326.4622911940874,1.0001972953219327,0.00015213983183884065
1326.4692356612063,1326.4692356612063,0.9999044935421836,0.0001521126292331607
1326.476180128279,1326.476180128279,0.9995803571920092,0.00015210218043801478
1326.4831245953987,1326.4831245953987,0.9998410008262166,0.00015211798323876242
1326.4900690624709,1326.4900690624709,1.0002282058558662,0.00015215720699744283
1326.4970135295903,1326.4970135295903,1.000120333230953,0.0001521497883985262
1326.5039579966626,1326.5039579966626,1.0000408509218688,0.00015214878520007234
1326.5109024637352,1326.5109024637352,0.9997742748545393,0.0001521336968119716
1326.517846930808,1326.517846930808,1.000003447003189,0.00015214784794241373
1326.5247913979272,1326.5247913979272,1.0000441180529367,0.00015216026362600092
1326.5317358649997,1326.5317358649997,1.0001916219629365,0.00015216644227072912
1326.538680332072,1326.538680332072,0.9999284140572904,0.0001521539333014942
1326.545624799145,1326.545624799145,0.9998661386497822,0.00015215806415250224
1326.5525692662175,1326.5525692662175,1.0000996926087322,0.00015218427727711891
1326.5595137332898,1326.5595137332898,1.0000044953058136,0.00015218671184698024
1326.566458200316,1326.566458200316,1.0001834514937713,0.00015218806817221002
1326.5734026673888,1326.5734026673888,0.9997682764008283,0.0001521676595692732
1326.580347134415,1326.580347134415,0.9998573981235787,0.00015217592609993459
1326.587291601487,1326.587291601487,0.9999557162136176,0.00015218814581478759
1326.59423606856,1326.59423606856,1.0002996773100723,0.000152220779410794
1326.601180535586,1326.601180535586,1.0001876396537575,0.00015220727402974498
1326.608125002612,1326.608125002612,0.9999936083324694,0.0001521988965174626
1326.6150694696385,1326.6150694696385,0.9999557158362778,0.00015220299051337829
1326.6220139366637,1326.6220139366637,1.0001747176842652,0.00015221440210826852
1326.6289584036901,1326.6289584036901,0.9999234160519912,0.0001521981709584421
1326.6359028707159,1326.6359028707159,0.9999111015509609,0.00015218458479312303
1326.6428473376957,1326.6428473376957,0.9997109816892393,0.0001521783992977919
1326.6497918046748,1326.6497918046748,1.000194864741859,0.00015221690805761821
1326.6567362717478,1326.6567362717478,0.9999926213579979,0.00015219559498325848
1326.6636807386808,1326.6636807386808,1.0000995468075637,0.00015219956309353423
1326.6706252056597,1326.6706252056597,0.999853743147465,0.0001521817527674304
1326.6775696726397,1326.6775696726397,1.0001722189865212,0.00015220314908936402
1326.6845141396657,1326.6845141396657,1.0001475024761235,0.00015219952337470046
1326.692569721358,1326.692569721358,1.000258394006084,0.00015219771198684244
1326.6997919669923,1326.6997919669923,0.9996825654377975,0.000152161539666722
1326.7067364339252,1326.7067364339252,0.9999685708475694,0.0001521781042959474
1326.7142364582612,1326.7142364582612,0.999811957392421,0.00015215201651641016
1326.7220142611127,1326.7220142611127,0.9997194889700441,0.00015215822907157633
1326.728958728092,1326.728958728092,1.0000788979783106,0.00015216978341620264
1326.735903195025,1326.735903195025,1.000198898305412,0.00015217983941616598
1326.7428476619116,1326.7428476619116,1.0000050813766863,0.00015215980163922567
1326.7497921288439,1326.7497921288439,1.0002065345340934,0.00015217400457856093
1326.75673659573,1326.75673659573,1.000135437211084,0.0001521720188198086
1326.7636810626168,1326.7636810626168,1.0000489354051163,0.00015215475251878705
1326.7706255295031,1326.7706255295031,0.9999323486547016,0.00015214498174253834
1326.7775699963893,1326.7775699963893,0.9996593607727855,0.0001521230824629078
1326.7845144632292,1326.7845144632292,0.9999632656724611,0.00015214592339309578
1326.7914589301156,1326.7914589301156,0.9999926919024581,0.00015215070585317957
1326.7984033969553,1326.7984033969553,0.999836642846365,0.0001521442880505513
1326.8053478637487,1326.8053478637487,1.0001857920847936,0.000152172965675671
1326.8122923305882,1326.8122923305882,1.0001830396770106,0.00015217175433718824
1326.819236797428,1326.819236797428,1.0001850897787832,0.00015217030604681265
1326.826181264221,1326.826181264221,0.999864045460795,0.0001521463586867501
1326.8331257310608,1326.8331257310608,0.9999398937622523,0.00015214841422504557
1326.8400701978076,1326.8400701978076,0.9996914014586393,0.00015213264610258265
1326.8470146645543,1326.8470146645543,0.9997931176876508,0.00015213678361047358
1326.853959131394,1326.853959131394,1.0000984583745998,0.00015215725139758159
1326.8609035981408,1326.8609035981408,1.0002687883578254,0.00015216777829689997
1326.867848064841,1326.867848064841,0.9998994043463509,0.00015214928179010438
1326.874792531634,1326.874792531634,0.9998482348700233,0.0001521429610877954
1326.881736998334,1326.881736998334,1.0001885511536486,0.00015215793312048153
1326.8886814650807,1326.8886814650807,0.9999175848688221,0.00015213202461153216
1326.8956259317806,1326.8956259317806,0.9999648602845271,0.00015212954694090853
1326.9025703984812,1326.9025703984812,1.000119269961337,0.00015211869127277657
1326.9095148651809,1326.9095148651809,1.0001902333670512,0.00015212716068586755
1326.9164593318342,1326.9164593318342,0.999726031960017,0.0001520832093745243
1326.9234037985345,1326.9234037985345,0.9998945968961521,0.00015208914849604803
1326.930348265188,1326.930348265188,0.9997541232162476,0.00015206004145213467
1326.937292731795,1326.937292731795,1.0002630516707953,0.0001520840146237321
1326.9442371984483,1326.9442371984483,1.0000832690570713,0.0001520699348685367
1326.9511816650554,1326.9511816650554,1.0000384989483293,0.00015205437712508153
1326.9581261316623,1326.9581261316623,1.0001009741888587,0.00015205441278838205
1326.9650705982694,1326.9650705982694,0.9999525931550253,0.00015203286964222447
1326.9720150648761,1326.9720150648761,0.9997913855872549,0.00015201217036089185
1326.9789595314364,1326.9789595314364,1.000144226876541,0.00015202918718668963
1326.9859039979506,1326.9859039979506,1.0001138315968165,0.00015201782913692582
1326.992848464557,1326.992848464557,1.000033860056412,0.00015201196742748943
1326.9997929310714,1326.9997929310714,0.9997965757375106,0.00015198115174723084
1327.0067373975385,1327.0067373975385,0.9998885688678059,0.0001519942974224579
1327.0136818641454,1327.0136818641454,1.0001306847680183,0.0001520102263734676
1327.020626330566,1327.020626330566,0.9999319702499779,0.00015199603001537227
1327.0275707971264,1327.0275707971264,0.999995696752146,0.00015200119902821323
1327.0345152635007,1327.0345152635007,1.0001710311011307,0.00015200973985733738
1327.0414597301071,1327.0414597301071,1.0000633291045011,0.0001520016343604307
1327.0484041964817,1327.0484041964817,0.9997947046088569,0.00015198767897601478
1327.0553486628555,1327.0553486628555,0.9999394852533982,0.0001519875955215956
