time,time,flux,flux_err
1325.2991103624197,1325.2991103624197,0.9975233767851029,0.007164000481459537
1325.3074438577285,1325.3074438577285,1.002617491187112,0.007180038689709396
1325.315777353243,1325.315777353243,0.998491711638967,0.0071960745305832425
1325.3234163909724,1325.3234163909724,1.0113806340909446,0.006597219003953825
1325.3303609708703,1325.3303609708703,1.0016187327872041,0.006613799419596687
1325.337305550905,1325.337305550905,0.9893964550706515,0.006633667539265038
1325.3442501310737,1325.3442501310737,0.9994103028899624,0.00666816841271547
1325.3511947113761,1325.3511947113761,0.9855692861989906,0.006683687609110545
1325.3581392918054,1325.3581392918054,1.0036709641963542,0.006715276553463147
1325.3650838723656,1325.3650838723656,1.0032627321166694,0.0067454038651605765
1325.3720284530532,1325.3720284530532,1.0095391844376551,0.006784310213728469
1325.3789730338653,1325.3789730338653,1.0022075287435743,0.006812674681181481
1325.3859176148023,1325.3859176148023,0.9947618907059436,0.006842330115614829
1325.3928621958585,1325.3928621958585,0.9942450492154933,0.006870540259593182
1325.3998067770385,1325.3998067770385,1.000440714827159,0.006902443974526803
1325.4067513583336,1325.4067513583336,1.006022089335597,0.0069327359729154684
1325.4136959397479,1325.4136959397479,1.003432882691025,0.0069647153865650974
1325.4206405212785,1325.4206405212785,0.9974632681550158,0.007001606050703496
1325.427585102921,1325.427585102921,0.99237472572742,0.007036781000407752
1325.4345296846773,1325.4345296846773,1.0012476926323006,0.007073491610498368
1325.4414742665426,1325.4414742665426,1.0005820120937572,0.0071087083427163866
1325.4484188485171,1325.4484188485171,1.0006903139657088,0.0071456053783245
1325.4553634306008,1325.4553634306008,1.007625521093829,0.007193636234854859
1325.4623080127935,1325.4623080127935,0.9966965562481521,0.007228732801608288
1325.4692525950868,1325.4692525950868,1.004381615200991,0.007277506740857935
1325.4761971774847,1325.4761971774847,0.9977584076625543,0.007316796006969974
1325.4831417599844,1325.4831417599844,0.9982466110383227,0.0073577554015650335
1325.4900863425835,1325.4900863425835,1.00041236769704,0.007398092538633735
1325.4970309252842,1325.4970309252842,0.9971813393200989,0.007440855621591464
1325.5039755080775,1325.5039755080775,0.9840712723350405,0.007487670404522991
1325.5109200909724,1325.5109200909724,1.0057637316892722,0.0075440615980043825
1325.5178646739578,1325.5178646739578,1.0020901967295344,0.007590645134942323
1325.5248092570382,1325.5248092570382,1.0058438256129338,0.00764043073415942
1325.53175384021,1325.53175384021,1.002182567231926,0.007693231456674723
1325.5386984234756,1325.5386984234756,1.0091250302494732,0.007753122229978969
1325.5456430068255,1325.5456430068255,0.9975181231852556,0.007796227544521984
1325.552587590268,1325.552587590268,1.00575973912271,0.007853444159877442
1325.559532173797,1325.559532173797,0.9921704591545832,0.007888701897421701
1325.5664767574058,1325.5664767574058,0.9975380807729222,0.007928758665058516
1325.5734213411044,1325.5734213411044,0.9905720218859241,0.007980371509820096
1325.5803659248836,1325.5803659248836,1.0031729625564698,0.008037116591650316
1325.5873105087453,1325.5873105087453,0.9864233303957445,0.0080650103116254
1325.5942550926857,1325.5942550926857,1.0057502173868458,0.008105655838763307
1325.6011996767077,1325.6011996767077,1.0075952027754587,0.008147711839046038
1325.6081442608065,1325.6081442608065,1.009096336982135,0.008166467590850306
1325.6150888449815,1325.6150888449815,1.0087897566650743,0.008182878425744628
1325.622033429235,1325.622033429235,0.9877567640742025,0.008194586859976018
1325.6289780135608,1325.6289780135608,0.9912730544329269,0.008210414225411463
1325.63592259796,1325.63592259796,0.9870151883605978,0.008210155488171294
1325.6428671824312,1325.6428671824312,1.002878948065932,0.008228850830387522
1325.6498117669757,1325.6498117669757,0.9945693040895336,0.008234293292290376
1325.6567563515898,1325.6567563515898,1.004798336264854,0.008248971007059097
1325.6637009362755,1325.6637009362755,0.9877743460825348,0.008269801912935179
1325.6706455210265,1325.6706455210265,1.016380113546466,0.008295556853313927
1325.6775901058431,1325.6775901058431,0.9927086536444272,0.008298392205082971
1325.684534690728,1325.684534690728,1.0042361628851144,0.008323037379071184
1325.6914792756784,1325.6914792756784,1.0071378787829595,0.008340039942708571
1325.6984238606885,1325.6984238606885,1.000236339780512,0.00836072577741377
1325.7053684457642,1325.7053684457642,0.9973393596677284,0.008380778635810795
1325.712313030902,1325.712313030902,1.00166042411548,0.008402087864540674
1325.7192576160996,1325.7192576160996,0.9856703035798425,0.008417888565398286
1325.7262022013572,1325.7262022013572,1.002574869044632,0.008440025029157885
1325.7331467866757,1325.7331467866757,0.9827962324288213,0.00844942687993917
1325.740091372051,1325.740091372051,0.9999241353792627,0.008471939888525981
1325.7470359574827,1325.7470359574827,1.0024069856588345,0.008490487494062563
1325.7539805429733,1325.7539805429733,1.008674366596262,0.00850685260167364
1325.7609251285176,1325.7609251285176,0.9907452952916806,0.008519925877876752
1325.7678697141168,1325.7678697141168,1.004946470963977,0.008538144032051446
1325.7748142997702,1325.7748142997702,1.0123592114977167,0.00855552210924057
1325.7817588854755,1325.7817588854755,0.9976767281912773,0.008570914030574334
1325.7887034712335,1325.7887034712335,1.0045733051851649,0.008582125328701722
1325.7956480570424,1325.7956480570424,0.9959739313956009,0.008610136941791352
1325.8025926429011,1325.8025926429011,0.9946160392743133,0.008624578691588423
1325.8095372288092,1325.8095372288092,0.997606311718501,0.008643658417358712
1325.816481814766,1325.816481814766,1.000148234937368,0.008646481878467976
1325.8234264007717,1325.8234264007717,0.9912722515426061,0.00865874342969879
1325.8303709868221,1325.8303709868221,1.0084123362598678,0.008672813321733244
1325.8373155729194,1325.8373155729194,1.0110886404229265,0.008677164205083975
1325.844260159066,1325.844260159066,0.9993648992692588,0.00868330143803132
1325.8512047452527,1325.8512047452527,0.997442219822374,0.008668240701816089
1325.8581493314855,1325.8581493314855,1.0014423732212723,0.008660942723598191
1325.8650939177614,1325.8650939177614,1.0119381657887534,0.008645870196115565
1325.8720385040801,1325.8720385040801,1.0059228777639686,0.008619353684542887
1325.8789830904402,1325.8789830904402,0.9926149962624938,0.008588252145451555
1325.8859276768444,1325.8859276768444,0.9917548120958614,0.00858189741739348
1325.892872263285,1325.892872263285,0.9927770844269161,0.008561058071633819
1325.8998168497706,1325.8998168497706,1.0059221617905645,0.008557680346022795
1325.9067614362893,1325.9067614362893,0.9915007132043134,0.008522954150693665
1325.9137060228506,1325.9137060228506,1.0104599048048293,0.008516247156692714
1325.9206506094467,1325.9206506094467,0.9998786102976153,0.008500437823821249
1325.927595196084,1325.927595196084,0.997183367910605,0.008494609357241886
1325.9345397827542,1325.9345397827542,1.003880139942911,0.00849657886714107
1325.9414843694642,1325.9414843694642,1.0016052987483341,0.00848798619341932
1325.9484289562047,1325.9484289562047,1.000561598912846,0.008483556510900025
1325.955373542981,1325.955373542981,1.0016413779605928,0.0084817320701952
1325.963151480215,1325.963151480215,1.0076402475377848,0.008477952057043641
1325.9706516340134,1325.9706516340134,0.9944594796687121,0.008483650437938802
1325.9775962208964,1325.9775962208964,0.9907587656567933,0.008483000481087712
1325.9845408078152,1325.9845408078152,0.9970952344885177,0.008488944057054203
1325.991485394762,1325.991485394762,0.992595470353618,0.00848763655400273
1325.998429981743,1325.998429981743,0.999439351694941,0.00848848409202521
1326.0053745687535,1326.0053745687535,1.0037648086290027,0.008511063650158857
1326.0123191557923,1326.0123191557923,1.0087066798657585,0.00853153155661924
1326.0192637428627,1326.0192637428627,1.0098003466816152,0.008558349640196606
1326.026208329961,1326.026208329961,0.9887454429373197,0.008571371722424379
1326.0331529170885,1326.0331529170885,1.0085792264129658,0.008582875016507069
1326.0400975042432,1326.0400975042432,0.9991954575138167,0.008571403521532217
1326.0470420914262,1326.0470420914262,1.0119291461657123,0.008577402072525522
1326.0539866786335,1326.0539866786335,0.9908639416408368,0.00858435953425263
1326.0609312658712,1326.0609312658712,0.9895159489950602,0.008599033767045785
1326.0678758531326,1326.0678758531326,1.0105119360125276,0.00861131026234312
1326.074820440418,1326.074820440418,1.0067802300969013,0.008615531452746024
1326.0817650277324,1326.0817650277324,0.999308439610267,0.008623137536797254
1326.0887096150677,1326.0887096150677,1.0045026016750893,0.008632237652979538
1326.0956542024264,1326.0956542024264,1.0068164618813156,0.008630626497071846
1326.102598789813,1326.102598789813,0.9961955917456653,0.008636951403594594
1326.109543377218,1326.109543377218,1.00539557540205,0.00863712947856149
1326.116487964648,1326.116487964648,0.999558403768216,0.008630159685627612
1326.1234325520995,1326.1234325520995,0.999324956595389,0.00862271466888597
1326.1303771395767,1326.1303771395767,1.002083627171896,0.008621947949950658
1326.1373217270689,1326.1373217270689,0.996961435566271,0.008618270255162163
1326.1442663145851,1326.1442663145851,0.9836270212536853,0.00861520977203004
1326.1512109021212,1326.1512109021212,1.0065730951103995,0.008609787354722929
1326.1581554896761,1326.1581554896761,1.0163696432886373,0.008599196260147386
1326.1651000772536,1326.1651000772536,0.9984352284065288,0.008589030049518708
1326.1720446648492,1326.1720446648492,0.9998159517619654,0.008581194990296645
1326.1789892524625,1326.1789892524625,0.9947637641986221,0.008573376132866744
1326.1859338400966,1326.1859338400966,0.9991187120771461,0.008566523257958465
1326.1928784277472,1326.1928784277472,1.0017798036492518,0.008558255817227136
1326.1998230154163,1326.1998230154163,1.0149032251427805,0.008559552480650616
1326.2067676031008,1326.2067676031008,0.99528074539177,0.008549116325206817
1326.2137121908065,1326.2137121908065,1.0056256709269042,0.008547686907884532
1326.2206567785256,1326.2206567785256,0.9908819825907014,0.008550894864617435
1326.2276013662613,1326.2276013662613,0.995892103722689,0.008553853406116977
1326.234545954013,1326.234545954013,1.000875417500299,0.008551262677648058
1326.2414905417832,1326.2414905417832,1.003931713959391,0.008544295976253679
1326.248435129563,1326.248435129563,0.9964513004778844,0.008536131710143335
1326.255379717361,1326.255379717361,0.9985790361423019,0.008536158847217874
1326.2623243051737,1326.2623243051737,0.992578964051751,0.00852210588942506
1326.269268893001,1326.269268893001,1.0071815743929702,0.00851063111658403
1326.2762134808397,1326.2762134808397,1.0044816411563344,0.008492598916880372
1326.283158068695,1326.283158068695,0.9826211361721124,0.008483119427819947
1326.2901026565628,1326.2901026565628,1.0030837760685365,0.008481800764624788
1326.2970472444442,1326.2970472444442,1.0078103096583912,0.008482265463968986
1326.3039918323352,1326.3039918323352,0.9998589703513726,0.008485131009233333
1326.3109364202398,1326.3109364202398,0.9991590387065026,0.008487369802282489
1326.3178810081572,1326.3178810081572,1.0037150093627003,0.008489409180159044
1326.3248255960862,1326.3248255960862,1.0047316271694169,0.008496565841612564
1326.3317701840276,1326.3317701840276,0.9949768258312341,0.008507610785329404
1326.3387147719798,1326.3387147719798,0.9914498810131951,0.008521343616067161
1326.3462149269774,1326.3462149269774,0.9992469074164081,0.008525300383357788
1326.3553817831046,1326.3553817831046,0.9988577786881099,0.00854192495702161
1326.3623263710933,1326.3623263710933,1.0054897554915478,0.008551178178176381
1326.3692709590894,1326.3692709590894,0.9930157338594288,0.008545755159044644
1326.3762155470972,1326.3762155470972,1.0070485228497945,0.008547023389926516
1326.3831601351121,1326.3831601351121,0.994274070034546,0.00854857615129927
1326.3901047231404,1326.3901047231404,0.9985209373290254,0.008542000425761278
1326.3970493111715,1326.3970493111715,0.9990063617330609,0.00854404444045001
1326.4039938992141,1326.4039938992141,1.0069634612553673,0.008547440190660425
1326.4109384872659,1326.4109384872659,1.0053272986426567,0.008546149641517783
1326.4178830753258,1326.4178830753258,0.9998218282113509,0.00854576045006674
1326.4248276633916,1326.4248276633916,0.9958608860020755,0.008545596138074863
1326.4317722514647,1326.4317722514647,1.0068407494208007,0.008554008893848199
1326.4387168395465,1326.4387168395465,0.9957158471267883,0.00855410689616332
1326.4456614276362,1326.4456614276362,1.0012714303736236,0.00854731563934684
1326.4526060157339,1326.4526060157339,0.9873366259887095,0.00854655486729825
1326.4595506038363,1326.4595506038363,1.0040057671280276,0.008552313262727266
1326.4664951919444,1326.4664951919444,0.9987182970297945,0.00855341711349021
1326.4734397800582,1326.4734397800582,1.002515270957577,0.00856271451997626
1326.4803843681798,1326.4803843681798,0.9991766019513586,0.00855827627446922
1326.4873289563066,1326.4873289563066,1.0006934420267042,0.0085625061827924
1326.4942735444383,1326.4942735444383,0.999907926880552,0.008559990399569756
1326.5012181325753,1326.5012181325753,1.0033388114066444,0.008573969803957571
1326.5081627207187,1326.5081627207187,1.0105033441856865,0.008595195447807211
1326.515107308866,1326.515107308866,0.9929677604271884,0.008601857712801452
1326.5220518970193,1326.5220518970193,0.9986665517005257,0.00860712824091701
1326.5289964851754,1326.5289964851754,0.9957531143029563,0.008634104156355666
1326.5359410733358,1326.5359410733358,0.9977562261150054,0.008644575189956127
1326.542885661501,1326.542885661501,1.0080671677761572,0.00867012941199614
1326.5498302496715,1326.5498302496715,0.9959936739711894,0.00867658406531491
1326.5567748378448,1326.5567748378448,0.9960442392811604,0.008680009766140728
1326.5637194260187,1326.5637194260187,0.9899054308870273,0.008676681899127858
1326.5706640141982,1326.5706640141982,1.00715569768692,0.008671949377734684
1326.5776086023823,1326.5776086023823,1.0109425705777992,0.008659010207056752
1326.5845531905657,1326.5845531905657,0.9893995125298382,0.008650837811695919
1326.5914977787556,1326.5914977787556,0.9963374453282947,0.008648557969140765
1326.5984423669465,1326.5984423669465,1.0021501817510914,0.008655275791500452
1326.6053869551392,1326.6053869551392,0.999377283736575,0.008659982321930675
1326.6123315433347,1326.6123315433347,1.007771715289593,0.008668537309023089
1326.6192761315313,1326.6192761315313,0.9860734435387144,0.008655235310414306
1326.6262207197317,1326.6262207197317,1.0021748582562389,0.008661420301365037
1326.6331653079324,1326.6331653079324,0.9932175049500362,0.008661390364600532
1326.6401098961342,1326.6401098961342,0.9940644685506193,0.008668321070939716
1326.6470544843382,1326.6470544843382,0.9982151551907744,0.008662975638393144
1326.6539990725453,1326.6539990725453,0.9924818726757889,0.008655178379837482
1326.6609436607482,1326.6609436607482,1.000355242477887,0.008657306022567146
1326.667888248958,1326.667888248958,0.9943616134164424,0.008663589643840251
1326.6748328371655,1326.6748328371655,1.0062089896752417,0.00866020051824585
1326.681777425371,1326.681777425371,1.0112538757571148,0.008653180524226471
1326.6898331476946,1326.6898331476946,0.9981078344909715,0.00863443115921195
1326.6970555194325,1326.6970555194325,0.9931679522257524,0.008627338498117464
1326.7040001076427,1326.7040001076427,1.0049227202602242,0.008623016433640215
1326.7115002629096,1326.7115002629096,1.004417796058057,0.008614664566366436
1326.7192782016978,1326.7192782016978,0.9957625832448821,0.008597950162838475
1326.7262227899078,1326.7262227899078,1.0053935869610198,0.008592312593915106
1326.7331673781177,1326.7331673781177,0.9953124236819513,0.008585272107729035
1326.7401119663236,1326.7401119663236,1.0120342182302815,0.008587098103703974
1326.7470565545304,1326.7470565545304,0.9957851393626855,0.008569432374581121
1326.7540011427343,1326.7540011427343,0.9890667461159325,0.008555121476715033
1326.7609457309404,1326.7609457309404,0.9887750779681778,0.008530733877710594
1326.767890319143,1326.767890319143,1.0020401104685104,0.00852683974053514
1326.7748349073443,1326.7748349073443,1.009817623137792,0.008524396080088342
1326.7817794955456,1326.7817794955456,1.0065173125865705,0.008512635803199461
1326.788724083744,1326.788724083744,0.9901273774822699,0.00850024480066338
1326.7956686719394,1326.7956686719394,0.9942050017092059,0.008505170486857175
1326.8026132601365,1326.8026132601365,1.019387386690024,0.008510578014365234
1326.8095578483274,1326.8095578483274,0.9981807159187828,0.008505674695117706
1326.8165024365196,1326.8165024365196,0.9936998489892497,0.008489557496017245
1326.823447024708,1326.823447024708,0.9959802535343453,0.008496076686537906
1326.8303916128948,1326.8303916128948,1.0014355055770194,0.008493138235407411
1326.8373362010775,1326.8373362010775,0.9800989750450914,0.00849030258334699
1326.8442807892595,1326.8442807892595,1.0002639962857087,0.008495231318384998
1326.8512253774393,1326.8512253774393,1.0006055621921486,0.008485876462863189
1326.858169965614,1326.858169965614,1.0064658263805497,0.008479938638760103
1326.8651145537883,1326.8651145537883,1.004478957908562,0.00847895568922962
1326.8720591419558,1326.8720591419558,1.0048716395239654,0.008467325018900743
1326.8790037301235,1326.8790037301235,0.9944774495185517,0.008438537359990197
1326.885948318287,1326.885948318287,0.9977144534710846,0.008423455190594249
1326.892892906446,1326.892892906446,0.9995491850132613,0.008396066085341002
1326.8998374946036,1326.8998374946036,1.0016157244002728,0.008372268162983566
1326.9067820827554,1326.9067820827554,0.9989924418387931,0.008347924552526548
1326.9137266709045,1326.9137266709045,0.9967334073053774,0.008314765397835565
1326.9206712590503,1326.9206712590503,0.9897537948843041,0.00828754273604642
1326.9276158471905,1326.9276158471905,1.0062124281526441,0.008259771400417002
1326.934560435328,1326.934560435328,0.9907294774997327,0.008222310816538568
1326.9415050234634,1326.9415050234634,1.003543351612649,0.008201076093130585
1326.9484496115922,1326.9484496115922,0.9734669795431252,0.008166814873764503
1326.9553941997162,1326.9553941997162,1.0169922638166589,0.008154865127416125
1326.9623387878378,1326.9623387878378,0.9980428024797747,0.008134817914214911
1326.9692833759532,1326.9692833759532,0.996955201034514,0.008119169118414269
1326.9762279640638,1326.9762279640638,1.0031738281826672,0.008107253455944274
1326.9831725521726,1326.9831725521726,1.0003953108728332,0.008096643880508467
1326.990117140273,1326.990117140273,0.9998767419395307,0.00809640208923987
1326.99706172837,1326.99706172837,1.0016941482479964,0.00809815209620527
1327.0040063164633,1327.0040063164633,0.9821201528605805,0.008086119339074323
1327.0109509045483,1327.0109509045483,0.9970276130644983,0.008093720406646906
1327.0178954926316,1327.0178954926316,1.0069339405652409,0.0081000112713471
1327.0248400807075,1327.0248400807075,0.9964769218561594,0.0081133633019766
1327.031784668778,1327.031784668778,1.0004472663053723,0.008110944657047172
1327.0387292568466,1327.0387292568466,1.0019717251912692,0.008118039966604072
1327.0456738449059,1327.0456738449059,1.0031077946172506,0.008117487405808367
1327.0526184329597,1327.0526184329597,0.9958370497545703,0.00811578956782285
1327.0603963715762,1327.0603963715762,1.0011160472025082,0.008113766302921011
1327.0678965266611,1327.0678965266611,0.9947111072133369,0.00811422443443623
1327.0748411146983,1327.0748411146983,0.9913864009063623,0.008117651015520201
1327.0817857027316,1327.0817857027316,1.0180994159415153,0.008127113857175036
1327.0887302907527,1327.0887302907527,0.9931770190614877,0.008125289650928878
1327.0956748787721,1327.0956748787721,0.9993027187546932,0.008126755889105795
