time,time,flux,flux_err
1354.1187753772422,1354.1187753772422,1.0000333669604207,0.00010918906938192757
1354.1275719905145,1354.1275719905145,0.9999585711497815,0.00010919185690620255
1354.135211154288,1354.135211154288,0.9999754474775575,9.967226968578169e-05
1354.1421558484867,1354.1421558484867,0.9998665961653878,9.965677125554372e-05
1354.1491005424061,1354.1491005424061,0.9999827768823476,9.966841230895129e-05
1354.156045236139,1354.156045236139,1.000227742164899,9.967820093557763e-05
1354.1629899295926,1354.1629899295926,0.9998826655567997,9.966049693247643e-05
1354.1699346228602,1354.1699346228602,1.0001849705418628,9.967282578922188e-05
1354.1768793158476,1354.1768793158476,0.9998985665428688,9.965680167632971e-05
1354.183824008743,1354.183824008743,1.0001564612637803,9.966545850531882e-05
1354.190768701265,1354.190768701265,1.0000600573389702,9.96627632475446e-05
1354.197713393694,1354.197713393694,1.0000298145163837,9.965479134622544e-05
1354.204658085937,1354.204658085937,0.9997546897149544,9.964220891573158e-05
1354.2116027779005,1354.2116027779005,1.0000301951710415,9.966261232841186e-05
1354.218547469491,1354.218547469491,0.9999976402151096,9.966100172860895e-05
1354.2254921609892,1354.2254921609892,0.9999415006419843,9.965762699987036e-05
1354.2324368523005,1354.2324368523005,1.0001128758751558,9.967034731558418e-05
1354.239381543333,1354.239381543333,0.9999111722090565,9.96594943202197e-05
1354.2463262340855,1354.2463262340855,1.0000721193647548,9.96663898874637e-05
1354.2532709248383,1354.2532709248383,0.9998000743249638,9.965563419293193e-05
1354.2602156152184,1354.2602156152184,1.0000930914203008,9.96639526994164e-05
1354.2671603055055,1354.2671603055055,1.000003742014218,9.96602014512629e-05
1354.274104995513,1354.274104995513,1.0001044598482065,9.966345985370287e-05
1354.281049685428,1354.281049685428,1.0000655645559968,9.966312651237025e-05
1354.2879943749697,1354.2879943749697,0.9998404738122465,9.965258949762938e-05
1354.2949390643257,1354.2949390643257,1.0001288901677623,9.96687260010172e-05
1354.301883753495,1354.301883753495,1.0001082750351766,9.966206391822383e-05
1354.308828442478,1354.308828442478,0.9998656157098305,9.965986843524519e-05
1354.3157731311821,1354.3157731311821,0.9999076915620966,9.965553163276953e-05
1354.3227178197928,1354.3227178197928,1.0000587025067873,9.966654129741625e-05
1354.3296625081239,1354.3296625081239,0.999913921889088,9.966240286654119e-05
1354.3366071962691,1354.3366071962691,1.0000313669768945,9.966697440587416e-05
1354.3435518842277,1354.3435518842277,1.0001259205745667,9.966907896541877e-05
1354.3504965720008,1354.3504965720008,0.9998451700053905,9.965850482273198e-05
1354.3574412595867,1354.3574412595867,1.0000593965463345,9.967131406299209e-05
1354.3643859468934,1354.3643859468934,1.0000816122876652,9.967081554066319e-05
1354.3713306341074,1354.3713306341074,0.9999496839066724,9.966297743576748e-05
1354.3782753209484,1354.3782753209484,1.0001541087441381,9.96622696586782e-05
1354.3852200077897,1354.3852200077897,0.9999891786848114,9.966270140812186e-05
1354.3921646943515,1354.3921646943515,0.9998710236410089,9.966433022063632e-05
1354.3991093807267,1354.3991093807267,1.000123875652617,9.967162475698677e-05
1354.4060540668231,1354.4060540668231,1.0001588916926063,9.967369897458564e-05
1354.4129987528263,1354.4129987528263,0.9999475485794225,9.965903130689207e-05
1354.4199434386428,1354.4199434386428,0.9998063561656823,9.965449292216055e-05
1354.4268881241806,1354.4268881241806,1.0000041708045004,9.966582531527306e-05
1354.4338328096242,1354.4338328096242,1.0000118463326684,9.966645142824008e-05
1354.4407774948822,1354.4407774948822,0.9999692995019103,9.966889127487248e-05
1354.4477221799539,1354.4477221799539,1.0001794583107222,9.967490231034822e-05
1354.4546668648395,1354.4546668648395,1.000059946077934,9.96682671082323e-05
1354.4616115493525,1354.4616115493525,0.9999824456318092,9.96637563573237e-05
1354.468556233865,1354.468556233865,1.0001297350402276,9.966634748363612e-05
1354.4755009181915,1354.4755009181915,0.9998303897893557,9.965632697770443e-05
1354.4824456023323,1354.4824456023323,1.0000532943214233,9.966959478665601e-05
1354.489390286193,1354.489390286193,0.9999663084788114,9.965202088326381e-05
1354.496334969961,1354.496334969961,1.000054057355791,9.966790619562228e-05
1354.5032796535427,1354.5032796535427,0.9999549632710154,9.965614067471429e-05
1354.5102243368447,1354.5102243368447,1.0000397219171604,9.96664470040214e-05
1354.5171690200539,1354.5171690200539,0.9999678813754869,9.966563787805309e-05
1354.5241137030766,1354.5241137030766,1.0000942223839804,9.966674888143578e-05
1354.531058386006,1354.531058386006,0.999911748729818,9.96592472222988e-05
1354.5380030685635,1354.5380030685635,1.0000381368552549,9.966683195769702e-05
1354.5449477511204,1354.5449477511204,0.9998962900434721,9.966053754502853e-05
1354.551892433398,1354.551892433398,0.9999844113951252,9.966628007874513e-05
1354.5588371155832,1354.5588371155832,1.0000047312508742,9.96687182691881e-05
1354.5657817975807,1354.5657817975807,0.9999685485757324,9.965847756524713e-05
1354.5727264793,1354.5727264793,1.0000613544387547,9.966806094133256e-05
1354.5796711609255,1354.5796711609255,1.0002160996247949,9.967727128039423e-05
1354.5866158423653,1354.5866158423653,0.9999564752278187,9.966088431957985e-05
1354.5935605236186,1354.5935605236186,0.9999601931133881,9.96665684056418e-05
1354.6005052047788,1354.6005052047788,0.9999480853493686,9.966080396334374e-05
1354.6074498856592,1354.6074498856592,1.0000059585723422,9.966778532961558e-05
1354.614394566447,1354.614394566447,0.9999147509567555,9.966455940883313e-05
1354.621339247048,1354.621339247048,0.9999339503355706,9.966565788075217e-05
1354.6282839273701,1354.6282839273701,0.9999765923130115,9.966572102984049e-05
1354.6352286075992,1354.6352286075992,1.0001145584851991,9.967286094337687e-05
1354.6421732878275,1354.6421732878275,1.0000956326991557,9.967153049413227e-05
1354.6491179677773,1354.6491179677773,1.000028484534652,9.965962457667752e-05
1354.6560626475402,1354.6560626475402,0.99996888131794,9.966481067941086e-05
1354.6630073271174,1354.6630073271174,0.9999583574894266,9.9659023193661e-05
1354.6699520066013,1354.6699520066013,1.0000444565465336,9.966895145850441e-05
1354.676896685805,1354.676896685805,1.000031631770374,9.966955822795953e-05
1354.683841364917,1354.683841364917,0.9998700124035006,9.96704812880615e-05
1354.6907860439346,1354.6907860439346,0.9999934204812219,9.966707888517546e-05
1354.6977307227662,1354.6977307227662,1.0000149101868954,9.967457417537494e-05
1354.7046754014123,1354.7046754014123,1.0000834349894725,9.967121650277491e-05
1354.7116200798714,1354.7116200798714,0.9998929411621373,9.96675127429904e-05
1354.7185647582376,1354.7185647582376,1.0000355903638143,9.967113558618859e-05
1354.7255094364177,1354.7255094364177,1.0000860317096323,9.967250859308744e-05
1354.732454114504,1354.732454114504,0.9998055423665008,9.966161208935177e-05
1354.739398792405,1354.739398792405,0.9999800592816295,9.967512752815707e-05
1354.7463434699328,1354.7463434699328,0.9999667931639493,9.966585717191402e-05
1354.7532881475538,1354.7532881475538,1.0002008578965103,9.967822091277562e-05
1354.7602328248954,1354.7602328248954,1.000062920601924,9.967095176778363e-05
1354.767177502144,1354.767177502144,0.9999226345891123,9.966427753543155e-05
1354.7741221792994,1354.7741221792994,1.0000897988243687,9.967489720466972e-05
1354.7810668561756,1354.7810668561756,1.0000077833044252,9.966773062023248e-05
1354.7880115329583,1354.7880115329583,0.9998969823416661,9.967100958160243e-05
1354.794956209648,1354.794956209648,0.9999909646939319,9.966825749532576e-05
1354.8019008861518,1354.8019008861518,0.9999375094659355,9.966733120364327e-05
1354.808845562469,1354.808845562469,1.0001224121035335,9.967068657679833e-05
1354.8157902386931,1354.8157902386931,0.9999130815653139,9.966934511232222e-05
1354.822734914731,1354.822734914731,1.0000444486228142,9.967553433286834e-05
1354.8296795906758,1354.8296795906758,0.9999452637429982,9.967177190424942e-05
1354.836624266248,1354.836624266248,0.9999428427722232,9.96745937232401e-05
1354.8435689418202,1354.8435689418202,1.0002593819676302,9.969278718024812e-05
1354.8505136173926,1354.8505136173926,0.9999321165779864,9.966789026012938e-05
1354.8574582927781,1354.8574582927781,1.0000074379508272,9.9672459218927e-05
1354.8644029679779,1354.8644029679779,0.9999154523896021,9.967205376373255e-05
1354.8713476429916,1354.8713476429916,0.9998766533418451,9.966920123546347e-05
1354.8782923178185,1354.8782923178185,0.9999951362972352,9.967185012959548e-05
1354.8852369926458,1354.8852369926458,0.9998214233114654,9.966572734669493e-05
1354.8921816671932,1354.8921816671932,1.000078429755025,9.967688624175784e-05
1354.8991263416478,1354.8991263416478,1.0001608626521512,9.967651179166642e-05
1354.9060710160097,1354.9060710160097,1.0002597216367266,9.968530361992925e-05
1354.9130156901847,1354.9130156901847,0.9998940477611823,9.96694777869974e-05
1354.9199603642667,1354.9199603642667,0.999900424958917,9.966670017360401e-05
1354.9269050381627,1354.9269050381627,1.0000364018716448,9.967148736244886e-05
1354.9338497119654,1354.9338497119654,1.0001015421727966,9.967742331277082e-05
1354.9421833202305,1354.9421833202305,0.9998408475051258,9.966577158312397e-05
1354.949127993754,1354.949127993754,0.9998649108547271,9.966834150391114e-05
1354.9560726669977,1354.9560726669977,0.999973692314114,9.967123194052357e-05
1354.9630173402415,1354.9630173402415,1.0000448930404715,9.96777537118444e-05
1354.969962013393,1354.969962013393,0.9999015587679951,9.96630017433502e-05
1354.9769066862634,1354.9769066862634,0.999978864616779,9.966589625800305e-05
1354.983851358949,1354.983851358949,1.000021564412299,9.967612211869841e-05
1354.990796031634,1354.990796031634,1.0001393280039967,9.9672663547464e-05
1354.9977407041326,1354.9977407041326,1.0001164196001242,9.968898558671168e-05
1355.0046853765384,1355.0046853765384,0.9998197420528916,9.967454383235608e-05
1355.011630048851,1355.011630048851,0.9997598682251839,9.965571699242976e-05
1355.0185747209775,1355.0185747209775,1.0001673309639716,9.968797399756695e-05
1355.0255193930107,1355.0255193930107,0.9999239462828612,9.966463562731428e-05
1355.0324640647643,1355.0324640647643,0.9999236239802402,9.967026102786832e-05
1355.0394087365185,1355.0394087365185,1.0000888699970165,9.968377585407864e-05
1355.0463534081787,1355.0463534081787,0.9999868396009907,9.96785875952806e-05
1355.0532980796534,1355.0532980796534,0.9997786368335643,9.966755486775071e-05
1355.0602427509414,1355.0602427509414,1.0001420873464295,9.969079703992189e-05
1355.0671874221364,1355.0671874221364,1.0001069315482318,9.968424575092603e-05
1355.0741320931452,1355.0741320931452,1.00014879908155,9.969187334033132e-05
1355.0810767643402,1355.0810767643402,0.9999029025648728,9.967771149676243e-05
1355.0880214348829,1355.0880214348829,0.9999562499880131,9.967261552605797e-05
1355.0949661057987,1355.0949661057987,0.9998557482507344,9.966879929301027e-05
1355.1019107762488,1355.1019107762488,0.999999535246987,9.967419401835221e-05
1355.1088554467915,1355.1088554467915,0.9999918820836877,9.96751820545936e-05
1355.1158001170556,1355.1158001170556,1.0000200508723807,9.968227092618166e-05
1355.1227447873189,1355.1227447873189,1.0000521408570502,9.967709704638615e-05
1355.1296894573964,1355.1296894573964,0.9998560082013686,9.967833554048041e-05
1355.1366341272876,1355.1366341272876,1.0001379610245218,9.968417274925525e-05
1355.1435787971784,1355.1435787971784,1.0003181382275859,9.96917267634101e-05
1355.150523466884,1355.150523466884,0.9999408623902436,9.96730181607699e-05
1355.1574681364023,1355.1574681364023,1.0000628203158057,9.968499476068495e-05
1355.1644128059206,1355.1644128059206,0.9995889421511996,9.966260967128196e-05
1355.1713574752534,1355.1713574752534,0.9998610638351693,9.966805035054316e-05
1355.1783021444924,1355.1783021444924,1.0001541451180516,9.969331121182441e-05
1355.1852468135453,1355.1852468135453,1.0000306364734088,9.968124738266822e-05
1355.1921914825055,1355.1921914825055,0.9999822737482461,9.967378013101813e-05
1355.1991361513717,1355.1991361513717,1.0002582803035698,9.969326694262344e-05
1355.2060808199592,1355.2060808199592,1.0000876552895348,9.968497740602502e-05
1355.2130254885465,1355.2130254885465,0.9998413194462753,9.967303490689503e-05
1355.219970157134,1355.219970157134,0.9998907217222044,9.966175934331188e-05
1355.226914825628,1355.226914825628,0.9998704574849313,9.9670559383335e-05
1355.2338594938428,1355.2338594938428,1.0002001465045884,9.969132297548315e-05
1355.2408041619644,1355.2408041619644,0.9999698044836738,9.968218976579262e-05
1355.2477488299926,1355.2477488299926,0.9998640361968502,9.967445982744172e-05
1355.254693497928,1355.254693497928,1.0000552553199646,9.968430931639164e-05
1355.2616381656776,1355.2616381656776,1.0000584623787054,9.969018531449448e-05
1355.268582833333,1355.268582833333,1.0000599649969526,9.968979757967934e-05
1355.2755275008028,1355.2755275008028,0.9998572345132105,9.967789636119984e-05
1355.2824721682725,1355.2824721682725,1.000005448408335,9.96827473878717e-05
1355.289416835649,1355.289416835649,0.9999234670657847,9.968494965512264e-05
1355.2963615028395,1355.2963615028395,0.9998820373106699,9.967411934724924e-05
1355.3033061699366,1355.3033061699366,0.9998894515197405,9.967620941298149e-05
1355.3102508369407,1355.3102508369407,1.000159091874195,9.968365757508568e-05
1355.3171955037587,1355.3171955037587,1.0001541090028492,9.968876314866877e-05
1355.3241401704831,1355.3241401704831,1.0000780032145848,9.968209405930619e-05
1355.3310848372078,1355.3310848372078,0.999894967315843,9.96831567493005e-05
1355.338862863511,1355.338862863511,1.0000463398391084,9.969268592640754e-05
1355.3463631034433,1355.3463631034433,0.9998542762427247,9.968014771892567e-05
1355.3533077697953,1355.3533077697953,0.9998891225743611,9.968371334141697e-05
1355.3602524356822,1355.3602524356822,0.9999965661777948,9.969080854768989e-05
1355.3671971018478,1355.3671971018478,1.0001362140049443,9.970103672878943e-05
1355.374141767734,1355.374141767734,1.0000621276044188,9.968433255074611e-05
1355.3810864336206,1355.3810864336206,1.0000527835863497,9.968895908744801e-05
1355.3880310993209,1355.3880310993209,0.9998635667959622,9.967164303165599e-05
1355.3949757648347,1355.3949757648347,1.0000005363568991,9.969181685153919e-05
1355.403031576857,1355.403031576857,1.0000820867360762,9.969191374473094e-05
1355.4102540288347,1355.4102540288347,1.0000146160357593,9.968967149527827e-05
1355.4171986941626,1355.4171986941626,0.9998375186633168,9.968010908667465e-05
1355.424143359211,1355.424143359211,1.0000162262050785,9.96946494227342e-05
1355.4310880242592,1355.4310880242592,0.999948803232912,9.966886473540165e-05
1355.4380326891212,1355.4380326891212,1.0001280034288063,9.969069888250218e-05
1355.4449773539832,1355.4449773539832,1.0000266824161617,9.968390802207886e-05
1355.451922018752,1355.451922018752,1.0000332284374245,9.968712201344708e-05
1355.4588666832417,1355.4588666832417,0.9998967869758377,9.968501941736141e-05
1355.4658113477312,1355.4658113477312,1.000043934826063,9.96913334173312e-05
1355.4727560122205,1355.4727560122205,1.000042921392435,9.968625641864983e-05
1355.4797006764306,1355.4797006764306,0.9999342951048342,9.968537513040171e-05
1355.4866453405475,1355.4866453405475,1.0000334902025674,9.969513890256945e-05
1355.4935900044784,1355.4935900044784,0.999966998151702,9.969326674657151e-05
1355.500534668409,1355.500534668409,1.0000837199325638,9.969225327378631e-05
1355.5074793323395,1355.5074793323395,0.9999820810332581,9.968397270979567e-05
1355.5144239962704,1355.5144239962704,0.9999460857028979,9.968852107247985e-05
1355.5213686598286,1355.5213686598286,0.9998317145959106,9.968607436009467e-05
1355.5283133233863,1355.5283133233863,1.0000561781712463,9.968978019768647e-05
1355.5352579868513,1355.5352579868513,1.000282137210316,9.970657779844064e-05
1355.5422026501305,1355.5422026501305,0.9999622290884098,9.967979026237112e-05
1355.549147313409,1355.549147313409,0.999910246430123,9.968593234862734e-05
1355.5560919764084,1355.5560919764084,0.9999338069202585,9.9690126132461e-05
1355.5630366395012,1355.5630366395012,1.0000668362676017,9.969262402774723e-05
1355.569981302407,1355.569981302407,0.999927774917359,9.968781625678272e-05
1355.5769259652204,1355.5769259652204,1.0000122922454957,9.969622201954384e-05
1355.5838706279403,1355.5838706279403,0.9999876242142589,9.969058441283909e-05
1355.590815290474,1355.590815290474,0.9999019861789386,9.96895259992954e-05
1355.5977599530079,1355.5977599530079,1.000156127811616,9.970227957284647e-05
1355.604704615448,1355.604704615448,1.0001356575557927,9.970246071903102e-05
1355.6116492776096,1355.6116492776096,1.0000888964166827,9.969935424810354e-05
1355.6185939398638,1355.6185939398638,0.9998221938124411,9.968403121073628e-05
1355.6255386019316,1355.6255386019316,1.000026266338777,9.969792033513447e-05
1355.6324832639998,1355.6324832639998,0.9998483039070045,9.968810130124015e-05
1355.6394279258816,1355.6394279258816,0.999965113297054,9.969126534991057e-05
1355.64637258767,1355.64637258767,1.0000461173976807,9.969034598866127e-05
1355.6533172492725,1355.6533172492725,0.9998724880331533,9.968999886032524e-05
1355.660261910875,1355.660261910875,1.0001735356861723,9.969957856559593e-05
1355.6672065724772,1355.6672065724772,0.9999134284130594,9.96778818318526e-05
1355.6741512337073,1355.6741512337073,1.000024596188946,9.969806856723969e-05
1355.6810958950302,1355.6810958950302,1.0000991959079777,9.970017822101749e-05
1355.6880405562601,1355.6880405562601,0.9999889478477246,9.968952549607203e-05
1355.6949852173036,1355.6949852173036,1.0001186496197114,9.970171928890911e-05
1355.701929878347,1355.701929878347,0.9999812218281438,9.969800337553789e-05
1355.7088745391115,1355.7088745391115,0.9999560279474785,9.969183249834167e-05
1355.7158191999688,1355.7158191999688,0.9999874333486296,9.968601436581349e-05
1355.7227638606396,1355.7227638606396,0.9997988039537076,9.967945356339697e-05
1355.729708521218,1355.729708521218,1.0000920434345975,9.969994537992224e-05
1355.7366531816092,1355.7366531816092,1.0001008297811058,9.969779901832982e-05
1355.7435978420945,1355.7435978420945,0.999976905452475,9.96985436392827e-05
1355.7519314344338,1355.7519314344338,0.9998971307673618,9.96882935331012e-05
1355.7588760946394,1355.7588760946394,0.9998024390963731,9.967455426294805e-05
1355.7658207547515,1355.7658207547515,1.0001688364752952,9.969894277411657e-05
1355.7727654146777,1355.7727654146777,0.999964673060236,9.96899745908641e-05
1355.7797100746031,1355.7797100746031,1.0002776995516467,9.971042353893666e-05
1355.7866547344363,1355.7866547344363,0.9999418290577073,9.968636862368321e-05
1355.793599394083,1355.793599394083,1.00009466822766,9.969687972317331e-05
1355.8005440537297,1355.8005440537297,0.9999466318191056,9.969300617445514e-05
1355.8074887130965,1355.8074887130965,0.9999225456764103,9.969295121617624e-05
1355.81443337265,1355.81443337265,0.9999513293393619,9.969094546047197e-05
1355.821378032111,1355.821378032111,1.0000400622654904,9.969063629511872e-05
1355.8283226911053,1355.8283226911053,1.0000318359588993,9.969874981057205e-05
1355.835267350193,1355.835267350193,0.9999922017323952,9.968805403280122e-05
1355.8422120092812,1355.8422120092812,0.9998100320322129,9.968953118225623e-05
1355.8491566682756,1355.8491566682756,1.000002455403128,9.969890609389737e-05
1355.8561013269912,1355.8561013269912,1.0000506401937035,9.969868647452622e-05
1355.8630459857993,1355.8630459857993,1.000147730994239,9.97043405723414e-05
1355.8699906444215,1355.8699906444215,0.9999585177629744,9.968946790237468e-05
1355.8769353030439,1355.8769353030439,0.9999804238195569,9.969383370264351e-05
1355.8838799613866,1355.8838799613866,1.0000045786699707,9.969706839102893e-05
1355.890824619822,1355.890824619822,1.0000388796250617,9.96898677165726e-05
