time,time,flux,flux_err
1385.9531969276316,1385.9531969276316,0.9999492492188115,0.0001452680578961693
1385.9615304369806,1385.9615304369806,1.0001704319355755,0.00014528280369981175
1385.9698639462706,1385.9698639462706,0.9999710079068914,0.0001452652010176197
1385.9781974555024,1385.9781974555024,0.9998799789816686,0.00014526748218585622
1385.9858365055825,1385.9858365055825,1.000191964248852,0.00013262957270656703
1385.9927810965214,1385.9927810965214,1.0000252323281325,0.00013261921490932696
1385.9997256874144,1385.9997256874144,0.999640208931831,0.00013259252732176024
1386.006670278284,1386.006670278284,1.0001180370247316,0.00013262615035698047
1386.0136148691304,1386.0136148691304,0.9999110696817952,0.00013261441464465544
1386.020559459906,1386.020559459906,1.0000186883767423,0.00013262003548200222
1386.027504050683,1386.027504050683,1.0000056272753977,0.00013262360000849407
1386.0344486414128,1386.0344486414128,1.0000594579753876,0.00013263192172227053
1386.0413932320955,1386.0413932320955,1.0000735822299311,0.0001326303178566755
1386.0483378227327,1386.0483378227327,0.9999335345031415,0.00013261281400525082
1386.0552824133229,1386.0552824133229,0.9999610209242732,0.00013261536921322438
1386.0622270039123,1386.0622270039123,1.0000971853108893,0.00013262565523109764
1386.0691715944563,1386.0691715944563,0.9999661717235118,0.00013262242938095163
1386.0761161849537,1386.0761161849537,1.0000384435389549,0.00013262496392622893
1386.0830607754033,1386.0830607754033,0.9999616872313417,0.00013262286357358232
1386.0900053658538,1386.0900053658538,0.9999006782207298,0.00013261679958689217
1386.0969499562345,1386.0969499562345,1.0000392300643397,0.00013263446230301997
1386.1038945465914,1386.1038945465914,1.000080532854326,0.00013263214673816327
1386.110839136902,1386.110839136902,1.0000836917814153,0.0001326325255214484
1386.1177837271666,1386.1177837271666,0.9998245722130029,0.00013261694174808016
1386.1247283174075,1386.1247283174075,0.9998930495812969,0.00013261503091841848
1386.1316729076011,1386.1316729076011,1.00006775584482,0.00013263027557019574
1386.1386174977729,1386.1386174977729,1.0000861865128359,0.00013262724396658775
1386.1455620879206,1386.1455620879206,1.000159297782798,0.0001326381744309022
1386.1525066779745,1386.1525066779745,1.0000854833510022,0.00013263307605164122
1386.1594512680997,1386.1594512680997,0.9999841340768617,0.00013262273126500313
1386.1663958581078,1386.1663958581078,0.9998363130090911,0.000132615421373283
1386.1733404480683,1386.1733404480683,0.999920546675091,0.0001326224970093157
1386.1802850380068,1386.1802850380068,0.999993240806648,0.00013262929523365487
1386.187229627899,1386.187229627899,0.9998736905727071,0.00013261609801052253
1386.1941742177664,1386.1941742177664,1.0000060796304868,0.0001326215986474292
1386.2011188076117,1386.2011188076117,0.9999677895820545,0.0001326257447848558
1386.2080633974103,1386.2080633974103,1.0000794870689809,0.00013263222585742552
1386.2150079871622,1386.2150079871622,1.0000605096314055,0.00013262206982110278
1386.2219525769137,1386.2219525769137,1.0001341848790024,0.00013262876078371492
1386.2288971665732,1386.2288971665732,1.0001845710028947,0.0001326361972896381
1386.2358417562318,1386.2358417562318,0.9997296318523416,0.00013260824396148514
1386.2427863458202,1386.2427863458202,1.000138677730579,0.00013263245765240747
1386.2497309354096,1386.2497309354096,0.9999990460700872,0.00013262263920872034
1386.2566755249522,1386.2566755249522,0.9996746965034056,0.00013260628849725818
1386.2636201144703,1386.2636201144703,1.0000133870872552,0.0001326295237130181
1386.2705647039204,1386.2705647039204,1.000124332108439,0.000132635709757097
1386.2775092933464,1386.2775092933464,1.0001225470156896,0.00013262825255657207
1386.2844538827485,1386.2844538827485,0.9998529794183814,0.00013261666910355886
1386.2913984720813,1386.2913984720813,1.000127518070046,0.00013263249618619848
1386.2983430614145,1386.2983430614145,1.0000857105197238,0.0001326301129674752
1386.3052876506777,1386.3052876506777,0.9998962890862663,0.0001326220540236926
1386.31223223994,1386.31223223994,0.9997974735719352,0.00013261707502523819
1386.319176829133,1386.319176829133,0.9999683499285685,0.00013263251000440631
1386.3261214183035,1386.3261214183035,1.0001112824261282,0.00013263934518660149
1386.3330660074494,1386.3330660074494,1.0001457844469455,0.00013263505996366666
1386.3400105965266,1386.3400105965266,0.9999446860983812,0.00013262558209542965
1386.3469551855803,1386.3469551855803,1.0002029680038944,0.00013263863629031785
1386.3538997746095,1386.3538997746095,0.999841306235339,0.0001326178186939996
1386.3608443635935,1386.3608443635935,0.9998280746743585,0.00013262088233557793
1386.368900086746,1386.368900086746,1.0000000351821607,0.0001326303807518178
1386.3761224592358,1386.3761224592358,0.9999107013598968,0.00013262648065930812
1386.3830670480802,1386.3830670480802,1.000207506567341,0.00013264352845868507
1386.3900116369243,1386.3900116369243,1.0000422361692194,0.00013263292724467277
1386.3969562256982,1386.3969562256982,1.0000267749680118,0.00013262890726761824
1386.4039008144484,1386.4039008144484,1.000021184380699,0.00013262807768139837
1386.4108454031764,1386.4108454031764,0.9999041444582085,0.00013262047202617876
1386.4177899918805,1386.4177899918805,0.9999883181611935,0.00013262038660654738
1386.424734580491,1386.424734580491,1.0000132679097071,0.0001326260710765509
1386.4316791691024,1386.4316791691024,1.0000405792914182,0.00013263104613396695
1386.4386237576907,1386.4386237576907,0.9998767476671444,0.00013262578569557824
1386.445568346208,1386.445568346208,1.0000060792239538,0.00013262996060558894
1386.4525129347026,1386.4525129347026,1.000085953087957,0.00013263707102378888
1386.4594575231515,1386.4594575231515,0.9999133671088792,0.00013262882718880728
1386.4664021115755,1386.4664021115755,1.0002163395335366,0.00013264331705631994
1386.473346699977,1386.473346699977,0.999985873079698,0.0001326226879775096
1386.4802912882856,1386.4802912882856,1.0000448304270517,0.0001326351617809931
1386.4872358766638,1386.4872358766638,1.000074022930784,0.00013263213778604195
1386.4941804649252,1386.4941804649252,1.0000494734140521,0.0001326313328895038
1386.5011250531638,1386.5011250531638,0.9999449727169569,0.00013262618065666535
1386.508069641333,1386.508069641333,0.9998631343536204,0.00013261995361784127
1386.5150142295008,1386.5150142295008,1.0000617503063323,0.00013262856134106963
1386.5219588176465,1386.5219588176465,0.9998722083736116,0.00013261671068010738
1386.5289034057228,1386.5289034057228,1.0000864015044335,0.0001326315149688244
1386.5358479937745,1386.5358479937745,1.0000348925199194,0.00013262545904727403
1386.542792581803,1386.542792581803,1.0000586923457104,0.0001326307437757213
1386.549737169763,1386.549737169763,1.0000330329977605,0.00013262238870893555
1386.556681757722,1386.556681757722,1.0002091870420011,0.00013263393076866624
1386.5644596961554,1386.5644596961554,0.9999410628231926,0.00013262624931256582
1386.5719598510598,1386.5719598510598,0.9998518233458216,0.00013261377435123733
1386.5789044388794,1386.5789044388794,0.99990497568366,0.00013262282925903827
1386.5858490266746,1386.5858490266746,1.0001003305579892,0.00013263921471647517
1386.5927936144012,1386.5927936144012,1.0000458392289642,0.00013263422200281223
1386.5997382020814,1386.5997382020814,0.9998915231443247,0.0001326195104649559
1386.6066827897607,1386.6066827897607,1.0001177988046444,0.00013263936385347693
1386.6136273774405,1386.6136273774405,0.9996870493791066,0.00013261538987589867
1386.6205719650502,1386.6205719650502,1.0001219505683188,0.00013264750468179172
1386.6275165526138,1386.6275165526138,1.000184407824022,0.00013264877305317412
1386.63446114013,1386.63446114013,0.9999481307343201,0.000132629663342022
1386.6414057276238,1386.6414057276238,0.9999743930575165,0.0001326366691698338
1386.6483503150944,1386.6483503150944,0.9999058438619182,0.00013262311557085373
1386.655294902494,1386.655294902494,1.0001371187262666,0.0001326305833781694
1386.6622394898945,1386.6622394898945,1.0000247482585303,0.00013263271774856174
1386.6691840772255,1386.6691840772255,0.9999472130838404,0.00013262306616784977
1386.676128664532,1386.676128664532,0.9998459073819823,0.0001326158853210429
1386.683073251816,1386.683073251816,1.0000736867259075,0.00013263576681411192
1386.6900178390304,1386.6900178390304,1.0001168296229745,0.00013263734921163474
1386.696962426221,1386.696962426221,1.000027515344971,0.00013263342558656211
1386.7039070134113,1386.7039070134113,0.9999321574876522,0.00013262349170233158
1386.7108516005328,1386.7108516005328,1.0000718841133354,0.00013263553033343188
1386.717796187631,1386.717796187631,0.9999172817774704,0.00013261981732800427
1386.7247407746347,1386.7247407746347,0.9997473455054571,0.00013260940857882128
1386.7316853616624,1386.7316853616624,1.0000995289569474,0.00013263314969237956
1386.7386299486443,1386.7386299486443,0.9998670349665939,0.00013261613912743118
1386.7455745355787,1386.7455745355787,1.0002744936015278,0.00013263779466057366
1386.7525191224897,1386.7525191224897,1.0000927940318665,0.0001326372355158953
1386.7594637093553,1386.7594637093553,0.9999677405650909,0.00013262855339164176
1386.7664082961735,1386.7664082961735,1.0002336315061604,0.00013264647093372064
1386.7741862333728,1386.7741862333728,0.9998550666700524,0.00013262389680011112
1386.7816863870662,1386.7816863870662,0.9997697438267148,0.0001326149141162159
1386.7886309737685,1386.7886309737685,1.0000370420467708,0.000132634024988601
1386.795575560423,1386.795575560423,1.0000022768947838,0.0001326310862716541
1386.8025201470784,1386.8025201470784,1.0001041982022023,0.00013263990172774823
1386.8094647336873,1386.8094647336873,0.9997811465681634,0.00013262353633676141
1386.8164093202263,1386.8164093202263,0.9998445794811188,0.00013262842554055538
1386.8233539067412,1386.8233539067412,1.0001347458707246,0.0001326419336999351
1386.8302984932575,1386.8302984932575,1.000226859614211,0.00013265186340031334
1386.8372430797033,1386.8372430797033,1.000188398091526,0.000132642436247623
1386.8441876661252,1386.8441876661252,0.9999118955648008,0.00013262675161490028
1386.8511322525012,1386.8511322525012,1.0000088699028027,0.0001326368725077472
1386.8580768388542,1386.8580768388542,1.000036376129318,0.00013263172173287623
1386.8650214251365,1386.8650214251365,0.9996548491950804,0.00013261119827565114
1386.8719660113961,1386.8719660113961,0.999958474459025,0.00013262567641887334
1386.878910597609,1386.878910597609,0.9999744974022882,0.00013263005670745143
1386.885855183822,1386.885855183822,1.0001830625124808,0.00013265091323805739
1386.8927997699877,1386.8927997699877,1.000059744548148,0.00013263640433292011
1386.899744356108,1386.899744356108,1.0001025580589453,0.00013263980318585126
1386.9066889421815,1386.9066889421815,0.999971577391328,0.0001326379786885948
1386.9136335282315,1386.9136335282315,1.0000808318938836,0.00013263688809349137
1386.920578114234,1386.920578114234,0.9998151114076727,0.00013261867949159728
1386.9275227001683,1386.9275227001683,0.9998789212272478,0.00013262527489536056
1386.934467286102,1386.934467286102,0.9999484016185798,0.0001326259354715181
1386.9414118720347,1386.9414118720347,0.999986718641533,0.00013263119032721866
1386.948356457922,1386.948356457922,1.000254335306497,0.00013264651147649537
1386.9553010437392,1386.9553010437392,1.0001216295407809,0.00013263989254513601
1386.9622456295324,1386.9622456295324,0.999843990165784,0.0001326186773771202
1386.9691902152567,1386.9691902152567,0.9999871849329344,0.00013262488225135094
1386.976134800981,1386.976134800981,0.9999952330029431,0.00013262878915815517
1386.9844683037986,1386.9844683037986,0.9998677206446883,0.00013261744185848475
1386.9914128894288,1386.9914128894288,1.0001262224002851,0.00013262722541639835
1386.9983574750133,1386.9983574750133,0.9996997623942041,0.00013260228106155045
1387.005302060575,1387.005302060575,0.9998552279641839,0.00013261869337515556
1387.0122466460884,1387.0122466460884,1.000181738957324,0.00013263626445860364
1387.0191912315797,1387.0191912315797,1.0000219456590496,0.00013262648216740594
1387.0261358170478,1387.0261358170478,1.000062750834641,0.0001326217461677238
1387.0330804024459,1387.0330804024459,0.9999018339838912,0.00013261517770604372
1387.0400249878664,1387.0400249878664,0.999853230490378,0.00013260968898432462
1387.0469695731722,1387.0469695731722,1.0002939234312813,0.0001326415483914263
1387.053914158454,1387.053914158454,0.9998732925902052,0.0001326119791577854
1387.060858743735,1387.060858743735,0.9999276046969854,0.00013261776348376007
1387.0678033289698,1387.0678033289698,1.0000089756441903,0.00013262048376957297
1387.0747479141353,1387.0747479141353,1.0001559530574131,0.0001326310288252
1387.0816924993007,1387.0816924993007,0.9999604803237373,0.00013262132001131555
1387.0886370844187,1387.0886370844187,0.9998079839889196,0.00013260907027646244
1387.095581669491,1387.095581669491,0.9999519089434618,0.00013262478581178234
1387.1025262545402,1387.1025262545402,1.0001017976048865,0.00013263558321497418
1387.1094708395417,1387.1094708395417,1.000113827406976,0.00013263282732437834
1387.116415424521,1387.116415424521,0.9999812950773757,0.0001326227200423815
1387.1233600094536,1387.1233600094536,0.9999380078602489,0.000132607392199878
1387.1303045943391,1387.1303045943391,0.9999609084700861,0.00013263184000977517
1387.1372491791778,1387.1372491791778,1.0001822116759527,0.00013263399288835484
1387.1441937640639,1387.1441937640639,0.9999290190140927,0.00013262507878640656
1387.151138348834,1387.151138348834,0.9999126372559346,0.00013261943968683447
1387.1580829335794,1387.1580829335794,0.9999390326328182,0.00013262662905313185
1387.1650275182556,1387.1650275182556,1.000033845981052,0.00013263210933461123
1387.1719721029322,1387.1719721029322,0.9999658077019491,0.00013262369137832995
1387.1789166875853,1387.1789166875853,1.0002267504664613,0.00013263088538832083
1387.1858612721674,1387.1858612721674,0.9997429950020189,0.00013261016358344016
1387.1928058567512,1387.1928058567512,1.0002386120079083,0.00013263994228199407
1387.1997504412643,1387.1997504412643,0.999927573911263,0.00013262565088211794
1387.2066950257308,1387.2066950257308,0.9999151519422036,0.0001326239097050914
1387.2136396102208,1387.2136396102208,0.9999999779554078,0.00013261694025547098
1387.220584194618,1387.220584194618,1.000131355548079,0.00013263095227363024
1387.227528779015,1387.227528779015,1.0000817616565294,0.0001326315242648816
1387.2344733633413,1387.2344733633413,1.000075526261871,0.00013263567327182206
1387.2414179476684,1387.2414179476684,1.0001000749575577,0.0001326298116196048
1387.248362531926,1387.248362531926,0.9998689399778155,0.00013261716455076857
1387.2553071161833,1387.2553071161833,0.9997835108001899,0.00013261831496370666
1387.26225170037,1387.26225170037,0.9999990458282324,0.0001326211667955063
1387.2691962845342,1387.2691962845342,1.0001110256289538,0.0001326283939678881
1387.2761408686288,1387.2761408686288,1.0000819385006057,0.0001326281087382017
1387.2830854527222,1387.2830854527222,0.9999800678878019,0.00013262320319910244
1387.2900300367467,1387.2900300367467,0.9999565580390982,0.00013261632899585913
1387.2969746207714,1387.2969746207714,1.0000584158658672,0.00013262970011809224
1387.303919204749,1387.303919204749,0.9999166933541664,0.00013260922452476844
1387.312530488838,1387.312530488838,1.0002500036868016,0.00013263355628674852
1387.320586206123,1387.320586206123,0.9999953981111582,0.00013262422374736614
1387.327530789985,1387.327530789985,0.9998659927929765,0.0001326166756680875
1387.335864290543,1387.335864290543,0.9999546627619551,0.00013261657137894037
1387.3428088743349,1387.3428088743349,1.0001140049783124,0.0001326368501215998
1387.3505868080897,1387.3505868080897,1.0000941090733835,0.00013263062571409304
1387.358086958476,1387.358086958476,0.9997622859047702,0.00013260714906186864
1387.365031542151,1387.365031542151,0.9999965184132849,0.00013262292750270077
1387.3719761257566,1387.3719761257566,0.9998225941036024,0.00013261402340847655
1387.3789207093387,1387.3789207093387,1.0002889065716185,0.0001326462751269288
1387.3858652928498,1387.3858652928498,0.9999661421022814,0.00013261784148934524
1387.3928098763624,1387.3928098763624,0.9999936931431627,0.00013262550823966838
1387.399754459828,1387.399754459828,1.0000035169013808,0.00013262919872613203
1387.4066990432468,1387.4066990432468,0.9999790538486731,0.00013262993260320201
1387.4136436266422,1387.4136436266422,1.0000403313885582,0.0001326264512316983
1387.4205882099918,1387.4205882099918,0.999977659033978,0.00013261829324224687
1387.4275327933178,1387.4275327933178,0.9999601711307229,0.00013262330900576478
1387.4344773765965,1387.4344773765965,1.0002353003093114,0.00013263785114378773
1387.4414219598289,1387.4414219598289,0.9999160467096828,0.00013261977226628754
1387.4483665430391,1387.4483665430391,0.9997433470311524,0.00013261306638883381
1387.4553111262253,1387.4553111262253,0.9999720800082381,0.0001326267097195786
1387.4622557093642,1387.4622557093642,1.0000668197656872,0.00013262810471801115
1387.4692002924576,1387.4692002924576,1.0000904152035042,0.0001326311162228586
1387.4761448755276,1387.4761448755276,1.000042108190757,0.00013262035516648838
1387.4830894585502,1387.4830894585502,0.9999406771638878,0.00013261880173942093
1387.4900340415265,1387.4900340415265,0.9999653190428595,0.00013261870491832297
1387.4969786244803,1387.4969786244803,1.0002507029342718,0.00013264292447829847
1387.503923207364,1387.503923207364,0.9999940981031787,0.00013261795549232558
1387.5108677902467,1387.5108677902467,0.9999372639533938,0.00013262118823693825
1387.5178123730836,1387.5178123730836,0.9999664390094372,0.00013261738776375263
1387.5247569558978,1387.5247569558978,0.9998502006440276,0.0001326211018377331
1387.5317015386415,1387.5317015386415,0.9999667942194709,0.00013262269095841835
1387.5386461213616,1387.5386461213616,1.000023248866424,0.00013262357069845505
1387.545590704082,1387.545590704082,0.9999270098919133,0.0001326245847686838
1387.552535286733,1387.552535286733,1.0000829930180823,0.0001326312386530771
1387.5594798693369,1387.5594798693369,1.0001028085477337,0.0001326290187393325
1387.5664244519176,1387.5664244519176,0.9997930568317962,0.0001326070614219949
1387.5733690344753,1387.5733690344753,1.0001010136150124,0.00013262492541357273
1387.5803136169866,1387.5803136169866,0.9998593229652265,0.00013261035230502008
1387.5872581994734,1387.5872581994734,1.0003001931218058,0.00013264324129000577
1387.5942027819146,1387.5942027819146,1.0000240583648972,0.0001326249340092323
1387.601147364263,1387.601147364263,1.0000445865237537,0.00013262437447471764
1387.6080919466342,1387.6080919466342,0.9998503195648716,0.00013261064996234433
1387.6150365289582,1387.6150365289582,0.9999552421999354,0.00013261849140748573
1387.6219811112599,1387.6219811112599,1.000193441179787,0.00013262795006964716
1387.628925693492,1387.628925693492,0.9998693202391531,0.0001326114808416372
1387.6358702757,1387.6358702757,0.9998426006737888,0.00013261947573344211
1387.6428148578611,1387.6428148578611,1.0000279121225533,0.00013263083740860173
1387.6497594400232,1387.6497594400232,1.000169478532785,0.00013263521815242487
1387.6567040221155,1387.6567040221155,0.9999491156176183,0.00013261918124730482
1387.663648604183,1387.663648604183,0.999905229199457,0.00013262131982573897
1387.670593186182,1387.670593186182,0.9999705744147132,0.00013262688032265866
1387.6775377681809,1387.6775377681809,1.0000988905143222,0.00013262468763540212
1387.6844823501567,1387.6844823501567,0.999982450374732,0.00013261207419040512
1387.6914269320382,1387.6914269320382,0.9999928951106611,0.00013261377927928803
1387.6983715139904,1387.6983715139904,1.0001063150065461,0.000132624165474595
1387.7053160957566,1387.7053160957566,1.0000746393038633,0.00013262373463753105
1387.7122606775924,1387.7122606775924,0.9998771036798179,0.00013261037241248526
