time,time,flux,flux_err
1385.9536213814456,1385.9536213814456,1.0047265637973906,0.0022811635037778524
1385.9619549236043,1385.9619549236043,1.0025981080813082,0.0022775421220031754
1385.9702884656654,1385.9702884656654,1.0006995185660055,0.0022701731057820284
1385.9786220076678,1385.9786220076678,0.996224049711793,0.002265508489843515
1385.9862610878142,1385.9862610878142,0.9937171284483,0.002063878438918401
1385.993205706041,1385.993205706041,0.9931254745964593,0.002060505754611832
1386.0001503242215,1386.0001503242215,1.0000626843649596,0.0020599697763049847
1386.0070949423791,1386.0070949423791,0.9979254752415697,0.0020559216344004385
1386.01403956049,1386.01403956049,0.9981690180242817,0.0020541945761740803
1386.0209841785068,1386.0209841785068,1.0011557599029426,0.0020516622760444496
1386.0279287965716,1386.0279287965716,0.9999052309693994,0.002047539638907786
1386.034873414519,1386.034873414519,0.9977581447170614,0.002043023353802763
1386.041818032443,1386.041818032443,1.0034801835374858,0.0020412426216178782
1386.0487626502982,1386.0487626502982,1.0013827393690602,0.0020378730875865586
1386.0557072681063,1386.0557072681063,1.0008909954312175,0.002036857970186466
1386.0626518859135,1386.0626518859135,1.0034666447241416,0.002037696603941915
1386.069596503652,1386.069596503652,1.0007815263363329,0.002037602413803079
1386.076541121344,1386.076541121344,1.000058680785215,0.0020373553880115858
1386.083485738965,1386.083485738965,1.003474881703128,0.0020414694637811747
1386.090430356587,1386.090430356587,0.9996785988298373,0.002041578742074342
1386.097374974139,1386.097374974139,0.9991725995287897,0.0020457157435570467
1386.104319591644,1386.104319591644,0.9960953966886799,0.0020479823006237215
1386.1112642091027,1386.1112642091027,1.000505415386828,0.0020550402841734306
1386.1182088265155,1386.1182088265155,0.9983380644287632,0.002060255598037036
1386.125153443881,1386.125153443881,1.0011415550937137,0.0020656670132539385
1386.1320980612459,1386.1320980612459,1.0006293552412286,0.0020743083616476953
1386.1390426784958,1386.1390426784958,0.9001126451658525,0.002033412856566857
1386.1459872957216,1386.1459872957216,0.8289152557802814,0.002002501102322512
1386.1529319129236,1386.1529319129236,1.0032272613178053,0.0020842122302790326
1386.1598765300573,1386.1598765300573,1.0000248687111866,0.0020797431033348955
1386.1668211471667,1386.1668211471667,1.0001109110671043,0.0020777312129302214
1386.1737657642057,1386.1737657642057,0.99775416544005,0.0020735755297415473
1386.1807103812223,1386.1807103812223,0.9969735910682236,0.002071998562228938
1386.1876549981694,1386.1876549981694,0.9981265008876544,0.0020711399087478123
1386.1945996150919,1386.1945996150919,1.0008020966497682,0.002069615333984107
1386.201544231992,1386.201544231992,0.9976021248239251,0.0020668936738940154
1386.2084888487757,1386.2084888487757,1.0010817921126067,0.0020673816378884166
1386.2154334655593,1386.2154334655593,1.0021200235952947,0.0020660130920099294
1386.2223780823192,1386.2223780823192,1.0021579902956417,0.002066979286004502
1386.2293226989868,1386.2293226989868,1.0000773116691488,0.002065148027582757
1386.2362673156306,1386.2362673156306,1.0054701664469143,0.0020667163751859566
1386.243211932227,1386.243211932227,1.0009182360691162,0.002064997887601058
1386.2501565488017,1386.2501565488017,1.0007063367388795,0.002067754072954226
1386.2571011653063,1386.2571011653063,0.9967509676318059,0.002067862731560794
1386.264045781763,1386.264045781763,0.9991023024288399,0.0020686371973709034
1386.2709903981513,1386.2709903981513,0.9982997692420152,0.0020686514171018313
1386.277935014539,1386.277935014539,0.9995014766092213,0.002069328259457232
1386.2848796308565,1386.2848796308565,1.0021168183294795,0.0020704428643141927
1386.291824247151,1386.291824247151,0.9961536099602849,0.002067256205971413
1386.298768863353,1386.298768863353,0.9958491537221189,0.002063788090093946
1386.3057134795545,1386.3057134795545,1.0010812526273152,0.0020639763241705063
1386.3126580957087,1386.3126580957087,0.9986988956086955,0.0020581766302865583
1386.3196027118172,1386.3196027118172,0.9997013665036732,0.002053949876086603
1386.3265473278561,1386.3265473278561,0.9981122305340552,0.0020488311167959038
1386.3334919438707,1386.3334919438707,1.0021371817223448,0.002046771769647301
1386.3404365598399,1386.3404365598399,0.9992477102150433,0.0020432347288696635
1386.347381175739,1386.347381175739,1.0016307695061524,0.002040724712125207
1386.3543257916137,1386.3543257916137,1.0013764642575993,0.0020388918303763433
1386.3612704074662,1386.3612704074662,1.002512548776985,0.0020368987775140697
1386.3693261617482,1386.3693261617482,1.00177567772222,0.002037593065577223
1386.3765485621077,1386.3765485621077,1.0043278532758817,0.0020410802300074257
1386.383493177751,1386.383493177751,0.9976734783193052,0.0020392095254285853
1386.3904377933707,1386.3904377933707,0.9965532005125824,0.0020424352409545827
1386.3973824089899,1386.3973824089899,0.9990561852797383,0.0020468664042298675
1386.4043270245622,1386.4043270245622,1.00093800510617,0.0020515340049075733
1386.4112716400657,1386.4112716400657,1.0029966613488701,0.0020582315514899394
1386.4182162554987,1386.4182162554987,0.995404808296886,0.002062476969723926
1386.4251608709314,1386.4251608709314,0.9998926153596411,0.0020712416333345048
1386.432105486295,1386.432105486295,0.9994487199937359,0.00207933411891244
1386.4390501016123,1386.4390501016123,1.0021369718073552,0.0020904160197709474
1386.4459947168816,1386.4459947168816,0.7949704187127385,0.001995200372161338
1386.4529393321286,1386.4529393321286,0.9400239957414435,0.002064602186025776
1386.4598839473065,1386.4598839473065,1.0034742357333932,0.0020919433295909853
1386.4668285624361,1386.4668285624361,0.9998120637586669,0.002085954603330344
1386.4737731775433,1386.4737731775433,0.9955187342018972,0.0020793290287461665
1386.480717792581,1386.480717792581,0.9987052022232653,0.002079694996892453
1386.4876624076182,1386.4876624076182,0.9982648623882158,0.0020749015111289613
1386.4946070225387,1386.4946070225387,0.9973506701646077,0.0020730651987452427
1386.5015516374365,1386.5015516374365,0.9977570830718104,0.0020707673347757872
1386.5084962523345,1386.5084962523345,1.0018484618898735,0.0020715936711272745
1386.5154408671383,1386.5154408671383,1.000248892992399,0.002067347090342459
1386.5223854818964,1386.5223854818964,1.0036106282630683,0.0020688849939718874
1386.529330096655,1386.529330096655,1.0007625832155174,0.0020658462851609587
1386.5362747113659,1386.5362747113659,1.0036663861739616,0.0020664221420921744
1386.5432193259837,1386.5432193259837,1.0003211861323904,0.0020656399839863197
1386.5501639405795,1386.5501639405795,1.000286852302021,0.0020663210915288104
1386.557108555151,1386.557108555151,1.00068439110959,0.002066789555587064
1386.5648865233868,1386.5648865233868,0.999118299130384,0.002066629917879069
1386.5723867069992,1386.5723867069992,0.9998468315679281,0.002068166080411533
1386.5793313214313,1386.5793313214313,0.9963254479273231,0.0020669832152013278
1386.5862759357692,1386.5862759357692,0.999259005262726,0.0020680447692772094
1386.593220550085,1386.593220550085,1.0007661012283295,0.002066632268373785
1386.6001651643546,1386.6001651643546,0.9957500090016197,0.002062483521914726
1386.6071097785998,1386.6071097785998,0.9996319930966246,0.00206311505418151
1386.6140543927756,1386.6140543927756,0.9992291572783161,0.0020582951302717577
1386.6209990069283,1386.6209990069283,0.9980492673213295,0.0020554650572506277
1386.6279436210111,1386.6279436210111,0.9997439719984046,0.002051329322676051
1386.63488823507,1386.63488823507,1.00130660722508,0.0020471658624991148
1386.6418328490602,1386.6418328490602,1.0001940606418018,0.002043401140374863
1386.6487774630268,1386.6487774630268,1.0006458487659613,0.0020418277214683703
1386.655722076969,1386.655722076969,1.0045950381539772,0.0020403609679347824
1386.6626666908426,1386.6626666908426,0.9998064870015186,0.002036978690427538
1386.669611304623,1386.669611304623,1.001829651461378,0.002038483035469741
1386.6765559184255,1386.6765559184255,0.9992471488257528,0.002038818783763962
1386.6835005321593,1386.6835005321593,1.0000759568812012,0.002040664011548346
1386.690445145823,1386.690445145823,1.0025980121969216,0.002043804235759357
1386.6973897594867,1386.6973897594867,0.9997292723276292,0.0020451495820488167
1386.7043343730566,1386.7043343730566,0.9974770007116568,0.0020507966357961494
1386.711278986651,1386.711278986651,0.9983623715299087,0.0020550908765209304
1386.718223600152,1386.718223600152,0.9980461297386727,0.0020614641612818666
1386.7251682136286,1386.7251682136286,0.9994794953178564,0.0020687606320132883
1386.732112827036,1386.732112827036,0.9994114946633891,0.002076599632920822
1386.739057440421,1386.739057440421,1.0017794844432646,0.0020855389479935435
1386.7460020537117,1386.7460020537117,0.9163871376958799,0.0020548563387042936
1386.7529466670026,1386.7529466670026,0.8116143607426798,0.002003520493069438
1386.7598912802944,1386.7598912802944,1.0016633262660835,0.0020887485290566454
1386.766835893469,1386.766835893469,0.9995462813757576,0.0020848885222537186
1386.7746138601913,1386.7746138601913,1.0003651910236002,0.0020807550293879206
1386.7821140423364,1386.7821140423364,1.000614206562201,0.0020784296619836586
1386.7890586553954,1386.7890586553954,0.9988708061100555,0.0020749905012367236
1386.796003268383,1386.796003268383,0.9986528902503407,0.0020725800886269015
1386.8029478813714,1386.8029478813714,0.9944661636733991,0.0020703261626829443
1386.8098924942901,1386.8098924942901,0.9972605701703282,0.0020695769012379936
1386.8168371071624,1386.8168371071624,1.0007180225212884,0.002070031138150213
1386.8237817199872,1386.8237817199872,1.0020586474906357,0.0020686464664075297
1386.8307263327665,1386.8307263327665,1.0003641559781584,0.0020663461363343476
1386.8376709455456,1386.8376709455456,0.9986826458307603,0.0020645201771163917
1386.844615558231,1386.844615558231,1.0050345814386474,0.002066613559132455
1386.8515601708468,1386.8515601708468,1.0030121793853861,0.002067197869523359
1386.8585047834633,1386.8585047834633,0.9992260761610361,0.0020647535799430522
1386.865449396032,1386.865449396032,1.001142428470758,0.0020663543534672184
1386.872394008555,1386.872394008555,0.9991458323668259,0.002066693909812628
1386.879338621008,1386.879338621008,1.000718273078911,0.0020668631099918086
1386.8862832334376,1386.8862832334376,0.9948851455330038,0.0020658990059005057
1386.89322784582,1386.89322784582,1.0019013219512658,0.0020678228741684026
1386.9001724581572,1386.9001724581572,0.9957705948331347,0.0020617652149276912
1386.9071170704706,1386.9071170704706,0.9959151937500156,0.0020596558504675563
1386.9140616826905,1386.9140616826905,0.996109633718398,0.0020563827011458036
1386.92100629491,1386.92100629491,1.0021050906707454,0.0020570548589906586
1386.9279509070377,1386.9279509070377,0.9964891371097606,0.002049742783157264
1386.934895519165,1386.934895519165,1.0012868582766905,0.002048357729799887
1386.9418401312676,1386.9418401312676,1.0016295750283173,0.0020436332695699484
1386.9487847432788,1386.9487847432788,0.9972501139863574,0.0020379534168090976
1386.955729355266,1386.955729355266,1.0064599994914452,0.002039063959825473
1386.9626739672062,1386.9626739672062,0.999739155941733,0.002034514990585588
1386.9696185790772,1386.9696185790772,0.9987274784816702,0.0020340005187713265
1386.9765631909017,1386.9765631909017,1.00185837774122,0.002036709984564966
1386.9848967250816,1386.9848967250816,1.0110830141187268,0.002041730079607374
1386.9918413368123,1386.9918413368123,1.007264545413296,0.0020416716300749316
1386.9987859485436,1386.9987859485436,0.998188698087603,0.002040976649218927
1387.0057305601824,1387.0057305601824,1.0018114226647057,0.0020452033289184443
1387.0126751718426,1387.0126751718426,0.997813876637472,0.0020492101731445504
1387.0196197833877,1387.0196197833877,0.9944194907357623,0.002053910483754755
1387.0265643949328,1387.0265643949328,0.9966682015623475,0.0020615545787852118
1387.0335090063847,1387.0335090063847,1.0005958665819077,0.002071212180957336
1387.0404536178357,1387.0404536178357,1.0020596828578154,0.002080296865629717
1387.0473982292183,1387.0473982292183,0.9899598523320222,0.002086305816702267
1387.0543428405774,1387.0543428405774,0.7759179263202165,0.001987750597331843
1387.0612874518654,1387.0612874518654,0.9684186781693824,0.0020803356938992774
1387.0682320631308,1387.0682320631308,1.0017535860273035,0.002090096129007602
1387.0751766743501,1387.0751766743501,1.0011429409088017,0.0020845139441693426
1387.0821212854994,1387.0821212854994,0.9978343930874713,0.0020781961185009946
1387.0890658966478,1387.0890658966478,0.9974816138613132,0.0020744735503018205
1387.096010507704,1387.096010507704,0.9971287131439552,0.0020705588453812057
1387.1029551187835,1387.1029551187835,1.000275711061193,0.002068733188220013
1387.1098997297456,1387.1098997297456,0.9956034656299562,0.0020643894144061143
1387.116844340709,1387.116844340709,1.0004250284237632,0.002064575005228111
1387.123788951579,1387.123788951579,1.0062524943702544,0.002065614565013984
1387.1307335624483,1387.1307335624483,1.004462785695504,0.0020616671643647545
1387.137678173271,1387.137678173271,1.000435640011435,0.002059932041791912
1387.1446227840245,1387.1446227840245,1.0000993596042858,0.0020605255318359916
1387.151567394732,1387.151567394732,1.0004064253305338,0.0020613544194317034
1387.1585120054378,1387.1585120054378,1.0014691220381073,0.002063817560408421
1387.1654566160746,1387.1654566160746,0.9981208537230035,0.002063917310753459
1387.1724012266654,1387.1724012266654,1.001243269247692,0.0020658245347544217
1387.1793458372092,1387.1793458372092,0.998680425864832,0.0020667975043828987
1387.1862904477052,1387.1862904477052,0.9976936686666467,0.0020684659749313095
1387.1932350581567,1387.1932350581567,1.000914703790928,0.002068453626679536
1387.2001796685374,1387.2001796685374,0.9957557711327996,0.002067258068148433
1387.207124278918,1387.207124278918,0.998353678617752,0.002065659004240871
1387.2140688892985,1387.2140688892985,0.9979963819154742,0.0020637762256877617
1387.2210134995632,1387.2210134995632,1.0000262884811553,0.0020610670328862907
1387.2279581097814,1387.2279581097814,1.0001739229571736,0.0020584437759609154
1387.234902719975,1387.234902719975,1.0017088241267924,0.0020541687418101128
1387.2418473301464,1387.2418473301464,0.9993074343554211,0.002048804664706142
1387.248791940248,1387.248791940248,0.9983839044628429,0.0020455950550045585
1387.2557365502796,1387.2557365502796,0.9998606845552441,0.002042369821135999
1387.2626811602872,1387.2626811602872,0.9985721056420112,0.0020408336744685124
1387.2696257702726,1387.2696257702726,1.0044158158792902,0.0020400982136790833
1387.2765703801879,1387.2765703801879,1.0047311812305624,0.0020419124614724877
1387.2835149900789,1387.2835149900789,1.0014041853343882,0.0020397760117062355
1387.2904595998777,1387.2904595998777,1.00003906524083,0.002041748306839137
1387.2974042096769,1387.2974042096769,0.998286821867163,0.0020424069927725942
1387.3043488194755,1387.3043488194755,1.002406050394158,0.002047569246517533
1387.3129601354856,1387.3129601354856,0.9960988786849596,0.0020484324513726907
1387.3210158826892,1387.3210158826892,1.0001630246274817,0.0020538326699955697
1387.327960492279,1387.327960492279,0.9983650055384421,0.0020588628836726752
1387.3362940237105,1387.3362940237105,1.001029077295648,0.0020662096706961933
1387.3432386332067,1387.3432386332067,0.9984838503091028,0.002073417544100571
1387.3510165958094,1387.3510165958094,0.9761432210798373,0.0020701731557221078
1387.3585167739723,1387.3585167739723,0.774516504331495,0.001983108351622114
1387.3654613833285,1387.3654613833285,0.9875041771072848,0.002090263861096725
1387.3724059926385,1387.3724059926385,0.9986631437744234,0.0020913775748592944
1387.3793506019251,1387.3793506019251,1.0014151566863156,0.0020869305092320717
1387.3862952111408,1387.3862952111408,0.9963649414965193,0.0020813326013052347
1387.3932398203347,1387.3932398203347,0.9977512381736087,0.0020786114943151376
1387.4001844294582,1387.4001844294582,1.0017688688092004,0.002075769533336113
1387.407129038535,1387.407129038535,0.9975755480821917,0.002073256863236726
1387.414073647588,1387.414073647588,0.9999337029757136,0.0020716449833289617
1387.4210182565957,1387.4210182565957,0.9997463822744947,0.00206710350506497
1387.4279628655333,1387.4279628655333,1.0013136738052457,0.002067247848072349
1387.4349074744698,1387.4349074744698,1.0047577571328015,0.002067092305527342
1387.441852083337,1387.441852083337,0.9998924530678982,0.0020637723481959367
1387.4487966921583,1387.4487966921583,0.9975206388478345,0.002062378444540159
1387.4557413009327,1387.4557413009327,1.004441800686574,0.0020655554172132697
1387.462685909683,1387.462685909683,0.99828708014903,0.0020648717331709283
1387.4696305183645,1387.4696305183645,0.9994688551319217,0.002064819037919067
1387.4765751269993,1387.4765751269993,0.9998120766072557,0.0020656919967526237
1387.4835197356333,1387.4835197356333,1.0007215024771279,0.0020680145997762065
1387.4904643441978,1387.4904643441978,1.000729686514569,0.0020677736854377046
1387.4974089527163,1387.4974089527163,1.0000441468170358,0.002067429088470499
1387.504353561188,1387.504353561188,1.0002899351771557,0.002066541717046534
1387.5112981696122,1387.5112981696122,0.9934895181447615,0.002060221169338177
1387.5182427779907,1387.5182427779907,0.9990909105245169,0.002061903333135118
1387.525187386323,1387.525187386323,0.9970060357351069,0.0020579671315588974
1387.5321319946318,1387.5321319946318,0.9980385718124662,0.0020537851079086697
1387.5390766028934,1387.5390766028934,0.999539945705363,0.0020515255704783956
1387.5460212110854,1387.5460212110854,1.0009282956121883,0.0020496061893901358
1387.5529658192547,1387.5529658192547,1.0022380359797538,0.002046623835523973
1387.5599104273535,1387.5599104273535,1.0044792362330148,0.0020424670151333647
1387.5668550354058,1387.5668550354058,1.000070202578962,0.002040148316001303
1387.5737996434584,1387.5737996434584,1.0016010245394011,0.0020386416567836135
1387.5807442514647,1387.5807442514647,1.0013254704658914,0.0020383546120576754
1387.5876888593998,1387.5876888593998,1.002348982280175,0.0020403331343475852
1387.5946334673129,1387.5946334673129,0.9960427233743919,0.0020385094429538763
1387.601578075156,1387.601578075156,0.9988125070812993,0.002040775447087255
1387.6085226829523,1387.6085226829523,1.002029868105742,0.0020459664490317603
1387.6154672907246,1387.6154672907246,0.9974277647769846,0.0020490275544993533
1387.6224118984514,1387.6224118984514,0.9991065012245081,0.00205407811181061
1387.629356506132,1387.629356506132,0.9976028930602283,0.0020591422230490366
1387.636301113765,1387.636301113765,1.0018888790728255,0.0020659569026144345
1387.6432457213516,1387.6432457213516,0.9999247738708605,0.0020724658861558908
1387.6501903288922,1387.6501903288922,1.0009774036075274,0.002080965207260981
1387.6571349363628,1387.6571349363628,0.9165162694432573,0.002048320300259978
1387.6640795438323,1387.6640795438323,0.8113811072906699,0.0019907683610218257
1387.6710241512565,1387.6710241512565,0.994575411636988,0.0020705732582494596
1387.6779687586336,1387.6779687586336,0.995243153904626,0.002072767253929793
1387.6849133659416,1387.6849133659416,0.9914574809191636,0.002070251139198749
1387.6918579732248,1387.6918579732248,0.9993568595843895,0.0020731483863076832
1387.6988025804626,1387.6988025804626,0.9942047877364206,0.0020725405281926375
1387.7057471876305,1387.7057471876305,0.9987127350946979,0.002072785521990855
1387.7126917947985,1387.7126917947985,1.000541288748217,0.0020746789201815173
1387.719636401895,1387.719636401895,1.0046119471873844,0.002075005863835816
1387.7265810089473,1387.7265810089473,1.0059239699564584,0.0020768050415673816
1387.7335256159756,1387.7335256159756,1.0072207755799856,0.0020780438865076736
1387.74047022298,1387.74047022298,1.0087487786080536,0.002078585592109235
