time,time,flux,flux_err
1325.2980362070548,1325.2980362070548,1.000423092242115,0.00046977662085521146
1325.3063695837388,1325.3063695837388,0.9998053962011433,0.0004699355063429927
1325.3147029607342,1325.3147029607342,0.9999158221709594,0.0004701065909822045
1325.3230363380585,1325.3230363380585,1.0001203427914283,0.00047040231000280785
1325.3306752675621,1325.3306752675621,0.9995873311988092,0.000429535118247533
1325.3376197490934,1325.3376197490934,0.999826792926615,0.000429740588185265
1325.344564230858,1325.344564230858,0.9997493876488548,0.00042989080635502376
1325.3515087128083,1325.3515087128083,0.9997168743761587,0.00043006745163224415
1325.358453195038,1325.358453195038,1.0000677001672515,0.00043047007557553906
1325.3653976773846,1325.3653976773846,1.0005581397821377,0.00043069865222689
1325.3723421599866,1325.3723421599866,1.0000326469841354,0.00043083305608497823
1325.3792866427523,1325.3792866427523,1.0001380951809966,0.000431018309221231
1325.3862311257271,1325.3862311257271,1.0003607311520848,0.0004313555183896573
1325.3931756089346,1325.3931756089346,0.9998940263911796,0.0004315088163935974
1325.4001200922357,1325.4001200922357,0.99986811222687,0.00043172383237571844
1325.4070645757924,1325.4070645757924,0.9996180222105254,0.00043176779342397724
1325.4140090595126,1325.4140090595126,0.9998250661622841,0.00043203418171669505
1325.4209535434188,1325.4209535434188,1.0001621883777494,0.00043229412530698094
1325.4278980275114,1325.4278980275114,1.0001458922793485,0.0004325376598474003
1325.4348425117669,1325.4348425117669,1.000855488631027,0.0004329208702008113
1325.441786996232,1325.441786996232,0.9992258716230971,0.000432774576759827
1325.448731480883,1325.448731480883,0.9997108836589025,0.00043301123829342223
1325.455675965651,1325.455675965651,1.000420308579881,0.0004333063254423268
1325.4626204506046,1325.4626204506046,0.9996281707134618,0.0004333605130996983
1325.4695649357684,1325.4695649357684,1.000463426637398,0.00043368332070533395
1325.4765094210716,1325.4765094210716,0.9990616028114395,0.00043375536066398573
1325.4834539065146,1325.4834539065146,1.0001100769620719,0.0004340848906646367
1325.4903983921672,1325.4903983921672,1.0003229545000316,0.0004344059678674095
1325.4973428779824,1325.4973428779824,1.0005951100014276,0.00043463396461807083
1325.5042873639145,1325.5042873639145,1.0004533111131955,0.0004348602420349331
1325.511231849986,1325.511231849986,0.9997544571389856,0.0004349768150792757
1325.5181763363137,1325.5181763363137,0.9995358411582183,0.0004352133282202528
1325.525120822711,1325.525120822711,0.9998862631604879,0.0004354944861684395
1325.5320653092947,1325.5320653092947,0.9997423519928518,0.00043576997607942613
1325.5390097960415,1325.5390097960415,0.9997211711075918,0.0004359522475509109
1325.5459542828817,1325.5459542828817,1.0004802535288682,0.00043635084609963524
1325.5528987699076,1325.5528987699076,1.0005116186675318,0.00043659048425774414
1325.5598432570737,1325.5598432570737,1.0001460437173448,0.00043678655442767325
1325.5667877443561,1325.5667877443561,0.9998245334615271,0.00043703195519529173
1325.5737322318012,1325.5737322318012,0.9992871096072442,0.0004370537077204201
1325.5806767194094,1325.5806767194094,1.0003480567715193,0.00043741822395099004
1325.5876212071337,1325.5876212071337,0.9996165488596287,0.00043749106617347753
1325.5945656950219,1325.5945656950219,0.999807169117668,0.00043765401826237
1325.6015101829792,1325.6015101829792,1.0002419161333873,0.0004379382282740726
1325.6084546710995,1325.6084546710995,1.0000674099932632,0.00043805389300247035
1325.615399159383,1325.615399159383,1.0005404177429007,0.00043814225079099516
1325.6223436477364,1325.6223436477364,1.0002039802447642,0.00043817980088721876
1325.629288136276,1325.629288136276,1.000093812609189,0.00043820059870230445
1325.6362326249086,1325.6362326249086,0.9995453883791804,0.0004381169543491775
1325.6431771136808,1325.6431771136808,0.9998086518963698,0.0004383809877440527
1325.65012160257,1325.65012160257,0.99954135771681,0.00043836126721094197
1325.657066091575,1325.657066091575,0.9995906201455582,0.00043834466639054443
1325.66401058072,1325.66401058072,1.0001210399800176,0.0004385197145297036
1325.6709550699811,1325.6709550699811,1.000447963256913,0.0004385243986502964
1325.677899559359,1325.677899559359,1.0007372260215264,0.00043872125618695304
1325.6848440488302,1325.6848440488302,1.0002636744825952,0.0004387149263696308
1325.691788538464,1325.691788538464,0.9995558105283975,0.0004386662744752099
1325.698733028145,1325.698733028145,1.0000742119090131,0.0004388197718812075
1325.7056775179879,1325.7056775179879,0.9997769520861942,0.000438843778914487
1325.7126220079244,1325.7126220079244,0.9996979584312518,0.00043898765915163557
1325.719566497954,1325.719566497954,1.0003656123027718,0.00043922461682889086
1325.7265109881469,1325.7265109881469,0.9996446462345909,0.0004392677099422417
1325.7334554783858,1325.7334554783858,1.0002406507072745,0.0004395011283402077
1325.7403999687415,1325.7403999687415,0.9994642962773261,0.0004396000327382838
1325.7473444592135,1325.7473444592135,1.000084916782924,0.0004398148540223349
1325.7542889498022,1325.7542889498022,1.0004071880013998,0.00044001895898862297
1325.7612334404605,1325.7612334404605,0.9999921313205717,0.00044006794464853413
1325.768177931212,1325.768177931212,0.9999576208583884,0.00044034274099242685
1325.775122422126,1325.775122422126,1.000149111786913,0.00044049393199664113
1325.7820669130874,1325.7820669130874,1.0005563685838963,0.0004407721088717424
1325.789011404165,1325.789011404165,1.0004943185440776,0.0004409693690831118
1325.795955895312,1325.795955895312,0.9993173484481395,0.0004409119146601649
1325.8029003865993,1325.8029003865993,0.999345005606437,0.00044102411236923424
1325.809844877886,1325.809844877886,1.000368879051696,0.0004413543074056214
1325.8167893693826,1325.8167893693826,0.9993980345347104,0.0004412257962887263
1325.8237338609024,1325.8237338609024,0.9997688571184031,0.0004413917155427295
1325.8306783525386,1325.8306783525386,1.0006501740649538,0.00044160481911683475
1325.8376228442448,1325.8376228442448,0.9997831559507727,0.0004415129866815686
1325.8445673360438,1325.8445673360438,0.9999856876458889,0.00044156103607137325
1325.851511827936,1325.851511827936,1.0003592504106875,0.00044153855663221764
1325.8584563199215,1325.8584563199215,1.0000297623612708,0.00044148266749579473
1325.8654008119538,1325.8654008119538,1.0002345728010025,0.0004413494347088267
1325.872345304102,1325.872345304102,0.9996634187591695,0.0004411483904138157
1325.8792897963206,1325.8792897963206,0.9996956297004438,0.00044105555307289633
1325.8862342886318,1325.8862342886318,1.0002530319326473,0.00044098394108035106
1325.8931787810366,1325.8931787810366,1.000042823691039,0.00044095794724341095
1325.9001232734643,1325.9001232734643,1.0002793201427518,0.00044087722412406073
1325.9070677660318,1325.9070677660318,0.999637189308752,0.0004407077532349782
1325.9140122586457,1325.9140122586457,1.0002124428943957,0.0004407527702774424
1325.920956751353,1325.920956751353,1.00011179652767,0.0004407631962989947
1325.9279012441305,1325.9279012441305,0.9997452210810888,0.0004405614289968004
1325.9348457369772,1325.9348457369772,1.000161887796399,0.00044059679230954867
1325.9417902298937,1325.9417902298937,0.9994024570116202,0.0004404516776778182
1325.948734722881,1325.948734722881,1.000513828076724,0.00044066256825763
1325.9556792159838,1325.9556792159838,0.9998215523568119,0.0004405713347330548
1325.9637348280373,1325.9637348280373,0.9997570007207834,0.00044062332672263106
1325.9709571009596,1325.9709571009596,0.9997014104083183,0.0004405497142128133
1325.9779015942488,1325.9779015942488,1.0008208374564798,0.00044068725948582523
1325.9848460876078,1325.9848460876078,0.9998308000096842,0.0004405854504585544
1325.9917905810366,1325.9917905810366,0.9998161178152859,0.00044062655567359373
1325.9987350745591,1325.9987350745591,1.0000726918294227,0.0004407625421986328
1326.0056795681044,1326.0056795681044,1.0005515113738945,0.0004409302554470318
1326.0126240617433,1326.0126240617433,0.9998538232492905,0.0004409797913364828
1326.0195685554052,1326.0195685554052,0.9996963160348346,0.0004411117560980158
1326.0265130491832,1326.0265130491832,0.9999464656243591,0.0004412747229455468
1326.0334575430081,1326.0334575430081,0.9999347642597453,0.00044138674801745493
1326.0404020369024,1326.0404020369024,0.9997789617218278,0.00044134601956792097
1326.0473465308442,1326.0473465308442,1.0010337377460363,0.00044157541665390163
1326.0542910248546,1326.0542910248546,1.0009628698570654,0.00044159763594429273
1326.0612355189128,1326.0612355189128,0.99969563066273,0.0004416145531936116
1326.0681800130635,1326.0681800130635,0.9992261344570792,0.0004415534275633709
1326.0751245072374,1326.0751245072374,1.0000985144096983,0.00044176664571286394
1326.0820690014584,1326.0820690014584,0.9996920474159665,0.0004416998201172806
1326.0890134957488,1326.0890134957488,1.0000184108075765,0.0004418989097025789
1326.0959579901325,1326.0959579901325,0.999883883636536,0.0004419032453095012
1326.1029024845398,1326.1029024845398,1.0006260117883492,0.0004420435880322414
1326.1098469790159,1326.1098469790159,1.0000608213880648,0.00044206425703385485
1326.1167914735393,1326.1167914735393,1.0000684795031505,0.00044203047463035666
1326.123735968109,1326.123735968109,1.0000263631593123,0.0004420165451388379
1326.1306804627725,1326.1306804627725,0.9999437654180052,0.0004420526639104475
1326.1376249574582,1326.1376249574582,0.9995592796371447,0.00044194226607039403
1326.1445694521917,1326.1445694521917,0.9995478758331874,0.0004421088113607462
1326.151513946971,1326.151513946971,1.0004538037109998,0.00044222995409415767
1326.1584584417967,1326.1584584417967,0.9997784855188921,0.00044225771028548564
1326.165402936693,1326.165402936693,1.000822341866987,0.00044242178621369064
1326.172347431635,1326.172347431635,1.000203697202861,0.00044224909999816716
1326.1792919266477,1326.1792919266477,0.9995783209681788,0.0004422350683892944
1326.186236421683,1326.186236421683,1.0002826681205845,0.00044227553692770857
1326.193180916765,1326.193180916765,0.9991301410348493,0.00044216114348234693
1326.2001254118939,1326.2001254118939,1.0007215981090356,0.00044226953892327137
1326.2070699070923,1326.2070699070923,0.9995140703400749,0.0004422806543063656
1326.2140144023142,1326.2140144023142,0.9995855879322599,0.0004422466831727337
1326.220958897606,1326.220958897606,0.9998464537331986,0.0004422737553338481
1326.2279033929208,1326.2279033929208,1.0001249085434856,0.00044240708887427146
1326.234847888282,1326.234847888282,1.0007402365636793,0.0004424263020885393
1326.24179238369,1326.24179238369,1.0000392509006286,0.000442377909070821
1326.2487368791685,1326.2487368791685,0.9996969493458157,0.00044232546739304016
1326.2556813746462,1326.2556813746462,1.000012477547442,0.0004423594376128921
1326.2626258701941,1326.2626258701941,1.0001730687706896,0.00044241970378542403
1326.2695703657887,1326.2695703657887,1.0000670265218676,0.0004424796256425486
1326.276514861406,1326.276514861406,1.000266823562536,0.0004424342028564518
1326.2834593570703,1326.2834593570703,0.9997785711229854,0.0004424732151151603
1326.2904038527809,1326.2904038527809,1.0003566140739115,0.0004425919965655373
1326.2973483485384,1326.2973483485384,1.0000022253665741,0.00044262801768985715
1326.3042928443188,1326.3042928443188,0.9996529511741477,0.00044257268168597304
1326.3112373401696,1326.3112373401696,0.9994079764641007,0.00044260614027014463
1326.31818183602,1326.31818183602,0.9998621847315464,0.0004427447792844837
1326.32512633194,1326.32512633194,0.9997769842303141,0.0004428905303094779
1326.3320708278839,1326.3320708278839,1.0004942022440748,0.00044298489498840473
1326.3390153238738,1326.3390153238738,1.0006826279517091,0.0004431176852098564
1326.3470709393036,1326.3470709393036,0.9998137451590822,0.0004431631334235541
1326.3556821144177,1326.3556821144177,0.9999653123302107,0.00044324932043192595
1326.362626610478,1326.362626610478,1.0000911039281517,0.00044348140019006893
1326.3695711066543,1326.3695711066543,0.9991242974215971,0.00044332749564463604
1326.3765156028542,1326.3765156028542,1.0002031480913869,0.00044365024448767926
1326.3834600990535,1326.3834600990535,1.0004596948325133,0.00044381409438007234
1326.3904045953,1326.3904045953,1.0002044943325936,0.00044389807294025537
1326.397349091593,1326.397349091593,1.0001762009171293,0.0004441176438936572
1326.4042935879088,1326.4042935879088,1.0003128494415376,0.00044414743368935286
1326.411238084272,1326.411238084272,0.9989438498639478,0.0004441168089470358
1326.4181825806809,1326.4181825806809,1.000581926866539,0.000444488325079918
1326.4251270770903,1326.4251270770903,0.99944297418861,0.0004444315777997673
1326.4320715735691,1326.4320715735691,1.000480926285841,0.0004446102334124795
1326.4390160700252,1326.4390160700252,0.9995776305909281,0.0004445984126332728
1326.445960566574,1326.445960566574,0.9990278492041591,0.0004445743208500405
1326.4529050630997,1326.4529050630997,0.9999914542414091,0.0004449044449689449
1326.459849559742,1326.459849559742,1.0001850814710047,0.00044512278086996683
1326.4667940562674,1326.4667940562674,1.0000420327472745,0.0004450178921203521
1326.4737385529327,1326.4737385529327,1.0004711509110786,0.0004453089186894911
1326.4806830496684,1326.4806830496684,1.0003423484879774,0.00044532060263254345
1326.4876275463334,1326.4876275463334,1.0004900484147696,0.0004455170882613415
1326.494572043069,1326.494572043069,0.9995188801632192,0.0004454695684160811
1326.5015165398502,1326.5015165398502,0.9997123702219619,0.00044560103294702765
1326.5084610366325,1326.5084610366325,0.9991675654193427,0.0004456433356815545
1326.5154055334606,1326.5154055334606,0.9999996294325462,0.0004458773055200812
1326.5223500303123,1326.5223500303123,1.0000798080103093,0.000446119556844692
1326.5292945271872,1326.5292945271872,1.0006405541016499,0.0004463478818255199
1326.5362390241085,1326.5362390241085,0.9995970419645366,0.00044628190166850915
1326.5431835210536,1326.5431835210536,1.0004969611148546,0.000446629733990263
1326.5501280179983,1326.5501280179983,1.0001709750610661,0.00044673953388158
1326.5570725149896,1326.5570725149896,0.9997530764985363,0.00044676195387521124
1326.5640170120041,1326.5640170120041,0.9999898495864782,0.00044681604138240895
1326.570961509042,1326.570961509042,0.9998989412639195,0.00044685593472653073
1326.5779060061036,1326.5779060061036,0.9996623385783205,0.0004468719508839267
1326.5848505032109,1326.5848505032109,1.0004347794854824,0.0004471621822480034
1326.5917950003422,1326.5917950003422,1.0001699579999879,0.00044719243070434676
1326.5987394974732,1326.5987394974732,0.9995555931421292,0.0004472075515153383
1326.6056839946507,1326.6056839946507,0.9999409257869349,0.0004473768875510562
1326.6126284918053,1326.6126284918053,0.9999338654897343,0.00044741472114355116
1326.619572989029,1326.619572989029,1.000563570258206,0.00044762574432028086
1326.6265174862533,1326.6265174862533,0.999641850133908,0.0004474943357985965
1326.6334619835936,1326.6334619835936,0.9992482038351991,0.00044751601773073324
1326.6404064808416,1326.6404064808416,1.0005860648209826,0.00044771104717633526
1326.6473509781588,1326.6473509781588,1.001081179243048,0.0004478494351207294
1326.6542954754993,1326.6542954754993,1.0001761074522308,0.0004477016890593439
1326.6612399728633,1326.6612399728633,1.0000798605203467,0.0004476349430360452
1326.66818447025,1326.66818447025,0.9999247004704822,0.0004474574867875245
1326.6751289676376,1326.6751289676376,1.0004761010939773,0.00044758964539780017
1326.682073465071,1326.682073465071,0.9994958617010059,0.00044733264947873364
1326.6904068620195,1326.6904068620195,0.9998947345625491,0.000447351020971312
1326.6973513594764,1326.6973513594764,0.9992598810195904,0.00044707155231384494
1326.7042958570032,1326.7042958570032,1.000151639691755,0.00044723055824082337
1326.7120736942204,1326.7120736942204,1.0000950279713845,0.00044716194831736914
1326.719573751549,1326.719573751549,1.0002231760738236,0.0004470047945461102
1326.7265182491217,1326.7265182491217,0.9999881041678338,0.0004470533365099966
1326.7334627466953,1326.7334627466953,1.00036538127432,0.0004470093292014544
1326.7404072442923,1326.7404072442923,1.0002655688267332,0.000446923976137933
1326.7473517419353,1326.7473517419353,0.999790186457694,0.00044678670254833614
1326.754296239555,1326.754296239555,0.9999902871641531,0.0004468138397268886
1326.7612407372217,1326.7612407372217,0.9997195394946049,0.00044670996190979254
1326.7681852349117,1326.7681852349117,0.9997396311755592,0.0004467049320935992
1326.7751297326245,1326.7751297326245,1.0000499281940276,0.0004467152453550907
1326.782074230361,1326.782074230361,1.000023338918167,0.0004468438424020856
1326.7890187280511,1326.7890187280511,1.0002750660412736,0.0004468764504949787
1326.7959632258571,1326.7959632258571,1.0003513652457252,0.0004469271879303285
1326.8029077236638,1326.8029077236638,0.9998902209833886,0.0004469101973618397
1326.8098522213531,1326.8098522213531,0.9993062801489077,0.0004468138578788034
1326.8167967192526,1326.8167967192526,1.0005084533488877,0.00044704792617903847
1326.823741217082,1326.823741217082,1.0003039888997738,0.0004470774470636354
1326.8306857148884,1326.8306857148884,0.9993616425376939,0.0004468825253754623
1326.8376302127645,1326.8376302127645,0.9992179584298937,0.0004468793832210752
1326.8445747106405,1326.8445747106405,1.0004553111498529,0.00044701711243305193
1326.85151920854,1326.85151920854,1.0001466380855657,0.000447002285439837
1326.8584637064625,1326.8584637064625,1.0006933328541152,0.0004469370834933015
1326.8654082044088,1326.8654082044088,1.000805291273959,0.0004468864312883503
1326.8723527023546,1326.8723527023546,0.9993406619291936,0.00044664424491789396
1326.8792972003005,1326.8792972003005,0.9993697648019415,0.00044640657816848205
1326.8862416983163,1326.8862416983163,1.0001201537346804,0.00044643275943044797
1326.8931861963085,1326.8931861963085,1.0000576678419022,0.0004462943750958567
1326.9001306943017,1326.9001306943017,0.9999566699128828,0.00044605527526152017
1326.9070751923405,1326.9070751923405,1.0000597366281236,0.00044593758429909726
1326.9140196904027,1326.9140196904027,0.9993869328774112,0.0004455610594973211
1326.920964188442,1326.920964188442,1.0006924685956822,0.000445562304722724
1326.9279086865276,1326.9279086865276,0.9999771061245128,0.00044519597689021706
1326.9348531846365,1326.9348531846365,1.0003386731678041,0.0004451168688990527
1326.9417976827217,1326.9417976827217,0.9995098342647678,0.00044482047303333214
1326.9487421808544,1326.9487421808544,0.9995875045592536,0.00044464904465461614
1326.9556866789862,1326.9556866789862,1.0001838094079685,0.00044463095081820987
1326.9626311771422,1326.9626311771422,1.0011479698838799,0.00044451062741794275
1326.9695756752976,1326.9695756752976,0.9998424231450629,0.0004442008842048782
1326.976520173476,1326.976520173476,0.9997892930129975,0.0004439979125436968
1326.9834646716786,1326.9834646716786,1.0000496316812577,0.00044396969029148234
1326.9904091698804,1326.9904091698804,0.9991488669418759,0.0004436725064536864
1326.9973536681057,1326.9973536681057,0.9998323955612085,0.00044365865561382596
1327.0042981663544,1327.0042981663544,0.9996037808253032,0.0004436504330136687
1327.0112426645796,1327.0112426645796,1.0000541499892126,0.0004436407753109639
1327.0181871628515,1327.0181871628515,1.0008206147432195,0.00044377687370853337
1327.0251316611234,1327.0251316611234,1.0001718678334333,0.00044368176882258884
1327.032076159419,1327.032076159419,1.000045206256313,0.0004436047569136668
1327.0390206576903,1327.0390206576903,1.0000941320526613,0.0004436104456673539
1327.0459651560325,1327.0459651560325,0.9998386618353343,0.0004434193535598414
1327.0529096543507,1327.0529096543507,1.0001603746529706,0.0004435921848065262
1327.0609652724117,1327.0609652724117,0.9996649716906807,0.0004436061962189518
