time,time,flux,flux_err
1325.3016359038274,1325.3016359038274,0.9999679762262953,6.328090587744103e-05
1325.3099691660366,1325.3099691660366,1.0000161355880317,6.330935318508689e-05
1325.3183024283626,1325.3183024283626,1.0000653192521352,6.333219850994678e-05
1325.3266356907268,1325.3266356907268,0.9998962433982966,6.334758088427878e-05
1325.3342745147504,1325.3342745147504,1.0000938292504937,5.784876466881733e-05
1325.3412189001924,1325.3412189001924,1.000104040795466,5.78641159330299e-05
1325.3481632858213,1325.3481632858213,0.9999983155435667,5.787234590355398e-05
1325.3551076714496,1325.3551076714496,0.9998489798707378,5.787861400272414e-05
1325.3620520572176,1325.3620520572176,1.0000061148951396,5.789322250847961e-05
1325.3689964429861,1325.3689964429861,0.9999421968121084,5.789966530301324e-05
1325.3759408288468,1325.3759408288468,0.999942996655806,5.790459357530484e-05
1325.3828852148015,1325.3828852148015,0.9999678220633227,5.7909290972503013e-05
1325.389829600849,1325.389829600849,1.0000156103562459,5.791517009384381e-05
1325.3967739868963,1325.3967739868963,1.000048147416109,5.791746447495283e-05
1325.4037183731768,1325.4037183731768,0.9999806073798145,5.791666155311019e-05
1325.410662759364,1325.410662759364,1.0000873472416274,5.791640160163608e-05
1325.417607145691,1325.417607145691,0.9999642351696414,5.7912400326874065e-05
1325.4245515321109,1325.4245515321109,0.9999565900060411,5.7910033835185006e-05
1325.4314959185776,1325.4314959185776,0.9999128278377464,5.7907706718226454e-05
1325.4384403050908,1325.4384403050908,1.0000200908311727,5.790837938257055e-05
1325.4453846917436,1325.4453846917436,0.9999878778000655,5.790306941181761e-05
1325.4523290783964,1325.4523290783964,1.0000301020983726,5.790386677412543e-05
1325.4592734651426,1325.4592734651426,1.000107782217046,5.79038681947103e-05
1325.466217851935,1325.466217851935,0.999973918196625,5.789767173720787e-05
1325.4731622388674,1325.4731622388674,1.0000112330620614,5.7898826387023434e-05
1325.4801066257996,1325.4801066257996,1.0000398707612943,5.7900901296061586e-05
1325.4870510128717,1325.4870510128717,1.0000639258716615,5.790260690842669e-05
1325.4939953999437,1325.4939953999437,0.9999701178713511,5.7902372375527815e-05
1325.5009397871552,1325.5009397871552,1.0001137148751593,5.791016549732596e-05
1325.507884174367,1325.507884174367,0.9999399231012358,5.790930521042337e-05
1325.514828561672,1325.514828561672,1.000034023048572,5.7915141140701445e-05
1325.5217729490698,1325.5217729490698,0.9999745759695031,5.792150992333673e-05
1325.528717336514,1325.528717336514,0.9999499775488399,5.792692990058487e-05
1325.5356617240052,1325.5356617240052,1.0000435412634663,5.793406143864906e-05
1325.5426061115893,1325.5426061115893,0.9999971517702866,5.7939431569655665e-05
1325.5495504992205,1325.5495504992205,0.9999309070474679,5.794322035209414e-05
1325.556494886944,1325.556494886944,1.0000149470917683,5.795024086228376e-05
1325.563439274668,1325.563439274668,1.0000619415431846,5.79556097806659e-05
1325.5703836625785,1325.5703836625785,0.999945177112156,5.795650653766651e-05
1325.5773280504418,1325.5773280504418,1.0000595499413119,5.7962575642594625e-05
1325.5842724384452,1325.5842724384452,0.9998949501103166,5.796107223234046e-05
1325.591216826448,1325.591216826448,1.0000232285908166,5.7965834803208147e-05
1325.598161214545,1325.598161214545,0.9999033553602061,5.796220585386229e-05
1325.6051056027343,1325.6051056027343,0.9999683255591709,5.7962293761819806e-05
1325.6120499909239,1325.6120499909239,0.9999750524000293,5.7962454783001173e-05
1325.6189943792997,1325.6189943792997,0.9999617482502554,5.7959610825768836e-05
1325.625938767443,1325.625938767443,1.0001457926290265,5.7961449337488024e-05
1325.6328831560515,1325.6328831560515,0.999994879079245,5.795546958242921e-05
1325.6398275444274,1325.6398275444274,0.9999234359712865,5.795149350680574e-05
1325.6467719329426,1325.6467719329426,0.9999728232762337,5.7949223553835014e-05
1325.6537163215048,1325.6537163215048,1.0000363216143922,5.794893549127186e-05
1325.6606607101598,1325.6606607101598,1.0000103568281067,5.7945337299495194e-05
1325.667605098862,1325.667605098862,1.0000911326930098,5.79460317649364e-05
1325.67454948761,1325.67454948761,0.9999772579384084,5.7940499068241205e-05
1325.6814938764517,1325.6814938764517,1.0000502898389478,5.7941760479201563e-05
1325.68843826534,1325.68843826534,1.0000074364533649,5.79415254617257e-05
1325.6953826542745,1325.6953826542745,1.0000198122853112,5.794150361158181e-05
1325.702327043256,1325.702327043256,0.9999205288442088,5.7939421377096676e-05
1325.7092714322835,1325.7092714322835,1.00003532948249,5.7945809911380185e-05
1325.7162158213578,1325.7162158213578,1.000034110583135,5.794822853147721e-05
1325.723160210525,1325.723160210525,1.0000266740751675,5.795138826753783e-05
1325.7301045996926,1325.7301045996926,1.000066334774802,5.79571223146614e-05
1325.7370489889531,1325.7370489889531,0.9998244991407429,5.7952237034048954e-05
1325.7439933782603,1325.7439933782603,1.000052156669128,5.7963716297240625e-05
1325.7509377676138,1325.7509377676138,1.0001101413549374,5.796987683465711e-05
1325.757882157061,1325.757882157061,0.9999885211455473,5.797116501469727e-05
1325.764826546601,1325.764826546601,0.9999250709780133,5.797330980377061e-05
1325.771770936141,1325.771770936141,0.9999502175341825,5.797730986442011e-05
1325.7787153256807,1325.7787153256807,0.9999607165012939,5.7982978293629416e-05
1325.7856597152208,1325.7856597152208,1.0000591475048224,5.798925034165733e-05
1325.7926041049006,1325.7926041049006,1.0000688585852495,5.7993257041708826e-05
1325.79954849458,1325.79954849458,0.9998963769263224,5.799031707977929e-05
1325.8064928843999,1325.8064928843999,0.9999888306230998,5.799473148332217e-05
1325.8134372741722,1325.8134372741722,0.9999858409036906,5.799754282767996e-05
1325.8203816640385,1325.8203816640385,1.00012723689531,5.800240541849089e-05
1325.8273260539509,1325.8273260539509,0.9999741583041217,5.799878985594662e-05
1325.8342704439099,1325.8342704439099,0.999944254003044,5.799917449072734e-05
1325.8412148339157,1325.8412148339157,0.9998388897597532,5.799703404964386e-05
1325.8481592239677,1325.8481592239677,1.0001071553595355,5.800358606888183e-05
1325.8551036140664,1325.8551036140664,0.999973826388017,5.799904057794809e-05
1325.8620480041652,1325.8620480041652,1.0000953245352577,5.800145052575445e-05
1325.868992394404,1325.868992394404,1.0000192122085636,5.7998186280244853e-05
1325.8759367845955,1325.8759367845955,0.9999267042775468,5.799519216643995e-05
1325.8828811749274,1325.8828811749274,1.0000550145263851,5.79982758377844e-05
1325.8898255652125,1325.8898255652125,1.0000731698745124,5.799765960770332e-05
1325.8967699555906,1325.8967699555906,0.9999514933022912,5.799372324427053e-05
1325.9037143459686,1325.9037143459686,1.000028160648203,5.799560549486641e-05
1325.9106587363935,1325.9106587363935,0.9999172149695837,5.799122869787986e-05
1325.9176031269112,1325.9176031269112,0.9999137271360927,5.798924553172182e-05
1325.9245475174291,1325.9245475174291,1.0000549913040537,5.7996749424356047e-05
1325.9314919079472,1325.9314919079472,1.000045906994027,5.799615959883904e-05
1325.9384362986045,1325.9384362986045,0.9999647435828436,5.79944867189879e-05
1325.9453806893084,1325.9453806893084,1.000093110105645,5.799816623495714e-05
1325.9523250800132,1325.9523250800132,1.0000299237808499,5.799683523568609e-05
1325.9592694707171,1325.9592694707171,0.9999596562905244,5.7995677012675985e-05
1325.967324963934,1325.967324963934,0.9999149402173497,5.7994881224842914e-05
1325.9745471303595,1325.9745471303595,1.000103771663073,5.799998409218225e-05
1325.9814915212032,1325.9814915212032,0.999951987082499,5.799598109715051e-05
1325.9884359121402,1325.9884359121402,1.0000043144609776,5.7998614270547374e-05
1325.9953803030303,1325.9953803030303,0.9999417150859935,5.79965754979117e-05
1326.0023246939677,1326.0023246939677,1.0000258920516076,5.799887416068335e-05
1326.0092690849974,1326.0092690849974,1.0000926541725892,5.7999541830030826e-05
1326.0162134760278,1326.0162134760278,0.9999642528732989,5.79961782442094e-05
1326.023157867058,1326.023157867058,0.9998235639029656,5.79909429441951e-05
1326.0301022581345,1326.0301022581345,0.9999796460819514,5.799481009825824e-05
1326.0370466493043,1326.0370466493043,1.00001304202659,5.799385174821898e-05
1326.0439910404737,1326.0439910404737,1.0000063443800646,5.7991610873780984e-05
1326.0509354316905,1326.0509354316905,1.0001094105130244,5.799255926595843e-05
1326.0578798228598,1326.0578798228598,1.0000106302282332,5.798884655661235e-05
1326.0648242141233,1326.0648242141233,0.999973464918037,5.798685841952975e-05
1326.0717686054327,1326.0717686054327,1.000131885762901,5.799131903360125e-05
1326.0787129967885,1326.0787129967885,1.00000869136551,5.798709811854833e-05
1326.085657388145,1326.085657388145,0.9999484817391355,5.798364913902205e-05
1326.0926017795475,1326.0926017795475,0.9999225028469672,5.798358866698723e-05
1326.0995461709504,1326.0995461709504,1.0000269100054808,5.798771996599056e-05
1326.1064905623996,1326.1064905623996,0.999937573069265,5.7985450248745366e-05
1326.1134349538947,1326.1134349538947,0.9999668837015122,5.7987119131425725e-05
1326.1203793453908,1326.1203793453908,1.0001986490144759,5.799513936761112e-05
1326.1273237369794,1326.1273237369794,0.9999714329224341,5.7987539277795595e-05
1326.1342681285223,1326.1342681285223,1.00003475101056,5.7991276221034314e-05
1326.1412125201107,1326.1412125201107,0.9999762447048083,5.798942611108926e-05
1326.1481569117466,1326.1481569117466,1.0000151595576066,5.799236147602444e-05
1326.1551013033818,1326.1551013033818,0.9999100725683293,5.7988397219145245e-05
1326.1620456951102,1326.1620456951102,1.000050512298493,5.799361990034396e-05
1326.1689900867461,1326.1689900867461,0.9998379055469971,5.798813904793328e-05
1326.175934478521,1326.175934478521,0.9999618330581008,5.798924558484278e-05
1326.1828788702499,1326.1828788702499,1.000009009330563,5.799030577315602e-05
1326.189823262118,1326.189823262118,1.000073591229336,5.79898878968187e-05
1326.1967676539396,1326.1967676539396,1.0000544718396214,5.7987654828125696e-05
1326.2037120456218,1326.2037120456218,1.000027000434054,5.798515408146787e-05
1326.2106564374901,1326.2106564374901,0.9999877585646397,5.7982337367283024e-05
1326.2176008294514,1326.2176008294514,0.9999573402566495,5.797872835737785e-05
1326.2245452214595,1326.2245452214595,0.9999766319682131,5.7977317338949156e-05
1326.2314896133278,1326.2314896133278,0.9999531701725537,5.797372068901076e-05
1326.2384340052424,1326.2384340052424,1.0000556772602383,5.797572618579784e-05
1326.2453783972967,1326.2453783972967,1.0001017462930581,5.797554986054295e-05
1326.2523227892589,1326.2523227892589,0.9999505183513424,5.797010125679543e-05
1326.2592671812665,1326.2592671812665,0.9999370703758323,5.796858022517876e-05
1326.2662115733679,1326.2662115733679,1.0001014795052263,5.7971776446918456e-05
1326.2731559654226,1326.2731559654226,0.9999706903576719,5.796580459982287e-05
1326.2801003575235,1326.2801003575235,1.0001516226163238,5.7970810537877866e-05
1326.2870447496248,1326.2870447496248,0.9999788943070698,5.796619796050097e-05
1326.2939891417723,1326.2939891417723,1.0000261711413951,5.796739777516511e-05
1326.30093353392,1326.30093353392,0.9999633725424539,5.7966390605292496e-05
1326.3078779261139,1326.3078779261139,0.9999995227101433,5.796718019560013e-05
1326.3148223183084,1326.3148223183084,1.0000431965819965,5.7969125670364814e-05
1326.3217667105027,1326.3217667105027,0.9999905336903854,5.7968334026535e-05
1326.3287111027435,1326.3287111027435,1.0000097170526867,5.796936860307213e-05
1326.3356554949844,1326.3356554949844,0.9999028037436662,5.7966743899766196e-05
1326.3425998872717,1326.3425998872717,1.0000283483086796,5.796907199802925e-05
1326.3506553823513,1326.3506553823513,0.999996790218552,5.797081918243421e-05
1326.3592664288265,1326.3592664288265,0.9998987575605298,5.796857979164972e-05
1326.3662108211606,1326.3662108211606,1.0000394560393273,5.7974074283156995e-05
1326.373155213541,1326.373155213541,1.0000240184568874,5.7971452532724886e-05
1326.380099605875,1326.380099605875,1.00002333842155,5.797283144434466e-05
1326.3870439982554,1326.3870439982554,1.0000915883065646,5.797513106917476e-05
1326.3939883906826,1326.3939883906826,1.0000333019695276,5.79749081764711e-05
1326.40093278311,1326.40093278311,0.9999627537528933,5.797336517988573e-05
1326.4078771755833,1326.4078771755833,0.999988152701097,5.7974575085152063e-05
1326.4148215680111,1326.4148215680111,1.0000317986564538,5.7977262048277043e-05
1326.4217659604842,1326.4217659604842,0.999937786516077,5.797572492670536e-05
1326.4287103529114,1326.4287103529114,1.0000095707289207,5.797723745121456e-05
1326.435654745478,1326.435654745478,0.9999462750550027,5.7977941341537594e-05
1326.4425991379517,1326.4425991379517,0.9999372068160586,5.7977049507735386e-05
1326.4495435305184,1326.4495435305184,0.9999717798774592,5.797956765278057e-05
1326.4564879230388,1326.4564879230388,1.0000551287387935,5.798316522137738e-05
1326.4634323156056,1326.4634323156056,1.0000597500379576,5.7984330927806695e-05
1326.4703767081724,1326.4703767081724,1.0000727382672594,5.798281630237231e-05
1326.477321100739,1326.477321100739,0.9999035514718821,5.797953278143277e-05
1326.4842654933527,1326.4842654933527,1.0001544044801154,5.7987521014775694e-05
1326.4912098859656,1326.4912098859656,0.9999475723149815,5.798141917853817e-05
1326.4981542786259,1326.4981542786259,0.9999693562998188,5.798084735365121e-05
1326.5050986712388,1326.5050986712388,0.9999454788756446,5.7979323965815934e-05
1326.5120430638992,1326.5120430638992,0.9998547928623311,5.79781464565469e-05
1326.518987456559,1326.518987456559,1.0001249725737587,5.798444380656633e-05
1326.5259318491724,1326.5259318491724,0.9999077456500783,5.7978614309603125e-05
1326.532876241879,1326.532876241879,0.9999649538502684,5.797980435060115e-05
1326.5398206345385,1326.5398206345385,1.000168458898866,5.7985878994513916e-05
1326.546765027292,1326.546765027292,1.0000498862428644,5.798229462252495e-05
1326.5537094199983,1326.5537094199983,1.0000643700411724,5.798509258480092e-05
1326.560653812705,1326.560653812705,1.0001062243554522,5.798722665293844e-05
1326.5675982054577,1326.5675982054577,1.000021344641436,5.798440754476324e-05
1326.5745425982109,1326.5745425982109,0.9999860878650141,5.7985759932682714e-05
1326.581486990964,1326.581486990964,1.000041903759569,5.799006845819333e-05
1326.5884313837169,1326.5884313837169,0.9998515142453852,5.798628070718816e-05
1326.5953757764703,1326.5953757764703,0.9999985465377732,5.799214258291268e-05
1326.6023201692697,1326.6023201692697,0.9999160254853893,5.799247253166442e-05
1326.6092645620693,1326.6092645620693,1.0000413332956597,5.7998618257327735e-05
1326.6162089548693,1326.6162089548693,0.9999739608355993,5.8001543596734774e-05
1326.6231533476682,1326.6231533476682,0.9999851818913003,5.800469170611223e-05
1326.6300977405149,1326.6300977405149,1.00010942434232,5.8008791160491806e-05
1326.6370421333606,1326.6370421333606,1.0000069090867314,5.800885961791721e-05
1326.6439865261607,1326.6439865261607,1.0000740213323578,5.80115116141389e-05
1326.6509309189603,1326.6509309189603,0.9999854673145998,5.801073520432016e-05
1326.657875311853,1326.657875311853,1.0000887670116136,5.8014314749977963e-05
1326.6648197046993,1326.6648197046993,0.9998492924748931,5.8007871836709504e-05
1326.6717640975917,1326.6717640975917,0.9998610869114752,5.800824030842126e-05
1326.6787084903917,1326.6787084903917,1.0000389737820672,5.801220911850444e-05
1326.6856528833307,1326.6856528833307,0.9999063345546736,5.800476449775251e-05
1326.6939861547835,1326.6939861547835,1.0001627418648773,5.801149402291512e-05
1326.7009305476297,1326.7009305476297,1.000040347741788,5.800584883319294e-05
1326.707874940569,1326.707874940569,0.9999463150272506,5.799839633394043e-05
1326.7156526606257,1326.7156526606257,0.999952153330384,5.799706469692156e-05
1326.723152604915,1326.723152604915,1.0000114284256625,5.7994465867778254e-05
1326.7300969979,1326.7300969979,1.0000132158195933,5.799153511407041e-05
1326.7370413907,1326.7370413907,1.0000329290647063,5.798817048452327e-05
1326.7439857837328,1326.7439857837328,1.000013498341667,5.798202234072766e-05
1326.7509301765785,1326.7509301765785,0.9999971470780837,5.7979884550002325e-05
1326.7578745695644,1326.7578745695644,0.9999776713373925,5.797500026060639e-05
1326.7648189624572,1326.7648189624572,0.9999464710991892,5.79691834163676e-05
1326.7717633553966,1326.7717633553966,1.0001210221656545,5.797024963122915e-05
1326.7787077484288,1326.7787077484288,1.0000281765549417,5.796292128743412e-05
1326.7856521412286,1326.7856521412286,0.9999021045546292,5.7956586411679136e-05
1326.7925965342613,1326.7925965342613,1.000109567977298,5.795862631169698e-05
1326.7995409272469,1326.7995409272469,1.0000086602522185,5.795288531076049e-05
1326.8064853200935,1326.8064853200935,1.0000790498911414,5.7949432823238774e-05
1326.8134297131255,1326.8134297131255,0.9998608744109154,5.793840077442166e-05
1326.8203741061116,1326.8203741061116,0.9998799670264941,5.7934711365651055e-05
1326.8273184989575,1326.8273184989575,1.000192084251149,5.7938336961401286e-05
1326.8342628919902,1326.8342628919902,0.9999680000314791,5.79267814888544e-05
1326.8412072850226,1326.8412072850226,0.9998674660147389,5.792158261034763e-05
1326.8481516779152,1326.8481516779152,1.000027343288758,5.7920277269184474e-05
1326.8550960708546,1326.8550960708546,1.0000663538222283,5.791795197081811e-05
1326.862040463887,1326.862040463887,1.000002235886193,5.7912642334099976e-05
1326.8689848569197,1326.8689848569197,1.0001664904594965,5.7913785442686476e-05
1326.875929249766,1326.875929249766,0.9999662956418138,5.790461100838244e-05
1326.8828736427517,1326.8828736427517,0.999919044921603,5.7899484955457894e-05
1326.8898180357842,1326.8898180357842,1.0000229831401837,5.7898594325082875e-05
1326.8967624288164,1326.8967624288164,0.9999817228596051,5.789730751285114e-05
1326.9037068217099,1326.9037068217099,0.9998815578240695,5.789095643801301e-05
1326.9106512146486,1326.9106512146486,0.9998628205620192,5.789058419369341e-05
1326.917595607681,1326.917595607681,1.0000410207201877,5.7894355359187326e-05
1326.9245400007137,1326.9245400007137,1.0001030524514747,5.7896555193137025e-05
1326.9314843936531,1326.9314843936531,1.0000947838417134,5.789541099829899e-05
1326.9384287865457,1326.9384287865457,1.0000243148635204,5.7894866728961326e-05
1326.945373179578,1326.945373179578,0.9998478348760367,5.789070392362793e-05
1326.9523175726108,1326.9523175726108,1.0001297567857725,5.790110572083667e-05
1326.9592619655964,1326.9592619655964,0.9999904691659885,5.7898717570465016e-05
1326.966206358443,1326.966206358443,1.0000273601145047,5.7900558041386664e-05
1326.9731507514753,1326.9731507514753,1.000004255425128,5.790214040645392e-05
1326.9800951445075,1326.9800951445075,0.9998585699072869,5.7899593553709745e-05
1326.9870395374937,1326.9870395374937,0.9999494786236088,5.790339397379103e-05
1326.99398393034,1326.99398393034,1.0000065385686447,5.7907384938298284e-05
1327.0009283233721,1327.0009283233721,1.000092132176253,5.790813315388957e-05
1327.0078727164048,1327.0078727164048,0.9999720157339891,5.7908292229790525e-05
1327.0148171092508,1327.0148171092508,0.999905698664425,5.7908428996604674e-05
1327.0217615022368,1327.0217615022368,1.000101412653059,5.7913254891910624e-05
1327.0287058952692,1327.0287058952692,0.9999686604320528,5.7911743250671284e-05
1327.035650288162,1327.035650288162,1.000078491251969,5.7916202942457163e-05
1327.042594681101,1327.042594681101,0.9998494139656907,5.790775954218967e-05
1327.049539074134,1327.049539074134,1.0000977990435915,5.791623421023909e-05
1327.0564834670263,1327.0564834670263,0.9999286884984949,5.7912323913448225e-05
1327.0645389628512,1327.0645389628512,0.9999874212111426,5.791575193856418e-05
1327.071761131558,1327.071761131558,1.000001569608624,5.791603195242221e-05
