time,time,flux,flux_err
1410.907685018815,1410.907685018815,1.0000376499620838,4.093868068830084e-05
1410.9160185161934,1410.9160185161934,0.9999670488326564,4.0936544929878865e-05
1410.924352013669,1410.924352013669,0.9998887289643005,4.0935987094206855e-05
1410.9319910531317,1410.9319910531317,1.000101160183085,3.736997100041908e-05
1410.9389356344338,1410.9389356344338,0.9999966144836205,3.73695545287917e-05
1410.945880215851,1410.945880215851,1.0000470753668398,3.7366029226720065e-05
1410.9528247972917,1410.9528247972917,1.0000399943924405,3.736858871560186e-05
1410.960324945328,1410.960324945328,1.0002088291406177,3.736921216148309e-05
1410.9714362758614,1410.9714362758614,1.000647693304937,3.7352433110945956e-05
1410.9847698726132,1410.9847698726132,0.999954604221632,3.7350105857144854e-05
1410.991714454334,1410.991714454334,0.999967568647713,3.734714218963999e-05
1411.0036591350163,1411.0036591350163,1.0000061243976308,3.734103246609901e-05
1411.0111592833787,1411.0111592833787,0.9998150175826925,3.734587937255874e-05
1411.0181038652847,1411.0181038652847,0.9999630657266272,3.7347925857583106e-05
1411.025048447145,1411.025048447145,1.0000218869466926,3.734691198419666e-05
1411.0319930291212,1411.0319930291212,1.0001828084605344,3.7344754134861295e-05
1411.0389376111207,1411.0389376111207,0.9998304885766418,3.7344420958092915e-05
1411.0461599763953,1411.0461599763953,1.0001040795084903,3.7348773970474836e-05
1411.0542156916083,1411.0542156916083,0.999959659846908,3.734111189148417e-05
1411.0611602737017,1411.0611602737017,1.0000566381394436,3.7347738069916273e-05
1411.0681048558167,1411.0681048558167,0.999977959461884,3.7343641851210444e-05
1411.0750494379797,1411.0750494379797,1.000138700481101,3.734813833487565e-05
1411.081994020166,1411.081994020166,1.0000881379426527,3.734368537948906e-05
1411.0889386023978,1411.0889386023978,1.0001280271393516,3.734366750937226e-05
1411.0958831846308,1411.0958831846308,0.9997975579765711,3.734580475586494e-05
1411.1028277669097,1411.1028277669097,0.9998250784076361,3.7346128485479375e-05
1411.1097723491885,1411.1097723491885,1.0000036457175856,3.734351714270347e-05
1411.116716931538,1411.116716931538,0.999981556230906,3.7346987539471304e-05
1411.1236615138625,1411.1236615138625,0.9999617585067622,3.734424354255945e-05
1411.1306060962122,1411.1306060962122,0.9999020504910348,3.7340340077034084e-05
1411.1375506786303,1411.1375506786303,1.000007566053832,3.734185479797987e-05
1411.144495261049,1411.144495261049,1.0003581680338443,3.734310037019001e-05
1411.1514398433985,1411.1514398433985,1.0000428228275016,3.734510946335846e-05
1411.1583844258398,1411.1583844258398,1.0001244297338512,3.733969431188399e-05
1411.1653290083755,1411.1653290083755,0.9999522351073287,3.7332384808243065e-05
1411.1722735908406,1411.1722735908406,1.000121567183251,3.7334574781552525e-05
1411.179218173306,1411.179218173306,1.0000914294263423,3.7338656147840326e-05
1411.1861627558412,1411.1861627558412,0.9998542315589567,3.7336890251013055e-05
1411.1931073383525,1411.1931073383525,0.9998884649386458,3.733682948723631e-05
1411.2000519208882,1411.2000519208882,1.0001222306446362,3.7335800924162855e-05
1411.206996503423,1411.206996503423,0.9999554039413336,3.733892794255199e-05
1411.2139410859816,1411.2139410859816,1.0000323510814406,3.733496112214318e-05
1411.2208856685634,1411.2208856685634,0.9999189086834273,3.733117326260391e-05
1411.2278302511213,1411.2278302511213,1.0001338847112269,3.733914714753931e-05
1411.2347748337038,1411.2347748337038,1.0001561122480964,3.733695072027567e-05
1411.2417194163313,1411.2417194163313,0.9999543558766788,3.7339137771037325e-05
1411.2486639989133,1411.2486639989133,0.9998860567102026,3.7341460774044835e-05
1411.2556085815181,1411.2556085815181,1.000095598638989,3.734182614134879e-05
1411.2625531641465,1411.2625531641465,0.9999932109094175,3.733900679677213e-05
1411.269497746752,1411.269497746752,0.9997885942172419,3.733552899139842e-05
1411.2764423293797,1411.2764423293797,1.0001838185109262,3.733795379306629e-05
1411.2833869120082,1411.2833869120082,0.9998965347103009,3.7339589205563506e-05
1411.2903314946361,1411.2903314946361,1.000043906462381,3.7338139154411654e-05
1411.2972760772875,1411.2972760772875,1.0001642650076892,3.7342181860628644e-05
1411.3042206599162,1411.3042206599162,1.0000942706176599,3.733862604659862e-05
1411.3111652425441,1411.3111652425441,0.9998928885926262,3.734312475226565e-05
1411.3181098251962,1411.3181098251962,0.9999345813303103,3.734409687410462e-05
1411.3250544078244,1411.3250544078244,0.999920877903179,3.734645131194723e-05
1411.3319989904287,1411.3319989904287,1.0001454173325595,3.734406105444752e-05
1411.338943573058,1411.338943573058,1.0000400974123884,3.734242765190261e-05
1411.3458881556853,1411.3458881556853,1.000042076798935,3.7347582570861106e-05
1411.3528327383374,1411.3528327383374,1.0001287999399815,3.7346456245767e-05
1411.3597773209422,1411.3597773209422,0.9998925248743591,3.734349708535999e-05
1411.3667219035701,1411.3667219035701,1.0000160825799735,3.734198546030401e-05
1411.3736664861758,1411.3736664861758,1.000061850382151,3.7343935747369955e-05
1411.3806110688035,1411.3806110688035,0.9998427428322245,3.734445278535301e-05
1411.3875556513854,1411.3875556513854,0.9998922733867255,3.733863718005097e-05
1411.3945002339674,1411.3945002339674,0.9999230803013418,3.7339012462132633e-05
1411.4014448165722,1411.4014448165722,1.0002135108200412,3.7341277527253234e-05
1411.4083893991542,1411.4083893991542,1.0001412786879844,3.734140633576329e-05
1411.415333981712,1411.415333981712,1.0001171692643336,3.733787896633669e-05
1411.422278564271,1411.422278564271,1.0001578175725303,3.733817856891345e-05
1411.4292231468291,1411.4292231468291,0.9999722264068776,3.7334027612856987e-05
1411.4361677293641,1411.4361677293641,1.0001859624083358,3.7338116373899484e-05
1411.4431123118995,1411.4431123118995,1.0001504231933371,3.7333943483055866e-05
1411.4500568944572,1411.4500568944572,0.9999406635866558,3.733482735553927e-05
1411.4570014769236,1411.4570014769236,0.9999228460264653,3.7337671858984264e-05
1411.4639460594578,1411.4639460594578,1.0000354846124233,3.7339519784023e-05
1411.4708906419003,1411.4708906419003,1.0000251814038885,3.7342717736715977e-05
1411.4778352243889,1411.4778352243889,1.0002453673972338,3.734318610790046e-05
1411.4847798069004,1411.4847798069004,0.9998830263362976,3.734378501259926e-05
1411.491724389343,1411.491724389343,0.9999216914430813,3.734577337825345e-05
1411.4986689717846,1411.4986689717846,0.9998587720051525,3.734632321336674e-05
1411.5056135541104,1411.5056135541104,1.000098297483463,3.73493854686959e-05
1411.5125581365521,1411.5125581365521,1.0002451955002154,3.7342063533314605e-05
1411.5195027189473,1411.5195027189473,1.000006622786674,3.734648109503344e-05
1411.52644730132,1411.52644730132,0.9997983369075513,3.7346737887719166e-05
1411.5333918836452,1411.5333918836452,0.9999873016732819,3.734578160460274e-05
1411.5403364659946,1411.5403364659946,1.0000534591647978,3.734381229726779e-05
1411.5472810483202,1411.5472810483202,1.0000922438349256,3.734496045864939e-05
1411.5542256305987,1411.5542256305987,1.0000703023006186,3.7345962546903364e-05
1411.5611702129017,1411.5611702129017,0.9999915668202372,3.7346825238686e-05
1411.5681147951566,1411.5681147951566,1.0000648961357013,3.73480546334595e-05
1411.5750593774133,1411.5750593774133,1.0001446064440647,3.734412297400195e-05
1411.5820039596451,1411.5820039596451,0.9999950445555182,3.7347867207168306e-05
1411.5889485418543,1411.5889485418543,1.00005763469067,3.735110977139786e-05
1411.5958931240173,1411.5958931240173,0.9998342904764819,3.735166302899585e-05
1411.6028377061793,1411.6028377061793,0.9998686116186791,3.735244786470297e-05
1411.6097822883194,1411.6097822883194,1.0001316306920784,3.73560407379904e-05
1411.6167268704817,1411.6167268704817,1.0001084252889616,3.735727891142284e-05
1411.6236714525744,1411.6236714525744,0.9999712375526203,3.73556081501299e-05
1411.630616034644,1411.630616034644,0.9998882617739255,3.73549470490448e-05
1411.637560616713,1411.637560616713,0.9999535074702506,3.7357815814060595e-05
1411.6445051987364,1411.6445051987364,1.000188706949976,3.7355239385753174e-05
1411.6514497807589,1411.6514497807589,0.9998897660503291,3.735501275098666e-05
1411.6583943627588,1411.6583943627588,0.9998553824843659,3.735252913662246e-05
1411.6653389447117,1411.6653389447117,0.9999923749507149,3.735535628479085e-05
1411.6722835266648,1411.6722835266648,0.9999723112033662,3.735289048851005e-05
1411.6792281085716,1411.6792281085716,1.0001299096028042,3.735413648769125e-05
1411.6861726905008,1411.6861726905008,1.000144342047348,3.7351882062481034e-05
1411.6931172723616,1411.6931172723616,0.9999283308670079,3.7350689956858234e-05
1411.7000618542208,1411.7000618542208,0.999789035683927,3.735068477336117e-05
1411.7070064359646,1411.7070064359646,1.0001768829541096,3.73500523432461e-05
1411.7139510178015,1411.7139510178015,1.0000698334441898,3.7353674108436396e-05
1411.7208955995677,1411.7208955995677,0.999914967049641,3.734928287034225e-05
1411.7278401812887,1411.7278401812887,0.9999303343711153,3.735264426787773e-05
1411.734784763008,1411.734784763008,1.000040170455593,3.735303955499494e-05
1411.7417293447056,1411.7417293447056,1.0001447705529312,3.7353609515810856e-05
1411.7486739263557,1411.7486739263557,1.0001411503968138,3.735700664439329e-05
1411.755618507983,1411.755618507983,0.9999635436896395,3.7355374185180234e-05
1411.762563089587,1411.762563089587,0.999806567316017,3.7356345890022495e-05
1411.7695076711673,1411.7695076711673,0.9999415977474415,3.735717894082578e-05
1411.7764522527248,1411.7764522527248,1.0000374105047856,3.735641641185678e-05
1411.7833968342354,1411.7833968342354,0.999845521804508,3.735830925323312e-05
1411.7903414157229,1411.7903414157229,1.0000498729096532,3.7358609471600375e-05
1411.797285997187,1411.797285997187,1.0001579349909684,3.7362789377317214e-05
1411.8042305786507,1411.8042305786507,0.9999938763844012,3.735836849452129e-05
1411.8111751600454,1411.8111751600454,1.0000664577855254,3.736082134545738e-05
1411.8181197414162,1411.8181197414162,0.9999682145757977,3.7358690209520956e-05
1411.825064322764,1411.825064322764,1.0000704332004924,3.73600547977926e-05
1411.8320089040885,1411.8320089040885,1.0000009533348384,3.735870655138964e-05
1411.8389534853663,1411.8389534853663,1.0001444506411576,3.735824113203791e-05
1411.8458980666446,1411.8458980666446,1.0000603064419522,3.7358669068456905e-05
1411.8528426478053,1411.8528426478053,0.9999969979022371,3.735893991538782e-05
1411.8597872290372,1411.8597872290372,0.999960899561134,3.7359989066876136e-05
1411.8667318101982,1411.8667318101982,0.9999930904497649,3.736185045599855e-05
1411.8736763913364,1411.8736763913364,1.000074052525553,3.7357446876373865e-05
1411.8806209724048,1411.8806209724048,0.9999775798776195,3.735684273318331e-05
1411.887565553473,1411.887565553473,0.9998475607656785,3.73562772118564e-05
1411.8945101345187,1411.8945101345187,0.999948273418185,3.7359683067675636e-05
1411.9014547154932,1411.9014547154932,0.9998813925911607,3.7358812007345414e-05
1411.9083992964925,1411.9083992964925,1.000123635143454,3.736235684766748e-05
1411.9153438774206,1411.9153438774206,1.000393114303051,3.736015544326886e-05
1411.922288458326,1411.922288458326,1.0001107229484218,3.736289740701216e-05
1411.9292330392082,1411.9292330392082,0.9999229437752561,3.73614430908937e-05
1411.9361776200433,1411.9361776200433,1.0000158210660386,3.7361464156057336e-05
1411.9431222008325,1411.9431222008325,0.9999944712843465,3.735829473479335e-05
1411.9500667816212,1411.9500667816212,0.9999302569772841,3.735908505478699e-05
1411.9570113623172,1411.9570113623172,0.9998524097778088,3.7364181927020896e-05
1411.963955943013,1411.963955943013,0.9999295388978462,3.7361927481573405e-05
1411.9709005237087,1411.9709005237087,1.0001067059008624,3.736347947407401e-05
1411.9778451043578,1411.9778451043578,1.0000238073944305,3.736379321341017e-05
1411.9847896849606,1411.9847896849606,1.0001296401038904,3.73658523817362e-05
1411.991734265517,1411.991734265517,1.0001181541516266,3.736577918285312e-05
1411.9986788460724,1411.9986788460724,1.000074412380058,3.736625558566818e-05
1412.0056234265592,1412.0056234265592,0.9999403984023096,3.7365472962509515e-05
1412.012568007022,1412.012568007022,1.0000192797945708,3.736486898902756e-05
1412.0195125874382,1412.0195125874382,0.9998458312599794,3.736749756826542e-05
1412.0264571678551,1412.0264571678551,1.0000415631824524,3.736605457513443e-05
1412.0334017481775,1412.0334017481775,0.999995018578074,3.736485278691765e-05
1412.040346328525,1412.040346328525,1.000048810479893,3.7363559500286184e-05
1412.047290908778,1412.047290908778,1.0002306344640277,3.736346423854805e-05
1412.0542354890545,1412.0542354890545,1.0000545791227107,3.736494671421076e-05
1412.0611800692618,1412.0611800692618,0.9999892274402209,3.736700874174285e-05
1412.068124649445,1412.068124649445,0.9998713079195289,3.736674129506459e-05
1412.0750692296058,1412.0750692296058,0.9998199069050427,3.7365112040687016e-05
1412.082013809719,1412.082013809719,1.0001052064607507,3.7367865684597794e-05
1412.088958389717,1412.088958389717,1.0002535775980317,3.736794267519618e-05
1412.0959029697835,1412.0959029697835,0.999982576675948,3.736806926180533e-05
1412.102847549781,1412.102847549781,0.9999786673145667,3.736905479446344e-05
1412.1097921297314,1412.1097921297314,1.0000345379890525,3.736913065676278e-05
1412.1167367096357,1412.1167367096357,0.9999049433187764,3.7369115794881585e-05
1412.123681289517,1412.123681289517,0.9999336299685642,3.736469060885564e-05
1412.1306258693742,1412.1306258693742,0.999960992746318,3.736925567321075e-05
1412.137570449186,1412.137570449186,1.00003182155162,3.73684704313454e-05
1412.1445150289499,1412.1445150289499,1.000327940837636,3.736733580140963e-05
1412.1514596086913,1412.1514596086913,1.000157063128262,3.7368729468319075e-05
1412.1584041883625,1412.1584041883625,0.9999079145093646,3.7372334194677974e-05
1412.1653487680333,1412.1653487680333,0.9999973528323233,3.737210361530937e-05
1412.1722933476353,1412.1722933476353,0.9999204017763098,3.736920117939397e-05
1412.1792379272365,1412.1792379272365,1.0000037893936042,3.737261936145553e-05
1412.1861825067685,1412.1861825067685,0.9999341550291294,3.7375787028528754e-05
1412.1931270863001,1412.1931270863001,1.0001292338404315,3.737597602449495e-05
1412.2000716657153,1412.2000716657153,1.000083148570598,3.73800859108752e-05
1412.2070162451541,1412.2070162451541,0.9998951559239531,3.7377035590919905e-05
1412.2139608245454,1412.2139608245454,0.9998591815461151,3.737465873265687e-05
1412.2209054038917,1412.2209054038917,1.0000919767632508,3.7375264378846744e-05
1412.227849983213,1412.227849983213,0.9999057967523463,3.7373376061269144e-05
1412.2347945624658,1412.2347945624658,0.9999025335551798,3.7372020201644584e-05
1412.2417391417177,1412.2417391417177,0.9998798110327755,3.7369689292331974e-05
1412.248683720877,1412.248683720877,0.9997320297647457,3.736549527533704e-05
1412.2572949990304,1412.2572949990304,0.9999857345926249,3.735636841614885e-05
1412.2664618434305,1412.2664618434305,1.0005496999098773,3.7356152182917214e-05
1412.2767398204153,1412.2767398204153,1.0002264576040818,3.7356609511418455e-05
1412.2870177973075,1412.2870177973075,1.0002507682351387,3.735705900155963e-05
1412.2945179425726,1412.2945179425726,1.0001283290270597,3.735774776119188e-05
1412.301462521453,1412.301462521453,0.9997242449364807,3.736134797236567e-05
1412.3084071003086,1412.3084071003086,0.9999332017846487,3.736414153502642e-05
1412.3153516791192,1412.3153516791192,0.9999002671780607,3.7365897574096366e-05
1412.3222962578586,1412.3222962578586,0.9999223840476059,3.73660396355477e-05
1412.3292408366221,1412.3292408366221,0.9999206784226535,3.736807319156721e-05
1412.3361854153156,1412.3361854153156,0.9998255706160071,3.73709897471067e-05
1412.3431299939625,1412.3431299939625,1.0000347104685838,3.737367621688191e-05
1412.3500745725632,1412.3500745725632,1.0003309235556028,3.736585897495001e-05
1412.3570191511164,1412.3570191511164,1.000456816546284,3.73680706933206e-05
1412.3639637296476,1412.3639637296476,0.999889131083035,3.736611335758419e-05
1412.370908308131,1412.370908308131,0.9999641920669193,3.737167631727346e-05
1412.3778528865919,1412.3778528865919,0.9998919780188388,3.737294523422353e-05
1412.3847974649593,1412.3847974649593,0.9998308724447235,3.7371707107661756e-05
1412.3917420433268,1412.3917420433268,0.9999304449830284,3.7373277868480174e-05
1412.3986866216942,1412.3986866216942,0.9999857791588411,3.7374256709665025e-05
1412.4056311999452,1412.4056311999452,1.00024508039275,3.737529489985981e-05
1412.4125757781735,1412.4125757781735,1.0001782878320207,3.7368510923793696e-05
1412.4195203564009,1412.4195203564009,1.0002075270343458,3.737359157593418e-05
1412.4264649345591,1412.4264649345591,0.9997879049986114,3.737295648149342e-05
1412.4334095126703,1412.4334095126703,0.999808771912955,3.7371846997131894e-05
1412.4403540907585,1412.4403540907585,0.9999725843877366,3.737047072039252e-05
1412.4472986687767,1412.4472986687767,0.9999646242896875,3.737066251129154e-05
1412.454243246771,1412.454243246771,0.9999692249363946,3.736676295877141e-05
1412.4611878247201,1412.4611878247201,1.0000028618952448,3.736328694663059e-05
1412.4681324026217,1412.4681324026217,1.00032809105991,3.7364733800269914e-05
1412.4750769804773,1412.4750769804773,1.0001152966067473,3.7360433550919505e-05
1412.4820215582627,1412.4820215582627,1.0000677621266527,3.736698244660959e-05
1412.488966136048,1412.488966136048,0.9997895972798482,3.737058217136266e-05
1412.4959107138338,1412.4959107138338,0.9998815657126203,3.7370185910734476e-05
1412.5028552915257,1412.5028552915257,1.0000777897134068,3.737127990294e-05
1412.509799869195,1412.509799869195,1.0001089343788974,3.737500156731994e-05
1412.5167444467938,1412.5167444467938,0.9999419549535313,3.737674781599641e-05
1412.52368902437,1412.52368902437,0.9999228679245344,3.737761685913026e-05
1412.5306336019223,1412.5306336019223,1.0000192439703093,3.7377676568404076e-05
1412.5375781794053,1412.5375781794053,1.0000013709544093,3.7378901926337605e-05
1412.5445227568412,1412.5445227568412,0.9999507148207943,3.737645775474425e-05
1412.5514673342545,1412.5514673342545,0.9999628876032709,3.737671046305602e-05
1412.5584119116209,1412.5584119116209,0.9999736885717528,3.737711101810101e-05
1412.5653564889167,1412.5653564889167,0.999962268321579,3.737775587511282e-05
1412.572301066214,1412.572301066214,1.0000804691388274,3.7377887189119084e-05
1412.5792456434165,1412.5792456434165,1.0000821492511731,3.737782103952316e-05
1412.5861902206204,1412.5861902206204,0.9999134916723709,3.737361237436778e-05
1412.593134797777,1412.593134797777,0.999948991964714,3.7374676820575874e-05
1412.600079374864,1412.600079374864,1.0000691270208801,3.737254819288392e-05
1412.6070239519279,1412.6070239519279,0.9999454519855089,3.737310891503149e-05
1412.613968528968,1412.613968528968,1.0000680440987115,3.737485912282095e-05
1412.6209131059388,1412.6209131059388,1.0001863946756184,3.737460018990979e-05
1412.6278576828856,1412.6278576828856,1.000086510311406,3.736998347227589e-05
1412.6348022597635,1412.6348022597635,0.999914336508201,3.737455502100909e-05
1412.641746836617,1412.641746836617,0.9999503730273401,3.7373818387323203e-05
1412.648691413402,1412.648691413402,0.999781287004517,3.7373433364992664e-05
1412.6556359901626,1412.6556359901626,1.0000175825309063,3.737615698640924e-05
1412.6625805669005,1412.6625805669005,0.999868518403586,3.737527789490174e-05
1412.6695251435683,1412.6695251435683,0.9999472815679489,3.737870630452499e-05
1412.6764697201893,1412.6764697201893,1.0001646316647597,3.737534997230229e-05
1412.6834142968112,1412.6834142968112,1.000426115368151,3.73761217146596e-05
1412.6903588733153,1412.6903588733153,0.9999404371957686,3.7378610033627536e-05
1412.6973034498442,1412.6973034498442,0.9999169517432497,3.737693710186125e-05
