time,time,flux,flux_err
1325.302001250837,1325.302001250837,0.9999335716611099,0.0006463353410726032
1325.3103345937222,1325.3103345937222,0.999562254983766,0.0006467231630178276
1325.3186679367238,1325.3186679367238,1.0004088812163472,0.0006471477808885386
1325.326306834485,1325.326306834485,0.9999158948960856,0.0005909947590499808
1325.3332512870288,1325.3332512870288,1.000721678383885,0.0005913620081840542
1325.3401957395727,1325.3401957395727,1.0004819215082943,0.000591640326838262
1325.3471401921634,1325.3471401921634,0.9998839427255426,0.0005917250056618897
1325.354084644847,1325.354084644847,0.9996414108288679,0.000591947721682516
1325.361029097484,1325.361029097484,0.9993483471514832,0.0005921104448303286
1325.367973550168,1325.367973550168,0.9999681533123767,0.0005923885478854765
1325.3749180029442,1325.3749180029442,0.9998761097496507,0.0005925326425618591
1325.3818624557211,1325.3818624557211,0.9998177546330235,0.000592649058332516
1325.3888069085447,1325.3888069085447,1.0000896954402136,0.000592925910018544
1325.395751361368,1325.395751361368,0.9993959771487729,0.0005928722531675631
1325.4026958142379,1325.4026958142379,1.0011749874725795,0.000593281869002568
1325.409640267108,1325.409640267108,1.0001403450795734,0.0005932674601822899
1325.416584720117,1325.416584720117,1.0009121328488086,0.0005933499791256086
1325.4235291730806,1325.4235291730806,0.9994304485891359,0.000593248323806078
1325.4304736260901,1325.4304736260901,0.9998654604969932,0.0005934691823269718
1325.4374180790996,1325.4374180790996,0.9997781998214504,0.0005935966245998274
1325.4443625322024,1325.4443625322024,0.9994405932141867,0.0005936820479206095
1325.451306985305,1325.451306985305,1.000590238607018,0.00059386381769619
1325.4582514384545,1325.4582514384545,1.0000983542388864,0.0005939779554442687
1325.4651958916502,1325.4651958916502,0.9993360674715557,0.0005938831484841895
1325.4721403448461,1325.4721403448461,1.0001808313653748,0.0005941651972043557
1325.4790847981353,1325.4790847981353,1.000708616737685,0.0005942747819060197
1325.4860292513777,1325.4860292513777,1.0002787221100582,0.0005942480600483681
1325.4929737047132,1325.4929737047132,0.9999824187697633,0.0005943909680681738
1325.499918158049,1325.499918158049,0.9992653834539524,0.0005943494197513585
1325.5068626114307,1325.5068626114307,1.0002792187232215,0.0005946238124374594
1325.5138070648597,1325.5138070648597,1.000530463961487,0.0005946690654841999
1325.5207515183351,1325.5207515183351,1.0000288029367368,0.000594871301186053
1325.5276959717635,1325.5276959717635,1.000074977538198,0.0005949765432706523
1325.5346404252386,1325.5346404252386,0.9994521666685937,0.0005951539176569132
1325.541584878807,1325.541584878807,1.0005517574597078,0.0005954576801323395
1325.548529332376,1325.548529332376,1.0001316890953078,0.000595591970167031
1325.5554737859438,1325.5554737859438,1.0001993166810403,0.0005958730860962794
1325.5624182397457,1325.5624182397457,0.9995752774010456,0.000595985444748878
1325.569362693314,1325.569362693314,0.9997122525197015,0.0005961972703601145
1325.5763071470683,1325.5763071470683,0.9997458874273244,0.0005964599099329434
1325.5832516007767,1325.5832516007767,1.000352630680893,0.0005967186226101029
1325.5901960545311,1325.5901960545311,1.0002452900486767,0.0005967731571215202
1325.5971405083324,1325.5971405083324,0.9999209620667783,0.0005967323581787668
1325.6040849621802,1325.6040849621802,1.0000635435182752,0.0005968305847593996
1325.6110294160278,1325.6110294160278,0.9994757165929119,0.000596781986416454
1325.6179738699225,1325.6179738699225,0.9998376133199203,0.0005967984602344536
1325.6249183238165,1325.6249183238165,0.9999491123148386,0.0005969012474069143
1325.6318627777578,1325.6318627777578,1.000474696814134,0.0005970171214105163
1325.6388072317454,1325.6388072317454,0.9998067352015333,0.000596875629341965
1325.6457516857329,1325.6457516857329,1.0001409019086052,0.0005969492098272318
1325.6526961398135,1325.6526961398135,0.9998670570880028,0.0005969666657413054
1325.6596405938474,1325.6596405938474,1.0001856041274992,0.0005969608823696754
1325.6665850479744,1325.6665850479744,1.0003826546345949,0.0005969017058609959
1325.6735295020085,1325.6735295020085,0.999662988860101,0.0005967110469105386
1325.6804739561826,1325.6804739561826,1.0003301077039526,0.0005968671874395167
1325.6874184103563,1325.6874184103563,0.9992817334778525,0.0005967887881307552
1325.6943628645765,1325.6943628645765,1.000422311598348,0.0005970997365595328
1325.701307318797,1325.701307318797,0.9999954513574654,0.0005970302889208513
1325.708251773064,1325.708251773064,0.9995278669360305,0.0005971272580428325
1325.7151962273308,1325.7151962273308,1.0007911127645648,0.0005975126343400435
1325.722140681644,1325.722140681644,1.0001245606689708,0.0005973888658894676
1325.7290851359578,1325.7290851359578,0.9999451678053157,0.0005975534931049576
1325.736029590271,1325.736029590271,0.9998929543151563,0.0005975928154412807
1325.7429740447242,1325.7429740447242,0.9997701957009697,0.000597648742797651
1325.7499184990843,1325.7499184990843,1.00006787067185,0.0005991185344462748
1325.7568629535376,1325.7568629535376,1.0000854341852674,0.0005979738906061605
1325.7638074079907,1325.7638074079907,0.9997368724388227,0.0005979944031188722
1325.7707518624436,1325.7707518624436,1.0001373036163343,0.0005982725625099685
1325.7776963169433,1325.7776963169433,1.0004677353598104,0.0005984375774937101
1325.7846407714896,1325.7846407714896,1.001440357911393,0.000598882638861456
1325.7915852260362,1325.7915852260362,0.9988979041019659,0.0005984947003667823
1325.798529680629,1325.798529680629,0.9998813104446558,0.0005988287073654847
1325.8054741351752,1325.8054741351752,1.0004136041922786,0.0005988500196006375
1325.8124185898616,1325.8124185898616,0.9997362897882537,0.000599022002888903
1325.8193630444073,1325.8193630444073,0.9996479274750932,0.0005990800184145715
1325.8263074990937,1325.8263074990937,1.000457197123696,0.0005993779376832029
1325.8332519538262,1325.8332519538262,0.9997960705810064,0.0005993756711849768
1325.8401964085588,1325.8401964085588,0.9996677040104945,0.0005993505980538569
1325.8471408632913,1325.8471408632913,1.0003558285856797,0.0005995149652153373
1325.8540853180234,1325.8540853180234,1.0001754619279741,0.0005995502874693182
1325.8610297727564,1325.8610297727564,0.9997778075665431,0.0005995732179761806
1325.8679742274887,1325.8679742274887,0.9998969509754387,0.0005995602397502254
1325.8749186823147,1325.8749186823147,1.00001298755724,0.0005994748098242248
1325.881863137187,1325.881863137187,0.9994410837289831,0.0005993492181810404
1325.8888075919663,1325.8888075919663,1.001031116427455,0.0005994388888449944
1325.8957520468848,1325.8957520468848,1.0002267473493056,0.0005993821822231533
1325.9026965017106,1325.9026965017106,0.9992455780889005,0.0005990571981067275
1325.9096409566296,1325.9096409566296,0.9993484379694315,0.0005989869839516741
1325.9165854115483,1325.9165854115483,1.000787666274555,0.0005991989118320875
1325.9235298665135,1325.9235298665135,1.0003687330864641,0.0005990703280759435
1325.9304743214327,1325.9304743214327,1.0000717938355843,0.0005990522573094234
1325.9374187763976,1325.9374187763976,0.999400135236326,0.0005989983572814258
1325.9443632313632,1325.9443632313632,0.9998515566225524,0.0005990726559446984
1325.9513076864218,1325.9513076864218,1.0004567756982516,0.0005990524793640578
1325.9582521414336,1325.9582521414336,1.0008621638784612,0.0005992046213647046
1325.966029931014,1325.966029931014,0.9995281790447901,0.000598901757923029
1325.9735299425438,1325.9735299425438,1.000005986710246,0.0005990914863141254
1325.980474397556,1325.980474397556,1.0003823383524741,0.0005991774030425067
1325.9874188527074,1325.9874188527074,0.9994813519798356,0.0005990493645715494
1325.9943633077194,1325.9943633077194,0.9999540075722697,0.0005993357965267668
1326.0013077628714,1326.0013077628714,1.0013757731663548,0.0005995404154737408
1326.008252217976,1326.008252217976,0.9996636373455428,0.0005993675025558066
1326.0151966731746,1326.0151966731746,0.9988895120196443,0.0005994696802517332
1326.0221411282796,1326.0221411282796,0.9998906293690115,0.0005998158905774875
1326.0290855834778,1326.0290855834778,1.0007803130678705,0.0006001261522364769
1326.036030038676,1326.036030038676,1.0001748926212495,0.0006000870683322594
1326.0429744938742,1326.0429744938742,1.0001425535014943,0.000600082105884061
1326.0499189490724,1326.0499189490724,0.9989664798617474,0.0005998925320254602
1326.056863404317,1326.056863404317,1.0002904607033547,0.0006001769039552759
1326.0638078595155,1326.0638078595155,0.9994183211691086,0.0005999830053622359
1326.0707523147605,1326.0707523147605,1.0002564349019711,0.0006001275668103148
1326.0776967700049,1326.0776967700049,1.0002860352580687,0.0006003723486626523
1326.0846412253434,1326.0846412253434,1.0005607188591528,0.0006005966324661943
1326.0915856805411,1326.0915856805411,1.0003506711518257,0.000600557849740389
1326.0985301358328,1326.0985301358328,1.000105933681253,0.0006005667908354822
1326.1054745911706,1326.1054745911706,1.0002265319116943,0.0006005467995439074
1326.1124190464618,1326.1124190464618,0.9999716746322642,0.0006006191943759471
1326.1193635017999,1326.1193635017999,0.998948400941958,0.0006004688070747022
1326.1263079570908,1326.1263079570908,0.9994595488462477,0.0006004556089101328
1326.133252412476,1326.133252412476,0.9987042005794953,0.0006003222430997718
1326.1401968678601,1326.1401968678601,1.0005128000912098,0.0006007567664822325
1326.1471413231516,1326.1471413231516,1.0002833236055744,0.000600773472063887
1326.1540857785826,1326.1540857785826,1.0011544402503028,0.0006009728560164837
1326.1610302339207,1326.1610302339207,1.0019335710677402,0.0006011097278546046
1326.167974689352,1326.167974689352,1.0002092304475283,0.0006007994047555647
1326.1749191447361,1326.1749191447361,0.9997773716390299,0.000600801189664138
1326.1818636001206,1326.1818636001206,1.0006600559745868,0.0006008698988994775
1326.1888080555514,1326.1888080555514,0.9987288400791028,0.0006007067886257313
1326.1957525109358,1326.1957525109358,0.9989898325280899,0.0006007017680009063
1326.2026969663673,1326.2026969663673,1.0002688495916594,0.0006009002032068005
1326.209641421798,1326.209641421798,0.9996961397937412,0.0006008934453239869
1326.216585877276,1326.216585877276,1.000009213190946,0.0006010483266667662
1326.2235303327068,1326.2235303327068,1.0000745963975985,0.0006008862325060293
1326.230474788138,1326.230474788138,1.0004225202131836,0.0006009795096213467
1326.2374192436157,1326.2374192436157,0.9998957510026593,0.0006008571991823859
1326.2443636990463,1326.2443636990463,0.9993521620098702,0.0006006413862434169
1326.2513081545712,1326.2513081545712,1.0000676184078017,0.0006006599060995497
1326.2582526100018,1326.2582526100018,1.000582335578781,0.0006007166598070017
1326.2651970655263,1326.2651970655263,0.9992605364378877,0.0006005670454992788
1326.2721415210037,1326.2721415210037,1.0012068819303666,0.0006009235435311181
1326.2790859764814,1326.2790859764814,0.999474301751013,0.0006006233209952962
1326.2860304319593,1326.2860304319593,1.0000568094839786,0.0006007463826456842
1326.2929748874833,1326.2929748874833,0.9992946672759414,0.0006005719401058561
1326.2999193429607,1326.2999193429607,1.0009434363869745,0.0006009459069368373
1326.3068637984848,1326.3068637984848,0.9993330380336429,0.0006007194169390001
1326.3138082540092,1326.3138082540092,0.9989571854078958,0.0006005484558126867
1326.320752709487,1326.320752709487,1.000838960275885,0.0006010641176518114
1326.327697165011,1326.327697165011,0.9994730246834175,0.0006009573109687337
1326.3346416205356,1326.3346416205356,0.9999809040807156,0.0006010220690042774
1326.3415860761058,1326.3415860761058,1.000401788942872,0.0006009819319084629
1326.3490860880552,1326.3490860880552,1.0002690939822658,0.0006010915920081426
1326.3582527693266,1326.3582527693266,1.0000946835495466,0.0006011258901882038
1326.3651972248977,1326.3651972248977,0.9999588430146898,0.0006012816683824935
1326.3721416804217,1326.3721416804217,0.9993710768672226,0.0006012135152125072
1326.379086135946,1326.379086135946,1.000062339363748,0.0006013712859904049
1326.38603059147,1326.38603059147,0.999913639677998,0.0006013109664030191
1326.3929750470409,1326.3929750470409,0.99997776889113,0.0006016306984246518
1326.3999195025185,1326.3999195025185,1.000840831845443,0.0006017190819949104
1326.406863958136,1326.406863958136,1.00015818441029,0.0006017762647880365
1326.4138084136137,1326.4138084136137,1.0000202437822676,0.0006017524885276324
1326.420752869231,1326.420752869231,0.9998117640831558,0.0006018484670797424
1326.4276973247083,1326.4276973247083,0.9993474308780763,0.0006017632961678816
1326.4346417802792,1326.4346417802792,0.9999327841257379,0.0006019616708869177
1326.4415862358032,1326.4415862358032,1.000358417477805,0.0006021765346011318
1326.4485306913743,1326.4485306913743,0.9994895285763109,0.0006019931309159856
1326.4554751468982,1326.4554751468982,0.9997965656678133,0.0006022234660678864
1326.4624196024226,1326.4624196024226,1.0003095701937315,0.0006022677560418231
1326.469364057993,1326.469364057993,0.9994673396234598,0.0006023095766632198
1326.4763085135176,1326.4763085135176,1.000469677640255,0.0006023919368721259
1326.483252969042,1326.483252969042,0.9996982822683496,0.0006022492368539667
1326.4901974246125,1326.4901974246125,1.000127625350333,0.0006023695296218194
1326.497141880137,1326.497141880137,0.9997187457360613,0.0006022444838745956
1326.5040863356141,1326.5040863356141,0.9994601499286038,0.0006023284456427847
1326.5110307912314,1326.5110307912314,1.000133040631923,0.0006024452775801961
1326.5179752467093,1326.5179752467093,0.9996331930704441,0.0006025611516939489
1326.5249197022335,1326.5249197022335,0.9998757322874597,0.0006025778433342842
1326.5318641577578,1326.5318641577578,1.000606899905428,0.0006027149979617969
1326.5388086132818,1326.5388086132818,1.000766724899379,0.0006029963505204296
1326.5457530688527,1326.5457530688527,0.9991220069264397,0.0006028402914335727
1326.5526975243304,1326.5526975243304,0.9994379834052272,0.0006028522350132676
1326.5596419798544,1326.5596419798544,0.9999240777977961,0.0006030474475478055
1326.5665864353787,1326.5665864353787,0.9998985528650151,0.0006030817017866122
1326.5735308908565,1326.5735308908565,1.00070456763002,0.000603273302623965
1326.5804753463808,1326.5804753463808,0.9997054111934789,0.0006031454582599135
1326.5874198018578,1326.5874198018578,0.9992969127069211,0.0006030843525757138
1326.5943642573359,1326.5943642573359,1.0006646567755184,0.0006033695168048154
1326.6013087128135,1326.6013087128135,1.0001159423606771,0.0006032943828419475
1326.6082531683376,1326.6082531683376,1.0000769169633639,0.0006033675088742004
1326.615197623769,1326.615197623769,1.0001677424060504,0.0006033959421278153
1326.6221420792926,1326.6221420792926,1.0003120022400174,0.0006035776781035249
1326.6290865347705,1326.6290865347705,1.0001616175556158,0.0006034936643492137
1326.6360309902013,1326.6360309902013,0.9997258179259265,0.0006034477995688248
1326.6429754456792,1326.6429754456792,0.9993521938636306,0.0006033671658281082
1326.6499199011566,1326.6499199011566,0.9997355553103302,0.0006034472130452621
1326.6568643565881,1326.6568643565881,1.000030055748066,0.000603436294448697
1326.6638088120192,1326.6638088120192,1.0005905901282546,0.0006036140331013521
1326.6707532674498,1326.6707532674498,1.000002760720414,0.0006032013077260332
1326.6776977228815,1326.6776977228815,0.999250954201105,0.0006030189524223715
1326.6846421783123,1326.6846421783123,1.0007251997644424,0.0006032186201691628
1326.6926977466403,1326.6926977466403,0.9988438802763862,0.0006026976403625974
1326.6999199802603,1326.6999199802603,1.0008768832581638,0.0006029674589868911
1326.706864435645,1326.706864435645,1.0005310423639655,0.0006028348389489572
1326.7143644474547,1326.7143644474547,0.9995827365209777,0.000602741865451384
1326.722142237547,1326.722142237547,1.0001695224510958,0.0006027524211029543
1326.7290866929313,1326.7290866929313,1.0002518839787122,0.0006025824102631914
1326.7360311482694,1326.7360311482694,1.000472236829388,0.0006027602087953439
1326.742975603654,1326.742975603654,0.9992606790977216,0.0006025320774085442
1326.749920059038,1326.749920059038,1.0002030789905465,0.0006026813974155739
1326.7568645143292,1326.7568645143292,1.000281948202297,0.0006026722717704159
1326.7638089697607,1326.7638089697607,0.9993532059528574,0.0006025013073997696
1326.7707534250987,1326.7707534250987,0.9993246672040336,0.000602403756953423
1326.77769788039,1326.77769788039,1.0001716026522007,0.0006025885817721208
1326.784642335728,1326.784642335728,1.0007209979533531,0.0006025461022355695
1326.7915867910192,1326.7915867910192,0.9994889569633953,0.0006024772568201808
1326.7985312463572,1326.7985312463572,1.0002383525102987,0.0006027339233186978
1326.8054757016487,1326.8054757016487,0.9999164033518275,0.0006026263930912761
1326.8124201569399,1326.8124201569399,1.0010969239067602,0.0006029048057916091
1326.8193646121847,1326.8193646121847,0.9996291963427035,0.0006025058079692829
1326.826309067476,1326.826309067476,0.9996653987885227,0.0006025684268767344
1326.8332535227207,1326.8332535227207,0.999597199695178,0.0006024342303847863
1326.8401979780124,1326.8401979780124,0.9991255052543732,0.000602603302456341
1326.8471424332106,1326.8471424332106,1.000483654293535,0.0006027757312108653
1326.8540868885018,1326.8540868885018,0.9999795986222214,0.0006025736939860271
1326.8610313437002,1326.8610313437002,1.001663721547721,0.0006028822933903358
1326.8679757988987,1326.8679757988987,0.9999871275092114,0.0006024990227544738
1326.8749202540967,1326.8749202540967,0.9990896183576773,0.0006022647734477253
1326.8818647092946,1326.8818647092946,1.000186594130984,0.000602188690732217
1326.888809164493,1326.888809164493,0.9990576599679555,0.0006017772672642007
1326.8957536196444,1326.8957536196444,1.0005229465256995,0.0006018385074925134
1326.9026980748433,1326.9026980748433,0.9997236784380871,0.0006015951168355677
1326.909642529948,1326.909642529948,1.000261783108264,0.0006014996827620911
1326.9165869851463,1326.9165869851463,0.9995814049692517,0.0006012005603346748
1326.9235314402981,1326.9235314402981,1.000396286196979,0.0006013934696847151
1326.930475895403,1326.930475895403,1.000511606660622,0.0006010930399045437
1326.9374203505083,1326.9374203505083,1.0003173546006794,0.0006009207819766229
1326.9443648055667,1326.9443648055667,0.9994128545512456,0.0006006587049533967
1326.951309260672,1326.951309260672,0.9995751239221097,0.0006003994955533495
1326.9582537157771,1326.9582537157771,1.0011421434254442,0.000600591150242445
1326.9651981708357,1326.9651981708357,1.0003440867720437,0.0006003310641590038
1326.9721426258475,1326.9721426258475,0.9999758114583333,0.0006001279004478673
1326.9790870809059,1326.9790870809059,0.9995065456276995,0.0005999685575934064
1326.986031535965,1326.986031535965,1.0004138175216124,0.0006000321802209894
1326.9929759909296,1326.9929759909296,0.999042202339723,0.0005997031481169514
1326.9999204459423,1326.9999204459423,1.0007639645880464,0.000599909324043116
1327.006864900954,1327.006864900954,0.9995162056405663,0.0005994896466404514
1327.013809355966,1327.013809355966,1.0004224653809228,0.0005997650745331954
1327.0207538108848,1327.0207538108848,0.9998601568843103,0.0005995182588145961
1327.0276982658502,1327.0276982658502,0.99999356448371,0.0005996125946870055
1327.0346427208158,1327.0346427208158,1.0004623870778429,0.0005996620327775452
1327.041587175734,1327.041587175734,0.9999985374708625,0.0005996136333411562
1327.0485316306535,1327.0485316306535,0.9999970279231917,0.0005995600645544059
1327.0554760855255,1327.0554760855255,0.9998655046308198,0.0005995455757740323
1327.0632538750126,1327.0632538750126,0.9993874601729275,0.0005994428748429281
1327.0707538863564,1327.0707538863564,1.000196746711914,0.0005997290931478212
1327.0776983411356,1327.0776983411356,1.0003061379269542,0.000599746634134273
