time,time,flux,flux_err
1517.3670100149898,1517.3670100149898,1.00193935669928,0.00023414402878220284
1517.375621373571,1517.375621373571,1.0008586101669297,0.00023066221894584073
1517.3828438037997,1517.3828438037997,1.0019368277716407,0.00022818703823029111
1517.389788448544,1517.389788448544,1.0008039394012995,0.000225975342740721
1517.396733093661,1517.396733093661,1.0002978110871763,0.00022400420064861933
1517.4050666682483,1517.4050666682483,1.0002896400220893,0.0002222641267858066
1517.4120113141103,1517.4120113141103,1.0000733960992476,0.00022055674819577092
1517.4189559603449,1517.4189559603449,0.9994003053384635,0.00021909846063411742
1517.4259006068585,1517.4259006068585,0.9997972482259507,0.00021787821901094628
1517.4328452534658,1517.4328452534658,0.9997663184596955,0.00021671439894084925
1517.4397899004452,1517.4397899004452,0.9993391477199897,0.00021563836804943718
1517.4467345478904,1517.4467345478904,0.9997500877788156,0.0002147031527839303
1517.453679195429,1517.453679195429,1.000082376562911,0.00021378058881704534
1517.4606238433396,1517.4606238433396,1.0002814206802182,0.00021300185041063887
1517.4675684914369,1517.4675684914369,0.999730579482072,0.00021218659290923094
1517.47451313972,1517.47451313972,1.0002137681073011,0.00021153386798818257
1517.4814577884695,1517.4814577884695,0.9996361468584519,0.00021086897802602037
1517.4884024372184,1517.4884024372184,1.0002570615757134,0.00021026465609749802
1517.4953470864332,1517.4953470864332,1.000168512606943,0.00020965172714353342
1517.502291735834,1517.502291735834,1.0001009957892901,0.00020905103769521932
1517.5092363853284,1517.5092363853284,1.0001017947319926,0.00020856227715171306
1517.5161810351015,1517.5161810351015,0.999849294625115,0.0002081194648822802
1517.5231256850616,1517.5231256850616,1.00062826580642,0.00020768581727654908
1517.530070335301,1517.530070335301,0.9998181092215045,0.0002071533099212325
1517.537014985726,1517.537014985726,1.0004394076944525,0.000206800849670694
1517.5439596363376,1517.5439596363376,0.999645697172498,0.00020630515935489186
1517.5509042871358,1517.5509042871358,1.00011817989522,0.00020604766359637864
1517.5578489382133,1517.5578489382133,0.9999949414766691,0.00020571155142835442
1517.5647935892905,1517.5647935892905,1.0001684038723018,0.00020534014210779448
1517.5717382405542,1517.5717382405542,1.0000638611024955,0.0002050246214543145
1517.578682892097,1517.578682892097,0.9997620624629645,0.0002047194540081502
1517.5856275437336,1517.5856275437336,0.9999729899739929,0.0002044336087582051
1517.5925721956487,1517.5925721956487,0.999777715606973,0.00020417229663739102
1517.5995168475642,1517.5995168475642,1.0005279732867554,0.0002040045643873807
1517.6064614996665,1517.6064614996665,0.9999472041661907,0.00020382484776415658
1517.613406151954,1517.613406151954,0.9998958516336497,0.0002035672799761655
1517.6203508044287,1517.6203508044287,0.9999172847295824,0.0002032872674414702
1517.627295456903,1517.627295456903,0.9997936717243266,0.0002031456536342774
1517.6342401096567,1517.6342401096567,1.0002802428991076,0.00020292652205152468
1517.6411847625036,1517.6411847625036,1.000260470584816,0.00020276490699368076
1517.6481294153505,1517.6481294153505,0.9997167878793342,0.0002025630859138877
1517.655074068477,1517.655074068477,0.9999949468339988,0.00020240644137230258
1517.6620187216033,1517.6620187216033,0.9997981950801179,0.0002022012703643002
1517.6689633750086,1517.6689633750086,1.0001173969222976,0.0002021074286055729
1517.6759080284144,1517.6759080284144,1.0000827908146037,0.0002019899360058012
1517.6828526818203,1517.6828526818203,0.9996929621417593,0.00020175852162275602
1517.6897973354119,1517.6897973354119,1.0002963639842615,0.0002015660921442656
1517.6967419890975,1517.6967419890975,1.0000014942854067,0.0002014163788590052
1517.7036866429685,1517.7036866429685,0.9998652263513176,0.00020121723960216787
1517.7106312968397,1517.7106312968397,1.0003547692541226,0.00020117510354643515
1517.717575950804,1517.717575950804,0.9996676822540046,0.0002009121929402847
1517.724520604862,1517.724520604862,1.00011572175648,0.00020081521047982708
1517.7314652591058,1517.7314652591058,1.0001013273107735,0.0002005749709648686
1517.7384099132564,1517.7384099132564,1.0000354524492094,0.0002004464853412182
1517.7453545675003,1517.7453545675003,1.000229753269427,0.000200359472730689
1517.7522992218373,1517.7522992218373,0.9999485491428945,0.00020017763604936599
1517.7592438763606,1517.7592438763606,0.9997151941368603,0.0002000179257429635
1517.7661885307905,1517.7661885307905,0.9999682683648368,0.00019988989916655021
1517.7731331853142,1517.7731331853142,0.9999720095409558,0.00019977050298964778
1517.7800778401165,1517.7800778401165,0.999970563199582,0.00019974164944779548
1517.7870224946398,1517.7870224946398,0.9998150771069142,0.00019950821934467482
1517.7939671494426,1517.7939671494426,1.0004533810341887,0.00019937524928455953
1517.8009118042453,1517.8009118042453,0.999731940277294,0.00019922568651056994
1517.8078564591408,1517.8078564591408,1.0000126397587814,0.00019910487127866605
1517.814801114037,1517.814801114037,0.9997297889436961,0.00019899075250172203
1517.8217457688393,1517.8217457688393,0.9999663589881986,0.00019896174916093855
1517.8286904239217,1517.8286904239217,1.000474601342755,0.0001987647070736229
1517.8356350789104,1517.8356350789104,1.0000731701089867,0.0001986299315165321
1517.8425797339921,1517.8425797339921,1.0000474712923793,0.00019854573360064543
1517.8495243890743,1517.8495243890743,0.9995499240283886,0.00019839105988296118
1517.8564690442495,1517.8564690442495,1.0001116110366477,0.000198380828413959
1517.8634136994247,1517.8634136994247,1.0001599691635146,0.00019822033341217348
1517.8703583545998,1517.8703583545998,0.99987538049317,0.00019820241646267665
1517.8773030097755,1517.8773030097755,0.9997808174998124,0.0001980910757834695
1517.8842476650432,1517.8842476650432,1.0002964238436074,0.00019797365996070525
1517.8911923203118,1517.8911923203118,0.9999646392514077,0.00019793799895417315
1517.8981369755802,1517.8981369755802,1.000218041258319,0.0001979987009380439
1517.9050816308486,1517.9050816308486,1.0003200854620937,0.0001978447231008842
1517.91202628621,1517.91202628621,0.9994602748368852,0.0001977615335529417
1517.9189709415712,1517.9189709415712,0.9999576992585372,0.0001977544842130605
1517.9259155969328,1517.9259155969328,0.9999971164771349,0.0001977562282518399
1517.932860252294,1517.932860252294,1.0002740354671358,0.00019779760518459457
1517.9398049076556,1517.9398049076556,0.9996016441001455,0.00019766864400509238
1517.9478607079343,1517.9478607079343,0.9999797811962077,0.0001976381943703149
1517.9550831495258,1517.9550831495258,0.9999877699430586,0.00019757925420107477
1517.9620278049797,1517.9620278049797,1.0000130423322993,0.000197582096976992
1517.9689724603413,1517.9689724603413,0.9999154107289394,0.00019747386918220504
1517.9759171157027,1517.9759171157027,1.0000195107688108,0.00019743477731234355
1517.982861771157,1517.982861771157,1.000379765703159,0.00019745715846970676
1517.989806426612,1517.989806426612,1.0000001186752978,0.00019739278428768965
1517.9967510818803,1517.9967510818803,0.9998835642052208,0.00019720830560411313
1518.0036957372415,1518.0036957372415,0.9999423566356818,0.00019725924900771647
1518.0106403926961,1518.0106403926961,0.9999300540652001,0.0001972731473224262
1518.0175850481507,1518.0175850481507,1.000633473353497,0.0001972425024262277
1518.0245297034191,1518.0245297034191,0.9996064473747801,0.0001971607118902399
1518.0314743587808,1518.0314743587808,1.000083040248537,0.00019714400045999528
1518.038419014142,1518.038419014142,1.0000812711049014,0.0001970483058908753
1518.0453636695036,1518.0453636695036,0.9996868452485842,0.00019707299435377988
1518.0523083247717,1518.0523083247717,0.9996696802818631,0.0001971297490235488
1518.0592529801331,1518.0592529801331,0.9999713538863422,0.0001970443053161255
1518.0661976354013,1518.0661976354013,1.0002809801600645,0.00019696882727284376
1518.0731422906697,1518.0731422906697,1.0001429067166336,0.00019701784991136344
1518.080086945938,1518.080086945938,0.999934403629245,0.0001969657785951792
1518.0870316011133,1518.0870316011133,1.0004978171842058,0.00019689237881686467
1518.0939762563814,1518.0939762563814,0.9996821333912729,0.00019677054946653054
1518.1009209115568,1518.1009209115568,0.999755332561071,0.00019683419447940673
1518.1078655667318,1518.1078655667318,1.0003550859214319,0.00019676379974101302
1518.1148102218137,1518.1148102218137,0.9998791910301243,0.00019672069615126437
1518.1217548769894,1518.1217548769894,1.000140823434753,0.00019665604252550067
1518.128699532071,1518.128699532071,1.0001999101104109,0.0001966225371145752
1518.13564418706,1518.13564418706,0.9999470254324054,0.00019659760921487426
1518.1425888421422,1518.1425888421422,0.9997878810445695,0.00019654231415743663
1518.149533497131,1518.149533497131,0.9995550549834732,0.00019652427984134352
1518.15647815212,1518.15647815212,1.0000685080398382,0.00019648232674356875
1518.1634228071086,1518.1634228071086,1.0004257361504467,0.0001964998595939859
1518.1703674619114,1518.1703674619114,1.0002693113962857,0.00019642714095787685
1518.1773121168073,1518.1773121168073,0.9995168054243818,0.00019635082801489198
1518.1842567716099,1518.1842567716099,0.9999704567753526,0.00019633492638409592
1518.1912014264126,1518.1912014264126,1.000243515141546,0.00019626871563316908
1518.1981460812156,1518.1981460812156,1.0003415900427648,0.00019631274854468912
1518.2050907358314,1518.2050907358314,0.9996965250902342,0.0001963133495343948
1518.2120353906344,1518.2120353906344,0.9999291088842839,0.00019626862868958616
1518.2189800452509,1518.2189800452509,0.9997026982327266,0.00019621611201876208
1518.2259246997735,1518.2259246997735,0.9999265453335056,0.0001962485416971658
1518.2328693543902,1518.2328693543902,0.9998950371350416,0.0001961903180110912
1518.2398140089135,1518.2398140089135,1.0001527731855353,0.00019615479903632542
1518.2467586634366,1518.2467586634366,1.0001858806637318,0.00019621165578079459
1518.2537033178671,1518.2537033178671,0.9997761533695032,0.00019619333304318615
1518.260647972204,1518.260647972204,0.9999211527216053,0.00019618552576306062
1518.2678704126768,1518.2678704126768,1.0000829173207073,0.00019609342859316808
1518.2759262117454,1518.2759262117454,0.9999286330701128,0.0001959972008071788
1518.2828708659888,1518.2828708659888,0.9998502013708694,0.00019613839913191464
1518.2898155201394,1518.2898155201394,1.0004456133023758,0.00019606733840085196
1518.2967601743837,1518.2967601743837,1.0001099622270935,0.00019610396726583664
1518.3037048283481,1518.3037048283481,1.0000554669862523,0.00019607568100751073
1518.3106494824988,1518.3106494824988,1.0003591813492085,0.00019606503179516997
1518.3189830672377,1518.3189830672377,0.9998466881457851,0.00019599957921591086
1518.3259277212017,1518.3259277212017,1.0001621707229227,0.0001959069109943418
1518.3328723750735,1518.3328723750735,0.9996442730552315,0.00019603301051139628
1518.3398170289443,1518.3398170289443,1.000213378751326,0.00019596290826519826
1518.3467616827227,1518.3467616827227,0.999846343516084,0.00019604071588183997
1518.3537063363149,1518.3537063363149,0.9999565280399778,0.00019591429825330337
1518.360650990186,1518.360650990186,0.9999932620075669,0.0001959279685632874
1518.3675956435916,1518.3675956435916,0.9999469071295192,0.00019593494381490135
1518.3745402973698,1518.3745402973698,1.0001117355388618,0.000195898108808129
1518.3814849508685,1518.3814849508685,1.0001037094918632,0.0001959072096311379
1518.3884296042743,1518.3884296042743,0.9997936374696147,0.00019584958998694672
1518.39537425768,1518.39537425768,1.0001865272194943,0.00019584209277440169
1518.4023189110853,1518.4023189110853,0.9997034683516179,0.0001957686331922882
1518.4092635642119,1518.4092635642119,1.000094511733974,0.00019578877955462806
1518.4170415758401,1518.4170415758401,1.0003848753984563,0.0001957811333737931
1518.4245418012385,1518.4245418012385,0.9999035888866938,0.00019580260104899074
1518.431486454365,1518.431486454365,1.0000195969529977,0.00019568834731046518
1518.438431107398,1518.438431107398,1.0001457410876227,0.00019572997463764133
1518.4453757603378,1518.4453757603378,0.9999556825766692,0.00019565743461846525
1518.452320413185,1518.452320413185,0.9995358555539617,0.00019566379620257734
1518.4592650660318,1518.4592650660318,1.0000599392408813,0.0001957243804278808
1518.467598649467,1518.467598649467,1.0002578283463979,0.00019560554364067057
1518.474543302127,1518.474543302127,0.9998192159778923,0.00019579732619569813
1518.4814879547878,1518.4814879547878,1.0001612234754442,0.00019566971392280058
1518.4884326073554,1518.4884326073554,0.9998357144408014,0.0001956537874496905
1518.4953772598296,1518.4953772598296,0.9999485689764681,0.00019560416745650146
1518.5023219123038,1518.5023219123038,0.999996200499892,0.00019566982729946305
1518.509266564685,1518.509266564685,1.0001140520297123,0.00019559149934913204
1518.5162112170663,1518.5162112170663,1.0001111391791588,0.00019555355497549408
1518.523155869261,1518.523155869261,1.0001031996820222,0.00019553291717294805
1518.5301005215492,1518.5301005215492,1.0001482374339778,0.00019560829906749034
1518.5370451735578,1518.5370451735578,0.9999602144446345,0.00019567176409033315
1518.5439898256598,1518.5439898256598,0.9998920847857968,0.0001955809927985286
1518.5509344776685,1518.5509344776685,0.9996832283553502,0.00019565917059965514
1518.557879129491,1518.557879129491,1.0001310048902365,0.0001956278567309566
1518.5648237814069,1518.5648237814069,0.9997793926948878,0.00019560704604969117
1518.5717684331355,1518.5717684331355,0.9997667480732482,0.0001955037609658822
1518.578713084958,1518.578713084958,1.0000146554647211,0.00019557839709753925
1518.5856577365012,1518.5856577365012,1.0005022898137044,0.0001955740639427754
1518.5926023881373,1518.5926023881373,1.0001549637257883,0.0001955406967590328
1518.599547039587,1518.599547039587,1.0001040909377152,0.00019551372939937865
1518.6064916909438,1518.6064916909438,0.9999542268829558,0.00019551400072671593
1518.613436342487,1518.613436342487,1.0003575291982862,0.00019549732382486578
1518.620380993564,1518.620380993564,0.9998026478526503,0.00019549168028797767
1518.627325645014,1518.627325645014,1.0004622704383315,0.00019545484085281336
1518.6342702961847,1518.6342702961847,0.9998452482140138,0.00019554038578499218
1518.6412149472621,1518.6412149472621,0.9998149667865068,0.00019556337216248366
1518.648159598246,1518.648159598246,0.9995702233657411,0.00019541815848558578
1518.6551042489511,1518.6551042489511,1.0001182813152012,0.00019547848569347574
1518.6620489000284,1518.6620489000284,1.0000477779958392,0.0001954296769544278
1518.6689935506397,1518.6689935506397,0.9998763374794454,0.00019562549278380028
1518.675938201345,1518.675938201345,1.0002912726951068,0.0001955261541459851
1518.6828828520497,1518.6828828520497,0.9999504281056524,0.00019563370161048942
1518.689827502568,1518.689827502568,1.0001292842436698,0.0001955138717777825
1518.6967721530866,1518.6967721530866,0.9999134887546202,0.00019550068964393447
1518.7037168035122,1518.7037168035122,0.9997061287875931,0.00019550374374931634
1518.710661453844,1518.710661453844,1.0000917226994943,0.00019544276706574406
1518.7176061040832,1518.7176061040832,1.000393889454966,0.00019544332799602214
1518.7245507542295,1518.7245507542295,0.9995725667825708,0.0001954050405045686
1518.7314954043757,1518.7314954043757,1.0000731822852975,0.00019552067613987588
1518.7384400543356,1518.7384400543356,0.9999522558816771,0.00019545352052808434
1518.745384704202,1518.745384704202,0.9999049116884876,0.0001954496820441722
1518.752329354162,1518.752329354162,1.0000020638098026,0.0001954869505176796
1518.7592740040284,1518.7592740040284,0.9999762637917863,0.00019545560632351606
1518.7662186537086,1518.7662186537086,1.0004085715831579,0.00019554652743409857
1518.7731633032959,1518.7731633032959,1.0001943249828011,0.0001955089859734662
1518.7801079529763,1518.7801079529763,1.0000864187451186,0.00019548667745817572
1518.7870526023773,1518.7870526023773,0.9996072335303123,0.0001954955813560112
1518.793997251778,1518.793997251778,0.9999252957677,0.00019547192711023045
1518.8009419011792,1518.8009419011792,1.000043683835873,0.0001954546814454937
1518.8078865503937,1518.8078865503937,1.0000164903982764,0.00019546869696664718
1518.8148311995153,1518.8148311995153,0.9999631740219292,0.00019553612010427937
1518.82177584873,1518.82177584873,0.9994754908362079,0.00019540094164462955
1518.8287204975727,1518.8287204975727,1.0003260377685694,0.00019552342565639863
1518.8356651466936,1518.8356651466936,1.0004493789965556,0.00019556435100572463
1518.842609795443,1518.842609795443,1.0001046941194212,0.00019552241321756499
1518.849554444192,1518.849554444192,0.9998983276284855,0.0001954714574066402
1518.856499092941,1518.856499092941,0.9996540805227486,0.00019547192425506984
1518.8634437415037,1518.8634437415037,1.0000559210275268,0.00019559932887995183
1518.8703883899732,1518.8703883899732,0.9998257832253941,0.0001954988670112337
1518.8773330384429,1518.8773330384429,1.00019776447783,0.00019552286818554378
1518.8842776868194,1518.8842776868194,1.000095853031923,0.00019552781205506683
1518.8912223351028,1518.8912223351028,0.9998419821224296,0.00019552639090645858
1518.898166983293,1518.898166983293,1.0004745743923102,0.00019556802405085752
1518.9051116313901,1518.9051116313901,0.9998159631411264,0.0001955646319119129
1518.912056279394,1518.912056279394,0.9998530500040042,0.0001955152618685166
1518.9190009273048,1518.9190009273048,0.9996688121301377,0.00019553199003512458
1518.9259455752158,1518.9259455752158,1.0000445314727457,0.00019552895648382746
1518.9328902230334,1518.9328902230334,1.0001031591011478,0.00019551191673757075
1518.939834870758,1518.939834870758,0.9997058836672146,0.00019546239782977523
1518.9467795183896,1518.9467795183896,1.0000605632189215,0.00019541606058214042
1518.9537241659277,1518.9537241659277,1.0001865557297176,0.0001953930983768217
1518.9606688133733,1518.9606688133733,1.0002333970218609,0.00019537084293885716
1518.967613460725,1518.967613460725,1.0001147811393838,0.0001953549441910049
1518.974558107984,1518.974558107984,1.0000949858715837,0.00019542785695357028
1518.9815027552431,1518.9815027552431,0.9998809756547267,0.0001953800777247263
1518.9884474022224,1518.9884474022224,0.9996377719646846,0.00019533419815871236
1518.995392049388,1518.995392049388,1.0003102364885186,0.0001954402125537874
1519.0023366962746,1519.0023366962746,0.9999191646679758,0.00019540974443092322
1519.0092813430679,1519.0092813430679,0.9999556201737063,0.00019541592961043512
1519.0162259899541,1519.0162259899541,0.9998760138773919,0.00019540396692911682
1519.0231706365612,1519.0231706365612,1.0000420629671152,0.00019538229146562978
1519.0301152832612,1519.0301152832612,0.9998473724975924,0.00019535857994593852
1519.0370599296823,1519.0370599296823,1.0002961276321631,0.000195441577803466
1519.0440045761027,1519.0440045761027,1.000040659762461,0.00019542293340913498
1519.0509492225235,1519.0509492225235,0.9998691871059364,0.00019532852118230503
1519.0578938688514,1519.0578938688514,0.9999695959156953,0.00019534698081997314
1519.0648385148993,1519.0648385148993,0.9999704763093848,0.00019538383072085995
1519.0717831610407,1519.0717831610407,0.9996844316449927,0.00019533986428716402
1519.0787278069956,1519.0787278069956,1.0002721877854932,0.00019533490135233486
1519.0856724529508,1519.0856724529508,0.999956932950175,0.0001954737542293699
1519.0926170988125,1519.0926170988125,1.0002963448097595,0.00019534638855481305
1519.0995617444883,1519.0995617444883,1.0001142676435468,0.00019533934483780137
1519.106506390164,1519.106506390164,1.0002462367145395,0.00019539265712678494
1519.1134510357463,1519.1134510357463,0.9996325185391287,0.00019545186915847384
1519.1203956812358,1519.1203956812358,0.9997712410990767,0.0001953776684085994
