time,time,flux,flux_err
1325.2997381404564,1325.2997381404564,0.9996772228784975,0.0007090683038688005
1325.308071328305,1325.308071328305,0.9995882536041253,0.0007094969856691855
1325.3164045164453,1325.3164045164453,1.000054274273416,0.0007099119005869184
1325.324737704847,1325.324737704847,1.0004146293547547,0.0007103329913479503
1325.3323764611305,1325.3323764611305,1.0007782602347528,0.0006489185463060677
1325.3393207852218,1325.3393207852218,1.0004564198598263,0.0006492724159994596
1325.3462651094997,1325.3462651094997,0.9994804185957884,0.0006496351114812819
1325.3532094339632,1325.3532094339632,1.0007716408000784,0.0006503245543585286
1325.3601537586014,1325.3601537586014,0.9995202630741693,0.0006507026344828053
1325.3670980834152,1325.3670980834152,0.9993269463191339,0.0006513035882787315
1325.3740424084376,1325.3740424084376,1.0005393979114956,0.0006519750997565215
1325.380986733635,1325.380986733635,0.999428153115214,0.0006523689501313423
1325.3879310589832,1325.3879310589832,1.0000125960270532,0.0006531434361196827
1325.3948753845293,1325.3948753845293,1.0001514021069728,0.0006538179468746159
1325.4018197102625,1325.4018197102625,1.0005560410151184,0.0006542605302903143
1325.4087640361347,1325.4087640361347,0.9989234882435205,0.0006546474675393568
1325.4157083622054,1325.4157083622054,1.00062794702697,0.0006555287150888637
1325.4226526884502,1325.4226526884502,1.0005979901766235,0.0006559529758201693
1325.4295970148466,1325.4295970148466,1.0017022728870888,0.0006566461006798147
1325.4365413414407,1325.4365413414407,1.0002074867820603,0.0006569862725428866
1325.4434856681746,1325.4434856681746,0.9986484563197692,0.0006569901161687994
1325.4504299950831,1325.4504299950831,0.9990340913356472,0.0006575571064991328
1325.4573743221663,1325.4573743221663,1.000256046486208,0.0006584061284549496
1325.4643186494009,1325.4643186494009,1.0006151900116034,0.0006588564306818951
1325.4712629768098,1325.4712629768098,0.9993071283605485,0.0006591825419647241
1325.4782073043702,1325.4782073043702,1.0005588646942774,0.0006598919894887361
1325.4851516320937,1325.4851516320937,1.00019654211362,0.0006606023738904299
1325.492095959992,1325.492095959992,1.000723888641764,0.0006613719840135391
1325.4990402880414,1325.4990402880414,0.9993536610376792,0.0006617090531888138
1325.505984616219,1325.505984616219,0.9995015668196464,0.0006622201235368815
1325.512928944559,1325.512928944559,1.0000340632225395,0.0006630697738600903
1325.5198732730628,1325.5198732730628,1.0006149034908591,0.0006637730807445459
1325.5268176017291,1325.5268176017291,0.9999078546588084,0.0006642492284290979
1325.5337619305235,1325.5337619305235,0.9994840229303144,0.0006648391369094213
1325.5407062594925,1325.5407062594925,0.9993109642682547,0.0006653930065993162
1325.54765058859,1325.54765058859,1.0002327889114941,0.0006661521341985787
1325.5545949178263,1325.5545949178263,1.0000967860853003,0.0006667018610825621
1325.5615392472266,1325.5615392472266,1.0005293324471949,0.000667442861047796
1325.5684835767545,1325.5684835767545,1.000757807605304,0.0006681107740875155
1325.5754279064336,1325.5754279064336,0.9996205655552967,0.000668479834586287
1325.5823722362645,1325.5823722362645,1.0005726122792242,0.0006691677233724497
1325.5893165662224,1325.5893165662224,0.9988262367160636,0.0006694347324881708
1325.5962608963096,1325.5962608963096,1.000495352813917,0.0006701863078804451
1325.6032052265705,1325.6032052265705,1.001033945910741,0.0006707147902847816
1325.610149556937,1325.610149556937,0.9988888541002311,0.0006707717828888947
1325.6170938874425,1325.6170938874425,1.000266897452346,0.0006712661874145662
1325.6240382180881,1325.6240382180881,0.9992134757733234,0.0006713634811757502
1325.6309825488615,1325.6309825488615,1.000381048052924,0.000671692250665262
1325.637926879775,1325.637926879775,0.9997173695356324,0.0006716998523407177
1325.6448712108158,1325.6448712108158,0.999845887248404,0.0006717652225097986
1325.6518155419853,1325.6518155419853,0.9997207406821044,0.0006719731097288945
1325.6587598732945,1325.6587598732945,0.9995632641607152,0.000671962660248038
1325.6657042047084,1325.6657042047084,1.0004340925582624,0.0006723722485117862
1325.6726485362499,1325.6726485362499,1.0006025882261427,0.0006721787691920171
1325.6795928679317,1325.6795928679317,1.000426599064112,0.0006726225282170881
1325.6865371997296,1325.6865371997296,1.0014191256231368,0.0006728932153371684
1325.6934815316554,1325.6934815316554,0.9991448292186815,0.0006726797540916596
1325.7004258636753,1325.7004258636753,0.9997208573183614,0.0006732027012487823
1325.7073701958338,1325.7073701958338,1.0003706558301904,0.000673575978348298
1325.7143145281207,1325.7143145281207,0.9997712152926068,0.0006738316818979608
1325.721258860524,1325.721258860524,0.9982454385397592,0.0006739436298938402
1325.7282031930322,1325.7282031930322,1.0007475925296974,0.000674924851864177
1325.7351475256567,1325.7351475256567,0.9998541518258826,0.0006748589744933229
1325.7420918583975,1325.7420918583975,0.9994559615705796,0.0006753941330572754
1325.7490361912546,1325.7490361912546,1.0007830214934264,0.0006762091501758814
1325.7559805242172,1325.7559805242172,1.0000675752700576,0.0006765007071629092
1325.7629248572955,1325.7629248572955,1.0005315269504165,0.0006768060311643514
1325.7698691904905,1325.7698691904905,0.9999489241936963,0.0006774521889618318
1325.776813523767,1325.776813523767,1.0001902476923672,0.0006777201031381074
1325.7837578571832,1325.7837578571832,0.9993865487349405,0.0006779674960884587
1325.7907021906926,1325.7907021906926,0.9999770860213679,0.0006785663825653255
1325.7976465243296,1325.7976465243296,1.0002143523147766,0.0006792544742028548
1325.804590858037,1325.804590858037,0.9996092992980852,0.0006793962231591397
1325.8115351918605,1325.8115351918605,1.000352245438427,0.0006798202908586814
1325.8184795257891,1325.8184795257891,1.0004359793228947,0.0006803714795221073
1325.8254238598338,1325.8254238598338,0.9997714510263613,0.0006806739613616679
1325.83236819396,1325.83236819396,1.0005319009562081,0.0006810027923150515
1325.8393125281914,1325.8393125281914,0.9993708463095514,0.0006809066638393782
1325.8462568625268,1325.8462568625268,0.9998731674424794,0.000680951033889136
1325.8532011969558,1325.8532011969558,0.9998361544060781,0.0006810284065244542
1325.860145531478,1325.860145531478,0.9993770857667549,0.000680841186870209
1325.867089866105,1325.867089866105,0.9993940936349099,0.0006806993446470804
1325.8740342008252,1325.8740342008252,0.9997962434832296,0.000680425960045346
1325.8809785356498,1325.8809785356498,1.0013039399490613,0.0006804790738303081
1325.8879228705443,1325.8879228705443,1.0004490028626267,0.0006800432208791353
1325.8948672055437,1325.8948672055437,1.0003175529271733,0.0006797508545897286
1325.901811540648,1325.901811540648,1.0000649451627743,0.0006793806705895879
1325.9087558758104,1325.9087558758104,0.9988677086449176,0.0006789194010295143
1325.9157002110774,1325.9157002110774,0.9993786841836823,0.0006786820166107109
1325.9226445464608,1325.9226445464608,1.0003105801810626,0.0006789421446830532
1325.9295888818913,1325.9295888818913,1.0002409226791467,0.0006786114897925124
1325.9365332174377,1325.9365332174377,1.0000204409394289,0.0006786696196830088
1325.943477553054,1325.943477553054,0.9991180208613185,0.0006782834937998197
1325.950421888764,1325.950421888764,1.000158763449018,0.0006784741360915076
1325.957366224555,1325.957366224555,1.0000663598333184,0.0006785068515175824
1325.9654216541858,1325.9654216541858,1.0003448843996021,0.0006786368347842954
1325.9726437636025,1325.9726437636025,0.9994441391961393,0.000678432219257504
1325.9795880996612,1325.9795880996612,1.0004009476346734,0.0006787441541902176
1325.9865324358013,1325.9865324358013,0.9991391901250868,0.0006786623511518084
1325.9934767720347,1325.9934767720347,1.0002402687500365,0.0006789054827075679
1326.0004211083265,1326.0004211083265,1.0004234834973742,0.0006793300784746882
1326.0073654446994,1326.0073654446994,1.000527849825597,0.0006797624694430107
1326.0143097811774,1326.0143097811774,1.0005388875909031,0.0006802876416607434
1326.021254117702,1326.021254117702,1.0001066650936539,0.0006805721831970577
1326.0281984543199,1326.0281984543199,0.9997614054845567,0.0006810265194624157
1326.035142791007,1326.035142791007,0.9996348324084738,0.0006811038793163536
1326.0420871277756,1326.0420871277756,0.9998586393860002,0.0006810967422659829
1326.049031464603,1326.049031464603,0.9991239168065341,0.0006809452685151829
1326.0559758015347,1326.0559758015347,1.00014745043006,0.0006814564895302307
1326.062920138525,1326.062920138525,1.0001041859857305,0.000681554471312746
1326.0698644755848,1326.0698644755848,0.999653722340976,0.0006817200667239867
1326.076808812703,1326.076808812703,1.0002851387229694,0.0006818163554482939
1326.083753149926,1326.083753149926,1.0008820383966417,0.0006820598230220041
1326.0906974871957,1326.0906974871957,0.9998977574218337,0.0006820583657106467
1326.097641824535,1326.097641824535,0.9994866189940421,0.0006820442472536643
1326.1045861619446,1326.1045861619446,0.9999506433501615,0.000682369428513405
1326.1115304994346,1326.1115304994346,0.9997166423086178,0.0006821485786190753
1326.1184748369956,1326.1184748369956,1.0005170113508095,0.0006824065911589473
1326.1254191746023,1326.1254191746023,0.9991951368216501,0.0006821455779120845
1326.132363512303,1326.132363512303,0.9991694633352768,0.0006821301079399688
1326.139307850038,1326.139307850038,1.000148657335187,0.0006824108165658991
1326.1462521878548,1326.1462521878548,0.9999183578712321,0.0006825549715908355
1326.1531965257295,1326.1531965257295,1.0005693193983056,0.0006824544654420091
1326.160140863674,1326.160140863674,1.000081735382994,0.0006825170699357578
1326.167085201677,1326.167085201677,1.0005602914375296,0.0006825494861094017
1326.1740295397497,1326.1740295397497,0.9996776159388594,0.000682308478267409
1326.1809738778925,1326.1809738778925,0.999779599092809,0.0006823646694600137
1326.18791821607,1326.18791821607,1.0004908571915823,0.0006825433922180436
1326.1948625543175,1326.1948625543175,1.000122361278344,0.0006823333672716748
1326.2018068926347,1326.2018068926347,0.9991971331546535,0.0006821431065115446
1326.2087512310218,1326.2087512310218,1.0004790134989587,0.0006824451893614959
1326.2156955694438,1326.2156955694438,1.00003076097541,0.0006822333236669926
1326.2226399079473,1326.2226399079473,1.0001046647864626,0.0006822590029511193
1326.2295842464857,1326.2295842464857,0.9998851966150685,0.000682282543978378
1326.236528585094,1326.236528585094,0.9992631126246397,0.0006821880412943803
1326.2434729237716,1326.2434729237716,0.9998035595712308,0.0006820071596746146
1326.2504172624854,1326.2504172624854,1.0004189409957918,0.0006824105758655864
1326.257361601268,1326.257361601268,1.000331919909357,0.0006823294184046619
1326.2643059400975,1326.2643059400975,1.000540738546878,0.0006823111805148655
1326.271250278997,1326.271250278997,0.9990778126694184,0.0006819829574859667
1326.278194617931,1326.278194617931,1.000834248757817,0.0006822548258081861
1326.2851389569237,1326.2851389569237,0.999228802685642,0.0006818951308160869
1326.2920832959742,1326.2920832959742,1.0007316844752145,0.0006820453484943231
1326.2990276350718,1326.2990276350718,0.9998290422317371,0.0006818519854182677
1326.30597197425,1326.30597197425,0.9999551721258435,0.0006819185708886458
1326.3129163134408,1326.3129163134408,0.9983869427975985,0.0006816997344727196
1326.319860652689,1326.319860652689,1.0007643680847473,0.0006821912047954807
1326.3268049920075,1326.3268049920075,1.0008753215012869,0.0006822352286425875
1326.3337493313609,1326.3337493313609,0.999376451409697,0.0006820731604147278
1326.3406936707725,1326.3406936707725,1.0004467093759548,0.0006824811211002303
1326.3487491045362,1326.3487491045362,0.9998602552593958,0.0006823218657689467
1326.357360085551,1326.357360085551,1.0001068213861402,0.0006826912910960476
1326.3643044251257,1326.3643044251257,1.0008149221497313,0.0006831387696478837
1326.3712487647467,1326.3712487647467,0.9985164440409025,0.0006826124125057728
1326.3781931044145,1326.3781931044145,0.999939544415598,0.0006832799304493096
1326.385137444117,1326.385137444117,1.0003379739500091,0.0006832995621086868
1326.3920817838775,1326.3920817838775,1.0006203197062125,0.0006838394856155948
1326.399026123697,1326.399026123697,1.000277650677231,0.0006837599761450664
1326.4059704635622,1326.4059704635622,1.0003322793623486,0.0006838636544017441
1326.41291480344,1326.41291480344,0.9995276709076897,0.0006838679937734762
1326.4198591433983,1326.4198591433983,0.9996257025897943,0.0006839840558757243
1326.4268034833806,1326.4268034833806,1.0001045851351562,0.0006842548046221572
1326.433747823397,1326.433747823397,0.9991085144721525,0.0006843553198473916
1326.4406921634957,1326.4406921634957,1.0001417625977616,0.0006846031628309772
1326.4476365036057,1326.4476365036057,1.0000141556729203,0.0006847450141478858
1326.4545808437622,1326.4545808437622,1.0002966435078515,0.0006847770979511277
1326.4615251839773,1326.4615251839773,1.0000601082194505,0.0006848563872796325
1326.4684695242036,1326.4684695242036,1.000231566880561,0.0006849211624664653
1326.475413864488,1326.475413864488,1.0002976603030425,0.0006850197516440176
1326.4823582048198,1326.4823582048198,0.9996936284156863,0.0006848629217175518
1326.4893025451738,1326.4893025451738,0.9998483442960616,0.0006848408678340862
1326.4962468855983,1326.4962468855983,0.9996370251199551,0.0006850894224291588
1326.5031912260342,1326.5031912260342,0.9992188012193923,0.0006850477772810339
1326.510135566517,1326.510135566517,1.001153054507706,0.0006856645324516974
1326.517079907046,1326.517079907046,1.0006339728785882,0.0006855351567028817
1326.52402424761,1326.52402424761,1.0003435408760928,0.0006858060110099626
1326.5309685882207,1326.5309685882207,1.0000475724329738,0.0006861593314581377
1326.5379129288428,1326.5379129288428,0.9994444934028011,0.0006862786090930227
1326.5448572695238,1326.5448572695238,1.0009842650600533,0.00068669154680363
1326.551801610239,1326.551801610239,0.9996031450095753,0.0006867612739064703
1326.5587459509893,1326.5587459509893,0.998843146032009,0.0006868828715048032
1326.5656902917744,1326.5656902917744,0.9992560210741861,0.0006869324817148843
1326.5726346325946,1326.5726346325946,0.9997726310346138,0.0006871096804111074
1326.5795789734616,1326.5795789734616,1.0000840722007598,0.0006871530177753406
1326.5865233143397,1326.5865233143397,1.0005668191679526,0.0006873726938898402
1326.593467655265,1326.593467655265,0.9998906526511717,0.0006873624782529726
1326.600411996248,1326.600411996248,1.0005693707684458,0.0006872581172370487
1326.607356337231,1326.607356337231,1.0004142188526959,0.0006873026560118148
1326.6143006782727,1326.6143006782727,1.0003500741809943,0.0006875639980518622
1326.6212450193484,1326.6212450193484,1.0003291048218435,0.0006875857066549528
1326.6281893604369,1326.6281893604369,0.9993146434751248,0.0006873920674710626
1326.6351337015597,1326.6351337015597,0.9999401327530621,0.000687494998387189
1326.6420780427293,1326.6420780427293,0.9998632387281022,0.0006872599400162012
1326.6490223839216,1326.6490223839216,1.0009340116189234,0.0006876768110627294
1326.6559667251493,1326.6559667251493,0.9989831457731023,0.0006871574917083972
1326.662911066412,1326.662911066412,0.9991999439249092,0.0006869940787069338
1326.6698554076977,1326.6698554076977,1.0006498432886919,0.0006870441511552019
1326.6767997490304,1326.6767997490304,0.9998487697400817,0.0006868183193260086
1326.683744090386,1326.683744090386,1.0000786916958977,0.0006864644762688863
1326.6920773000452,1326.6920773000452,1.0003705624168937,0.0006862588970509489
1326.6990216414708,1326.6990216414708,0.9994917271025286,0.0006857028579616212
1326.7059659829195,1326.7059659829195,0.9994342846174307,0.0006854696821064346
1326.7137436453625,1326.7137436453625,1.0005396189787155,0.0006854951559298479
1326.7212435342028,1326.7212435342028,1.0007945108108067,0.0006852151422814395
1326.7281878757562,1326.7281878757562,1.0002810638264892,0.0006846932170409198
1326.7351322173213,1326.7351322173213,0.9996997770340365,0.00068461698982778
1326.7420765589334,1326.7420765589334,0.9986569236434149,0.0006841127716649151
1326.7490209005566,1326.7490209005566,1.001065856485288,0.0006845919800612715
1326.7559652422149,1326.7559652422149,1.001102146420062,0.0006844620311826182
1326.7629095838965,1326.7629095838965,1.0006196226287485,0.0006841402376783999
1326.769853925613,1326.769853925613,0.9985033437147797,0.0006836455744662483
1326.7767982673413,1326.7767982673413,1.0004309778078193,0.0006838419896271994
1326.783742609093,1326.783742609093,1.0015079497817483,0.0006841242411193378
1326.790686950903,1326.790686950903,0.9990224216226873,0.0006835562705743186
1326.7976312927124,1326.7976312927124,0.9990391566475845,0.0006834967379014404
1326.8045756345575,1326.8045756345575,0.9997695462223749,0.0006835904167658788
1326.8115199764247,1326.8115199764247,0.9995278046197278,0.0006834350814586702
1326.818464318316,1326.818464318316,1.0003716033227976,0.0006837670620270959
1326.8254086602306,1326.8254086602306,1.0005127976770969,0.0006836339879607572
1326.8323530021803,1326.8323530021803,1.0004430343557151,0.0006833810171930365
1326.8392973441528,1326.8392973441528,1.0007845498636612,0.000683492340833532
1326.846241686137,1326.846241686137,0.9991757463532769,0.0006831607310204328
1326.8531860281564,1326.8531860281564,1.0006444093392128,0.0006831325695802708
1326.860130370199,1326.860130370199,0.9995741473878146,0.0006828024391450712
1326.8670747122649,1326.8670747122649,0.9995316897015287,0.0006825650792048274
1326.8740190543656,1326.8740190543656,0.9993722951898864,0.0006823911651469639
1326.8809633964663,1326.8809633964663,1.0003192295512833,0.0006822341771376535
1326.8879077385905,1326.8879077385905,1.0011299171680135,0.0006820088689567772
1326.894852080749,1326.894852080749,1.0004854410174364,0.0006816856569398877
1326.9017964229201,1326.9017964229201,0.99913634653211,0.0006808602784023048
1326.9087407651255,1326.9087407651255,0.9995816475342891,0.0006804767148720429
1326.9156851073658,1326.9156851073658,1.000145663017665,0.000680042160161598
1326.9226294496063,1326.9226294496063,0.9994131256310531,0.0006793882555144109
1326.92957379187,1326.92957379187,1.0000785638985188,0.0006789818591579897
1326.936518134157,1326.936518134157,1.000194546369782,0.0006785829562626262
1326.9434624764554,1326.9434624764554,1.0004134292233506,0.0006782341092777393
1326.9504068187894,1326.9504068187894,1.000821942745913,0.000677777437779035
1326.9573511611459,1326.9573511611459,0.9997991168297947,0.0006771914285072296
1326.9642955035265,1326.9642955035265,0.9998706214492021,0.0006766836766308249
1326.9712398459064,1326.9712398459064,0.9999145150981956,0.0006762672209128958
1326.9781841883214,1326.9781841883214,0.9989895648303753,0.0006758501187936999
1326.9851285307484,1326.9851285307484,1.000010399817739,0.0006757419581411487
1326.9920728731984,1326.9920728731984,1.000035698284946,0.0006753818197602036
1326.99901721566,1326.99901721566,0.9999351925706377,0.0006751918939594072
1327.0059615581565,1327.0059615581565,0.9987765547984331,0.0006747837575923674
1327.012905900653,1327.012905900653,1.0012454193950897,0.0006751758920149236
1327.0198502431845,1327.0198502431845,1.0020062285717106,0.0006752046847193344
1327.0267945857277,1327.0267945857277,0.9998405687827214,0.00067474348723268
1327.0337389282943,1327.0337389282943,0.9989895438474559,0.0006744902196417658
1327.040683270878,1327.040683270878,0.9996591297968583,0.0006746162241706931
1327.0476276134677,1327.0476276134677,0.9999658117578083,0.0006746647321902134
1327.0545719560923,1327.0545719560923,1.0003378675464114,0.0006747635199946032
1327.0626273935463,1327.0626273935463,0.9996895325347094,0.0006745989145721737
1327.0698495099073,1327.0698495099073,0.9997110491859443,0.0006746626440302621
1327.0767938525844,1327.0767938525844,1.0004447494395818,0.0006750953773249868
