time,time,flux,flux_err
1325.3017178390555,1325.3017178390555,1.000311051866784,0.0003178514844916846
1325.3100511538457,1325.3100511538457,1.0001003538672482,0.00031795278082500885
1325.3183844686748,1325.3183844686748,0.9997766110917271,0.0003179533159449477
1325.3260233406384,1325.3260233406384,0.9997008912163929,0.0002903064461916346
1325.3329677699455,1325.3329677699455,1.000033667874696,0.000290399529725766
1325.3399121990667,1325.3399121990667,0.9996997216264767,0.00029044387629448504
1325.346856628421,1325.346856628421,1.000227350938097,0.00029055900263836264
1325.3538010577283,1325.3538010577283,0.9998580550562762,0.00029057648012255724
1325.3607454871756,1325.3607454871756,0.9998670973027235,0.0002906121346975175
1325.3676899165764,1325.3676899165764,1.0002101708138698,0.00029068999669253716
1325.3746343461162,1325.3746343461162,0.9995029683734005,0.0002906444104921138
1325.3815787757032,1325.3815787757032,1.0001890632713704,0.0002907752897190686
1325.3885232052903,1325.3885232052903,0.9998598173501984,0.00029075235288188997
1325.3954676350165,1325.3954676350165,0.9999240633136,0.0002908290447623786
1325.4024120646966,1325.4024120646966,0.9999648253214174,0.0002908523265620753
1325.4093564945165,1325.4093564945165,0.99980079061207,0.0002908571281605668
1325.4163009243823,1325.4163009243823,1.0004969247612747,0.00029097305407130986
1325.4232453542488,1325.4232453542488,1.0002662441359573,0.0002909680703079531
1325.4301897842547,1325.4301897842547,0.9997876205490146,0.0002909187853981901
1325.4371342142606,1325.4371342142606,0.999552446095327,0.0002909576135762611
1325.4440786443597,1325.4440786443597,1.0000327234249304,0.00029105546395256866
1325.4510230745052,1325.4510230745052,1.0006147963988883,0.00029117798082561256
1325.4579675046045,1325.4579675046045,1.0000082702449753,0.0002910979959411972
1325.4649119348896,1325.4649119348896,1.0001997848564945,0.00029113264883226834
1325.471856365175,1325.471856365175,0.9999923347261424,0.00029116058455336014
1325.4788007954605,1325.4788007954605,0.9997788885650023,0.00029113858332522615
1325.4857452259787,1325.4857452259787,0.99984630893391,0.0002911986018470256
1325.492689656357,1325.492689656357,0.9997722976965194,0.00029117472536349675
1325.4996340868754,1325.4996340868754,0.9999648232122557,0.00029124160239632724
1325.5065785174397,1325.5065785174397,1.000275547426373,0.0002912794774609968
1325.5135229480516,1325.5135229480516,1.000371847790213,0.0002913290206702539
1325.5204673787093,1325.5204673787093,0.9998182858530991,0.0002912985499329257
1325.5274118094135,1325.5274118094135,1.0003531309533504,0.0002914126618490078
1325.5343562401645,1325.5343562401645,0.999868829610261,0.0002913781780834076
1325.5413006710085,1325.5413006710085,0.9999298013317699,0.0002914446069734103
1325.548245101853,1325.548245101853,0.9999481732214319,0.0002914938534646065
1325.5551895327433,1325.5551895327433,0.9997462790877153,0.00029148612468125293
1325.5621339637278,1325.5621339637278,1.0001978652444707,0.0002915890101795295
1325.569078394758,1325.569078394758,0.999821525246033,0.0002916004897765186
1325.5760228258346,1325.5760228258346,0.9998818795282848,0.00029165274166239425
1325.5829672568655,1325.5829672568655,1.0001238612881855,0.00029171627580157485
1325.5899116880819,1325.5899116880819,1.000447852552448,0.00029179042285863526
1325.596856119252,1325.596856119252,1.000004955157239,0.00029175943055629336
1325.6038005505152,1325.6038005505152,0.9996207077260939,0.00029173724340341724
1325.6107449818248,1325.6107449818248,1.0001185225095488,0.00029180754625825314
1325.6176894131816,1325.6176894131816,1.0000020257998412,0.00029180682103086073
1325.624633844491,1325.624633844491,0.9996059268393577,0.0002917805518251065
1325.6315782759407,1325.6315782759407,1.000167987760586,0.0002918407547032793
1325.6385227073902,1325.6385227073902,0.99988828696644,0.00029182535163256677
1325.6454671390725,1325.6454671390725,1.0001736475278817,0.0002918814992921706
1325.6524115705222,1325.6524115705222,0.9999139264889487,0.00029185573760993764
1325.6593560022043,1325.6593560022043,1.000621216522749,0.0002919178601668722
1325.66630043384,1325.66630043384,0.999795127148565,0.000291876461682139
1325.6732448655223,1325.6732448655223,0.9996751878137312,0.00029185329040553486
1325.680189297298,1325.680189297298,1.0007094031765464,0.00029196538819365825
1325.6871337290734,1325.6871337290734,1.0001277078202213,0.0002919840427948511
1325.694078160942,1325.694078160942,0.9990966328267689,0.00029183316361310627
1325.7010225928107,1325.7010225928107,0.9949057171871083,0.0002913302553836283
1325.7079670247258,1325.7079670247258,0.9922643946996988,0.0002910139449294581
1325.714911456641,1325.714911456641,0.9915763914876665,0.0002909642871558373
1325.7218558886957,1325.7218558886957,0.9912278934286265,0.0002909490110195882
1325.728800320704,1325.728800320704,0.9910399840050644,0.0002909548801497897
1325.7357447527588,1325.7357447527588,0.9908735393951706,0.00029094524870417154
1325.7426891849068,1325.7426891849068,0.9908905710372495,0.0002909800044249648
1325.7496336170548,1325.7496336170548,0.9903016113961399,0.0002909475100457782
1325.7565780492496,1325.7565780492496,0.9903302033514929,0.0002910215635042061
1325.7635224814906,1325.7635224814906,0.9907315461980148,0.0002911011455700484
1325.7704669137315,1325.7704669137315,0.9901113257320138,0.00029105931244926967
1325.7774113460657,1325.7774113460657,0.9901801702312364,0.0002911069460610408
1325.7843557784,1325.7843557784,0.9906369687317536,0.00029121518959711345
1325.791300210781,1325.791300210781,0.9902445284092224,0.00029122054390415166
1325.7982446432084,1325.7982446432084,0.9897286785419794,0.00029120611621857916
1325.8051890756822,1325.8051890756822,0.9901872934670433,0.0002912724255358713
1325.8121335080634,1325.8121335080634,0.9912302659190375,0.00029145744249526185
1325.8190779406764,1325.8190779406764,0.9905453872620962,0.0002913749987141426
1325.8260223732905,1325.8260223732905,0.9906031739159186,0.0002914204144354792
1325.832966805904,1325.832966805904,0.9907779445629092,0.00029145703206025236
1325.8399112385177,1325.8399112385177,0.9909062985161906,0.0002915418818317099
1325.8468556711314,1325.8468556711314,0.9914958734731567,0.0002916326927944335
1325.8538001037446,1325.8538001037446,0.9911880689694967,0.00029156507621139205
1325.8607445365449,1325.8607445365449,0.992584871245364,0.0002917606589604804
1325.8676889692515,1325.8676889692515,0.9960687210887794,0.0002921844558417456
1325.8746334020518,1325.8746334020518,0.9995644177476712,0.0002926328208210314
1325.8815778348983,1325.8815778348983,1.0000005091668938,0.00029263452794176426
1325.8885222676981,1325.8885222676981,1.0002724647277579,0.00029264802954686784
1325.8954667006376,1325.8954667006376,1.0002383297871138,0.00029261875877610865
1325.9024111335307,1325.9024111335307,1.0001193603838612,0.00029259929467467983
1325.9093555664238,1325.9093555664238,1.000359615552579,0.0002925982170315879
1325.9162999994564,1325.9162999994564,1.0000220230397923,0.00029250322233495367
1325.9232444324425,1325.9232444324425,1.0004495612111397,0.00029257827066133963
1325.9301888654757,1325.9301888654757,0.9999235153469925,0.00029251826403070476
1325.937133298508,1325.937133298508,1.0001860467738257,0.00029249150597691746
1325.944077731634,1325.944077731634,0.9998739763865163,0.0002924500220236902
1325.9510221647135,1325.9510221647135,1.0001332840786548,0.0002925132668877489
1325.9579665978858,1325.9579665978858,0.9992015152588462,0.00029241175378229284
1325.9657443630654,1325.9657443630654,1.0001012664532212,0.00029256732446059254
1325.9732443509397,1325.9732443509397,0.9999255500876775,0.0002925507228249066
1325.9801887841122,1325.9801887841122,1.0003700163671183,0.00029260926016368664
1325.9871332173775,1325.9871332173775,0.9998763950762555,0.0002925728387551597
1325.9940776506432,1325.9940776506432,1.0001393888263974,0.00029260369483757236
1326.0010220839556,1326.0010220839556,0.9997917898676885,0.0002926151495287433
1326.0079665172675,1326.0079665172675,0.9998204580283379,0.0002926246028852893
1326.0149109506265,1326.0149109506265,1.000043961214197,0.00029270735358741116
1326.0218553840316,1326.0218553840316,1.0003570851940364,0.00029278994132164325
1326.0287998173903,1326.0287998173903,0.9999092357444967,0.00029277907344789876
1326.0357442508423,1326.0357442508423,1.0001611939151909,0.0002928709436413367
1326.0426886842938,1326.0426886842938,0.9995730439295711,0.00029276812099167875
1326.049633117746,1326.049633117746,1.0002408940591967,0.00029289151400860183
1326.0565775512441,1326.0565775512441,0.9997603196752454,0.00029284774095430664
1326.0635219847893,1326.0635219847893,0.9996082106027284,0.00029282729954442524
1326.0704664182879,1326.0704664182879,1.0001641180432566,0.0002929318772430016
1326.077410851879,1326.077410851879,0.9998035381190993,0.00029290633706415025
1326.0843552854244,1326.0843552854244,0.9997879269940297,0.0002929323810994021
1326.0912997190621,1326.0912997190621,1.0005484488573066,0.000293033296627986
1326.0982441527008,1326.0982441527008,1.000057609528111,0.0002930061682889625
1326.1051885862921,1326.1051885862921,0.9999349701852559,0.0002929924704293417
1326.112133020023,1326.112133020023,0.9997289153290524,0.0002929840382358944
1326.1190774536149,1326.1190774536149,1.0004787402712796,0.00029308026977341057
1326.1260218873456,1326.1260218873456,0.9999653463590082,0.0002930210399321354
1326.132966321124,1326.132966321124,0.9999370325373282,0.00029304142254530134
1326.1399107549016,1326.1399107549016,0.999455939275259,0.0002929852505948314
1326.1468551886794,1326.1468551886794,0.9999505224515299,0.000293053046920978
1326.1537996224574,1326.1537996224574,1.0003588324021275,0.0002931218572706888
1326.1607440562352,1326.1607440562352,0.9998499157866408,0.0002930823841359768
1326.167688490013,1326.167688490013,1.000097015564838,0.0002931121764700531
1326.1746329237908,1326.1746329237908,1.000081604018601,0.000293146289755749
1326.1815773575686,1326.1815773575686,1.0005192998742993,0.000293179196304907
1326.1885217915324,1326.1885217915324,0.9997422236994268,0.0002931072551707522
1326.1954662253565,1326.1954662253565,1.000133452143541,0.00029313458161839203
1326.202410659228,1326.202410659228,0.9999418481095566,0.00029311281964534047
1326.2093550931452,1326.2093550931452,0.99944169968604,0.0002930604436239367
1326.2162995271096,1326.2162995271096,0.9996952721653185,0.0002930700013495708
1326.2232439610268,1326.2232439610268,0.9999699823773025,0.00029313963617346556
1326.2301883949444,1326.2301883949444,1.0000716793073097,0.0002931530870273333
1326.237132828955,1326.237132828955,1.0003233724167822,0.00029317122070890715
1326.2440772629188,1326.2440772629188,1.000731299397841,0.000293232691474586
1326.2510216969301,1326.2510216969301,1.0000886607089983,0.0002931527063878258
1326.2579661309403,1326.2579661309403,0.9997778207189633,0.00029313604674398086
1326.2649105649512,1326.2649105649512,0.9997416915439985,0.0002931361777226925
1326.2718549989618,1326.2718549989618,0.9992981399182828,0.00029305405341264795
1326.2787994330654,1326.2787994330654,1.0005032803259117,0.0002932134659705192
1326.2857438670765,1326.2857438670765,1.0000651540036614,0.00029313148734742454
1326.29268830118,1326.29268830118,1.0000412894898483,0.00029313284169122695
1326.299632735237,1326.299632735237,0.9999088637722083,0.0002931784387639602
1326.3065771693407,1326.3065771693407,0.9997382401563735,0.00029315066582785677
1326.3135216034448,1326.3135216034448,1.0000073985108904,0.00029318813840541517
1326.3204660375486,1326.3204660375486,1.0004118113507598,0.0002932208216317569
1326.3274104716988,1326.3274104716988,0.9994644223940863,0.00029314345191494887
1326.3343549058495,1326.3343549058495,1.000344140999635,0.00029325129261178546
1326.341299339953,1326.341299339953,1.00044596947948,0.0002933175412672107
1326.3487993288986,1326.3487993288986,1.0000538391795488,0.0002932919603558742
1326.3579659819509,1326.3579659819509,0.999764200561455,0.0002932845871425563
1326.3649104161482,1326.3649104161482,0.9999353186954767,0.00029327023283646765
1326.3718548503914,1326.3718548503914,1.0000286885228977,0.0002933223039682312
1326.3787992845416,1326.3787992845416,0.9995870175380158,0.000293306902412541
1326.385743718785,1326.385743718785,1.0000040015663991,0.00029339770351757377
1326.392688152982,1326.392688152982,1.0003887177328774,0.0002933956760566092
1326.3996325872254,1326.3996325872254,0.999628977650743,0.00029336740049573445
1326.406577021469,1326.406577021469,1.0000813201756125,0.0002934445495350065
1326.4135214557127,1326.4135214557127,1.0001624655613401,0.0002934776792312017
1326.4204658899562,1326.4204658899562,1.0002610573837045,0.0002934625108120429
1326.4274103241994,1326.4274103241994,0.9998092469999851,0.0002933968898885648
1326.4343547584895,1326.4343547584895,0.9998403727660057,0.0002934745340907953
1326.4412991927795,1326.4412991927795,1.0000444480917525,0.00029349423850737514
1326.4482436270232,1326.4482436270232,0.9999039808101526,0.0002934950707621522
1326.455188061313,1326.455188061313,0.999911186565873,0.0002935156065816637
1326.4621324956497,1326.4621324956497,1.0003467640716441,0.0002935541282119417
1326.469076929893,1326.469076929893,0.9999743809197413,0.0002935182251539376
1326.4760213642298,1326.4760213642298,1.000083413563909,0.00029356725420467397
1326.4829657984735,1326.4829657984735,1.0001303364741656,0.0002935565275837816
1326.4899102328563,1326.4899102328563,0.9999238175708409,0.00029358487059703115
1326.4968546671466,1326.4968546671466,0.9997296481809915,0.0002935556681884979
1326.5037991014365,1326.5037991014365,0.9999555504338937,0.00029360258964321903
1326.5107435358195,1326.5107435358195,1.0000562936601363,0.00029365531879102123
1326.5176879701562,1326.5176879701562,0.9997898616937645,0.0002936351661517434
1326.5246324045397,1326.5246324045397,1.0000481548278952,0.000293710180711181
1326.5315768387832,1326.5315768387832,1.0002151711005283,0.0002937758638084003
1326.5385212731194,1326.5385212731194,0.9999189576226117,0.00029377624543510105
1326.545465707503,1326.545465707503,1.0001224072586,0.0002938337639136606
1326.5524101418393,1326.5524101418393,1.0000723437903678,0.00029383380847331257
1326.5593545762224,1326.5593545762224,1.00014648091489,0.0002938732197119631
1326.566299010559,1326.566299010559,0.9997510833297101,0.0002938536864071113
1326.5732434449424,1326.5732434449424,0.9998464844596079,0.00029383431667178263
1326.5801878792793,1326.5801878792793,0.9999032222201578,0.0002938837622964002
1326.5871323136619,1326.5871323136619,0.999833950617975,0.00029385534438467224
1326.5940767479988,1326.5940767479988,0.9999761381085914,0.0002939220751401204
1326.6010211823818,1326.6010211823818,1.0000846524301512,0.0002939405942099243
1326.6079656168117,1326.6079656168117,1.0003149363250128,0.0002939718035985599
1326.6149100511952,1326.6149100511952,1.0001322307256835,0.0002939427692507544
1326.6218544855778,1326.6218544855778,1.0002726831803763,0.0002939563367167138
1326.6287989199147,1326.6287989199147,0.9994344187741155,0.0002938908888738356
1326.6357433542976,1326.6357433542976,1.0002105833609654,0.0002939409016675394
1326.6426877886345,1326.6426877886345,1.0001451620430077,0.00029397344745243383
1326.6496322230173,1326.6496322230173,0.9998939520558439,0.00029391043505621277
1326.656576657494,1326.656576657494,0.9997100233627044,0.00029390064010626795
1326.6635210918307,1326.6635210918307,1.0002552865667056,0.0002939455687731058
1326.6704655262133,1326.6704655262133,0.9998749028773787,0.00029389186909514173
1326.6774099605504,1326.6774099605504,1.0000917556620323,0.0002939249823145479
1326.6843543949335,1326.6843543949335,0.9999199106316418,0.00029385882882343185
1326.6924099388143,1326.6924099388143,0.9998670364828774,0.0002938330725969397
1326.6996321506415,1326.6996321506415,1.0002722218177178,0.00029384928687939047
1326.7065765849782,1326.7065765849782,1.0001838598730193,0.0002938426889392895
1326.71407657411,1326.71407657411,1.000064888018659,0.00029381591111380897
1326.7218543405934,1326.7218543405934,0.9995059542141995,0.0002937067567636445
1326.72879877493,1326.72879877493,0.9999167482072024,0.0002937500266483333
1326.7357432093131,1326.7357432093131,1.0004028195753358,0.00029375526547231425
1326.7426876437432,1326.7426876437432,0.9994253347525799,0.00029365114747195145
1326.7496320781258,1326.7496320781258,1.000627450712117,0.0002938038562037841
1326.7565765125087,1326.7565765125087,0.9998755181204899,0.0002937280455722692
1326.7635209468458,1326.7635209468458,0.9996007364425192,0.0002936645950664991
1326.770465381229,1326.770465381229,1.0002681231027966,0.00029373160176876035
1326.7774098155655,1326.7774098155655,1.0001766897324018,0.00029371107258683747
1326.7843542499488,1326.7843542499488,0.9998914853167984,0.0002936606475740163
1326.7912986842853,1326.7912986842853,1.0002041702496633,0.000293697798244489
1326.7982431186686,1326.7982431186686,0.9999861404191467,0.0002937083905804157
1326.8051875529586,1326.8051875529586,0.9997579264283765,0.0002936679733894568
1326.8121319872484,1326.8121319872484,0.9994676811797591,0.0002936442867434305
1326.8190764216317,1326.8190764216317,1.0001084069430521,0.0002937072565675022
1326.8260208559682,1326.8260208559682,0.9999313606471143,0.00029369519113405494
1326.8329652903515,1326.8329652903515,1.0005159860175632,0.00029374252602515913
1326.8399097246881,1326.8399097246881,1.0001560427202094,0.00029370223670443894
1326.8468541589316,1326.8468541589316,1.0003173306677433,0.00029371358041408677
1326.8537985933149,1326.8537985933149,0.9995894179946209,0.0002936202594189422
1326.8607430276516,1326.8607430276516,0.9996502232911221,0.0002936103549763718
1326.8676874618952,1326.8676874618952,1.0001696070389225,0.00029365194563293944
1326.874631896278,1326.874631896278,1.0003625363190791,0.0002936636775105637
1326.8815763305215,1326.8815763305215,0.9996202215308477,0.00029354862488975174
1326.8885207648582,1326.8885207648582,1.000267549017511,0.0002935814311009912
1326.8954651991014,1326.8954651991014,1.0001366996200864,0.0002935573137301978
1326.9024096334385,1326.9024096334385,0.9996727550973346,0.0002934545750265569
1326.9093540677281,1326.9093540677281,1.0002581288117323,0.00029348432196078225
1326.9162985019716,1326.9162985019716,0.9999599851252607,0.0002933957970430662
1326.9232429362619,1326.9232429362619,0.9995657297023073,0.00029331155920186237
1326.9301873705053,1326.9301873705053,0.9999674259254491,0.000293283508579017
1326.9371318047956,1326.9371318047956,1.0001960130949916,0.00029326398117139835
1326.9440762390388,1326.9440762390388,1.000180675120327,0.0002932076325380487
1326.9510206732825,1326.9510206732825,0.9996269746828151,0.00029307326308388647
1326.957965107526,1326.957965107526,1.0002568852967104,0.00029312985897184585
1326.9649095417694,1326.9649095417694,0.9999851368810801,0.0002930728128331903
1326.9718539759663,1326.9718539759663,1.0005548640434532,0.00029310601489817943
1326.9787984102095,1326.9787984102095,0.999930650982883,0.00029299361231762994
1326.985742844407,1326.985742844407,0.9998903032285742,0.0002929500493956311
1326.9926872786032,1326.9926872786032,0.9997507295053744,0.00029291203890755474
1326.9996317128007,1326.9996317128007,0.9998492211978919,0.0002929089548632296
1327.006576147044,1327.006576147044,1.0003803602578132,0.00029295492980728764
1327.0135205811944,1327.0135205811944,0.9997866476695776,0.00029290246201343505
1327.0204650153448,1327.0204650153448,0.9998763768104013,0.0002929413408687867
1327.0274094495414,1327.0274094495414,1.000285328329757,0.0002929428229706561
1327.0343538836921,1327.0343538836921,1.0002911999801798,0.0002929680158598049
1327.041298317842,1327.041298317842,1.000091779011988,0.00029294443032036447
1327.0482427520394,1327.0482427520394,1.0001396197793082,0.00029296273565562313
1327.0551871860964,1327.0551871860964,1.0003326866720934,0.0002929640235540878
1327.0629649523935,1327.0629649523935,0.9994321345519115,0.00029288244368873246
