time,time,flux,flux_err
1354.114342151698,1354.114342151698,1.0000225192103898,0.00040942351065533937
1354.1231386206255,1354.1231386206255,0.9995068914743576,0.00040942885550084354
1354.1314721176807,1354.1314721176807,1.0002257791287192,0.000409496220659704
1354.139111156795,1354.139111156795,1.0003234564331103,0.0003738440371765957
1354.1460557379369,1354.1460557379369,1.0006265383624606,0.0003739421367783914
1354.1530003192008,1354.1530003192008,1.0002046639006683,0.00037386720222084803
1354.1599449005814,1354.1599449005814,0.999422326932707,0.000373755784855357
1354.1668894820668,1354.1668894820668,1.000110571112438,0.0003738603877814413
1354.1738340636687,1354.1738340636687,0.999394670744941,0.0003737120190175071
1354.180778645375,1354.180778645375,0.9998514406727355,0.00037378442378256866
1354.1877232271984,1354.1877232271984,1.0000188708348132,0.00037378068037486164
1354.1946678091201,1354.1946678091201,1.0002495171869392,0.00037387271697431783
1354.2016123911467,1354.2016123911467,1.000459708443207,0.0003738847313322519
1354.2085569732783,1354.2085569732783,1.0003044179993423,0.00037387459046559727
1354.2155015555315,1354.2155015555315,0.9998404894526928,0.00037377314397600374
1354.2224461378669,1354.2224461378669,0.9994382953736723,0.0003737015714345555
1354.229390720301,1354.229390720301,1.0000611301685285,0.00037377888270084196
1354.236335302834,1354.236335302834,0.9997007098575456,0.0003737029703370641
1354.243279885472,1354.243279885472,1.0002599216484174,0.0003737699728662026
1354.250224468203,1354.250224468203,0.9999840224106766,0.0003737881137820064
1354.2571690510151,1354.2571690510151,1.00003183490024,0.0003737146359376053
1354.2641136339385,1354.2641136339385,1.0001923561632082,0.0003737923359947841
1354.2710582169486,1354.2710582169486,0.999877235807077,0.00037369581257388096
1354.2780028000348,1354.2780028000348,1.0005243289091936,0.00037378852373630043
1354.2849473832198,1354.2849473832198,0.9998505081872133,0.000373684237555741
1354.2918919665037,1354.2918919665037,1.0002205742493873,0.0003737733651965541
1354.2988365498456,1354.2988365498456,0.9999366994433789,0.0003737141460687914
1354.305781133287,1354.305781133287,0.999753709027883,0.0003737144508881282
1354.3127257168096,1354.3127257168096,0.9991253820413126,0.0003736248428930961
1354.3196703004137,1354.3196703004137,1.0002759653033981,0.00037375274309513033
1354.326614884099,1354.326614884099,1.00023261254023,0.0003737801430166154
1354.3335594678663,1354.3335594678663,1.0003129198630247,0.00037378053189775424
1354.3405040517089,1354.3405040517089,0.9998346260407793,0.0003736708500435175
1354.3474486356274,1354.3474486356274,0.9997657528022023,0.0003736565796581731
1354.3543932196155,1354.3543932196155,1.0001694153298462,0.00037369662559525097
1354.3613378036912,1354.3613378036912,1.0000942601244593,0.00037364931281648326
1354.3682823878366,1354.3682823878366,1.0004728222549386,0.00037372988661361515
1354.375226972046,1354.375226972046,0.9996022464408789,0.0003735635681401091
1354.3821715563251,1354.3821715563251,0.9998760321663518,0.0003736368515131718
1354.3891161406802,1354.3891161406802,1.0000165500914815,0.0003736531018540052
1354.3960607251051,1354.3960607251051,0.999912701803613,0.00037360340766580906
1354.403005309588,1354.403005309588,1.0003998854132685,0.00037372730153805995
1354.4099498941412,1354.4099498941412,0.9999150973422797,0.00037361646831901997
1354.416894478758,1354.416894478758,0.9994654823049934,0.00037354444666051485
1354.423839063445,1354.423839063445,1.000075594742026,0.00037367311980706253
1354.4307836481894,1354.4307836481894,1.0002224761793108,0.00037370630249646284
1354.4377282329926,1354.4377282329926,1.0000451808593223,0.0003736964618403356
1354.44467281786,1354.44467281786,1.0004709138206087,0.0003737548598122597
1354.451617402791,1354.451617402791,0.9998937623053351,0.00037363223860665287
1354.458561987769,1354.458561987769,1.0000544784407301,0.0003736683493179933
1354.4655065728166,1354.4655065728166,0.9993126252011691,0.00037349875996403484
1354.4724511579104,1354.4724511579104,0.9997557876980672,0.0003736470215418172
1354.4793957430634,1354.4793957430634,1.0000963303413046,0.0003736567130046332
1354.4863403282739,1354.4863403282739,1.0001642046589911,0.0003736588986200785
1354.4932849135425,1354.4932849135425,0.999618610973655,0.00037356683729439157
1354.5002294988467,1354.5002294988467,1.00125944642509,0.0003737969724853379
1354.50717408422,1354.50717408422,0.9995733587108736,0.00037358672704076784
1354.5141186696342,1354.5141186696342,1.0003889818366323,0.00037371370460070305
1354.5210632550954,1354.5210632550954,0.9999540786555075,0.00037359070687999343
1354.5280078406086,1354.5280078406086,0.9998382245785571,0.00037365345568742225
1354.5349524261742,1354.5349524261742,0.9994275165673965,0.0003735179476629642
1354.5418970117867,1354.5418970117867,1.0000721392434324,0.00037360338148343514
1354.5488415974394,1354.5488415974394,0.9996727072181848,0.00037353245442593274
1354.555786183151,1354.555786183151,1.0000396750336835,0.0003736101496406581
1354.5627307688908,1354.5627307688908,1.0004500062163557,0.00037370880015605534
1354.5696753546777,1354.5696753546777,0.9998257612106294,0.00037354085375760867
1354.5766199405111,1354.5766199405111,1.0000203295917394,0.0003736040608825888
1354.5835645263796,1354.5835645263796,1.000503409343121,0.00037363015467112824
1354.5905091122947,1354.5905091122947,0.9995504088943852,0.0003734747817906846
1354.5974536982562,1354.5974536982562,1.0001973655958156,0.00037357019163853776
1354.6043982842464,1354.6043982842464,0.9999128256534565,0.0003735481452639774
1354.6113428702781,1354.6113428702781,0.9999365444499272,0.00037356065716250805
1354.61828745635,1354.61828745635,0.9994200094200536,0.0003734759193490026
1354.625232042463,1354.625232042463,1.0009551373817858,0.0003737205394264734
1354.6321766286108,1354.6321766286108,1.0006446552768415,0.0003736311086382784
1354.6391212147876,1354.6391212147876,0.9995550654126554,0.00037348937406704065
1354.6460658010053,1354.6460658010053,0.9993493808670092,0.00037345261190733776
1354.653010387252,1354.653010387252,1.0001380737883256,0.00037355495792917664
1354.6599549735336,1354.6599549735336,0.9995180288918271,0.0003734761141432311
1354.6668995598561,1354.6668995598561,1.0000266089495111,0.0003735401314132026
1354.6738441461898,1354.6738441461898,1.0001284709909002,0.0003735542091715192
1354.680788732582,1354.680788732582,1.0001065965905422,0.00037353977401129005
1354.687733318992,1354.687733318992,0.9999835916586207,0.0003735348233716286
1354.6946779054365,1354.6946779054365,1.000238216945526,0.00037355318226226414
1354.7016224919046,1354.7016224919046,1.0001063250271174,0.00037353220193493366
1354.7085670784134,1354.7085670784134,1.0000522905037132,0.00037354080705401
1354.7155116649276,1354.7155116649276,0.9999193311838317,0.0003735070397255802
1354.7224562514832,1354.7224562514832,1.000371627740846,0.0003735726982332982
1354.7294008380672,1354.7294008380672,0.9999640564048958,0.00037354663494556324
1354.736345424675,1354.736345424675,0.9998009048560966,0.00037352006111846133
1354.7432900113056,1354.7432900113056,0.9996637340234569,0.00037349746386853666
1354.7502345979656,1354.7502345979656,0.9996353691620092,0.0003735019145843239
1354.7571791846487,1354.7571791846487,1.0003156448473114,0.0003736046611615906
1354.7641237713556,1354.7641237713556,0.9998270762933352,0.00037352191928966244
1354.7710683580851,1354.7710683580851,1.0000808273264625,0.00037359704477531663
1354.7780129448442,1354.7780129448442,1.0000909485655134,0.0003735937091804912
1354.7849575316147,1354.7849575316147,1.0003264227255868,0.0003735808982906537
1354.7919021184202,1354.7919021184202,1.0001415687127853,0.0003735759999835556
1354.7988467052317,1354.7988467052317,0.9996873469802541,0.00037351247735469543
1354.8057912920722,1354.8057912920722,0.9999379455513958,0.0003734793531857916
1354.8127358789302,1354.8127358789302,0.9998573935067911,0.00037349013193056384
1354.8196804658112,1354.8196804658112,0.9998579700172099,0.00037347562960529185
1354.8266250527097,1354.8266250527097,1.0002207129180758,0.00037354392959680697
1354.8335696396261,1354.8335696396261,1.0000202397816627,0.0003735487607278953
1354.8405142265535,1354.8405142265535,1.0004203094326707,0.0003735772954377221
1354.8474588135048,1354.8474588135048,0.9995309090703717,0.0003734155599145354
1354.8544034004792,1354.8544034004792,0.9999882291313458,0.00037350530519644363
1354.861347987465,1354.861347987465,1.0001388547744705,0.0003735583259949595
1354.8682925744688,1354.8682925744688,1.0000643994285636,0.00037353057010750337
1354.8752371614835,1354.8752371614835,0.9998892971499374,0.00037347432974464516
1354.8821817485161,1354.8821817485161,1.0001990923832997,0.00037351461382280967
1354.889126335566,1354.889126335566,0.9997236539026424,0.00037343283431123765
1354.8960709226278,1354.8960709226278,0.9998303614313906,0.00037344550385089365
1354.9030155096953,1354.9030155096953,1.0001772057196612,0.0003735206860990752
1354.9099600967918,1354.9099600967918,1.000098907446563,0.00037348683440413327
1354.916904683888,1354.916904683888,0.9998581413932625,0.000373430957045865
1354.923849271008,1354.923849271008,1.0005198787069114,0.0003735444676114031
1354.9310716416178,1354.9310716416178,0.9996188988525017,0.00037343155232927533
1354.9391273626964,1354.9391273626964,1.0000550751929975,0.0003734920782530447
1354.946071949851,1354.946071949851,0.9999400256948711,0.00037345364965270093
1354.9530165370174,1354.9530165370174,1.000171469171611,0.00037348445698529655
1354.9599611241836,1354.9599611241836,0.9997165245748245,0.00037341538053707547
1354.9669057113738,1354.9669057113738,0.9998646108493906,0.0003734283689976573
1354.973850298563,1354.973850298563,0.9999221595995712,0.0003734723287649115
1354.9807948857647,1354.9807948857647,1.0000228550789483,0.0003734813481754584
1354.9877394729715,1354.9877394729715,1.0005193216013306,0.0003735375878410474
1354.9946840601906,1354.9946840601906,1.000417914244437,0.0003736011584537907
1355.0016286474267,1355.0016286474267,1.0001036231547082,0.0003735275990672096
1355.0085732346572,1355.0085732346572,0.9997571343899555,0.0003734813051656703
1355.0155178219052,1355.0155178219052,0.999608966821836,0.00037351745269918377
1355.022462409153,1355.022462409153,0.9996636475504316,0.00037347390791961626
1355.029406996401,1355.029406996401,0.9999135289335965,0.0003734955995456187
1355.0363515836664,1355.0363515836664,1.0004201220018054,0.00037360185599692524
1355.0432961709316,1355.0432961709316,0.9995980289687454,0.0003734608533495279
1355.0502407582087,1355.0502407582087,0.9997372397224176,0.00037350974960814303
1355.0571853454917,1355.0571853454917,1.0004868167272345,0.000373582361346232
1355.0641299327685,1355.0641299327685,1.000034208840481,0.0003734899219854128
1355.0710745200627,1355.0710745200627,1.0000158091554638,0.0003735227089061711
1355.0780191073513,1355.0780191073513,1.000062445509291,0.0003734874135526636
1355.0849636946518,1355.0849636946518,0.9998408561280243,0.0003734163219114278
1355.0919082819578,1355.0919082819578,1.0002778568708393,0.0003735283446043657
1355.0988528692583,1355.0988528692583,1.0001325310965705,0.00037351714155837653
1355.1057974565701,1355.1057974565701,0.9999138139126705,0.00037346331152359353
1355.1127420438766,1355.1127420438766,0.9995964753522832,0.00037341433102158707
1355.1196866311882,1355.1196866311882,1.0005430158758564,0.00037358967755352193
1355.1266312185057,1355.1266312185057,0.9997711009580966,0.0003734458688683679
1355.1335758058297,1355.1335758058297,1.0003680086995392,0.00037355602938045617
1355.1405203931472,1355.1405203931472,0.9999734129370508,0.0003734886616960725
1355.1474649804652,1355.1474649804652,0.9992887212359232,0.00037338492849181863
1355.1544095677941,1355.1544095677941,0.9996309313877397,0.00037341803234169923
1355.1613541551123,1355.1613541551123,1.0002787296607645,0.0003735196204976473
1355.168298742436,1355.168298742436,1.0001178910303719,0.00037353206405893566
1355.1752433297593,1355.1752433297593,1.0001293734193342,0.0003735093767891942
1355.1821879170827,1355.1821879170827,1.0003675598405284,0.0003735483547636377
1355.189132504413,1355.189132504413,0.9996138198018162,0.00037342833923334045
1355.1960770917358,1355.1960770917358,1.0003546097344007,0.0003735303483509859
1355.2030216790538,1355.2030216790538,0.999862508309589,0.00037344951418731185
1355.209966266383,1355.209966266383,0.9998700949445851,0.00037338410264651487
1355.216910853701,1355.216910853701,0.9998720024435037,0.00037342633566521253
1355.223855441013,1355.223855441013,1.0003372409222098,0.00037348097348543824
1355.2308000283422,1355.2308000283422,0.9995455246480113,0.00037341604661685936
1355.23774461566,1355.23774461566,1.000740453099388,0.0003735851183256041
1355.2446892029716,1355.2446892029716,0.9997650988652695,0.00037337512946776757
1355.251633790278,1355.251633790278,1.0002237882247225,0.00037347989265081223
1355.2585783775899,1355.2585783775899,1.0000412961670282,0.00037347195578060495
1355.265522964896,1355.265522964896,0.9996983729317538,0.0003733999391762616
1355.2724675522018,1355.2724675522018,1.0006690865970715,0.0003734798867682519
1355.2794121394968,1355.2794121394968,1.0003020631210702,0.00037346492246562526
1355.286356726797,1355.286356726797,1.0001308860501124,0.00037348668960707817
1355.2933013140855,1355.2933013140855,0.9995477986171389,0.00037339642389402114
1355.30024590138,1355.30024590138,0.9994958370968423,0.00037333771785913206
1355.307190488663,1355.307190488663,0.9998917679212026,0.00037338166533643286
1355.3141350759456,1355.3141350759456,0.9997338818270348,0.00037341101601768255
1355.3210796632227,1355.3210796632227,1.0000567328102419,0.000373429041870689
1355.3280242504939,1355.3280242504939,1.0004153169327368,0.0003735285290423061
1355.3360799717236,1355.3360799717236,0.9998913852422444,0.00037347284676735807
1355.3433023424734,1355.3433023424734,1.0002695346494652,0.0003734618949133043
1355.3502469297387,1355.3502469297387,1.000088459330403,0.0003734510335716085
1355.3571915169864,1355.3571915169864,1.0002867018314057,0.0003734829388028985
1355.3641361042287,1355.3641361042287,0.999894962328207,0.00037344421680916747
1355.3710806914703,1355.3710806914703,0.9996758072016252,0.0003733773199692861
1355.3780252787012,1355.3780252787012,1.000045774188345,0.0003734600705424976
1355.3849698659255,1355.3849698659255,0.9996697983151879,0.0003733766199317546
1355.3919144531442,1355.3919144531442,1.000432613273166,0.0003734955045348756
1355.400247957806,1355.400247957806,1.0001224793559824,0.00037343607670574884
1355.4071925450069,1355.4071925450069,0.9999250688256754,0.00037347380462607435
1355.4141371322085,1355.4141371322085,0.9994313830631686,0.0003733917112219337
1355.4210817193984,1355.4210817193984,1.0000862231811423,0.0003735278791435527
1355.428026306582,1355.428026306582,0.9999849102174337,0.0003734377107795283
1355.4349708937546,1355.4349708937546,1.0009112404762066,0.0003736223088349903
1355.4419154809266,1355.4419154809266,0.9993452364339328,0.000373386926710886
1355.448860068093,1355.448860068093,0.9999341985106616,0.00037346735136041607
1355.455804655248,1355.455804655248,1.0003974511654619,0.0003735302030146886
1355.462749242391,1355.462749242391,0.999750007788996,0.00037343454538072074
1355.4696938295342,1355.4696938295342,0.9999968013245428,0.00037344087729626754
1355.47663841666,1355.47663841666,0.9999767395085813,0.0003734250787347228
1355.4835830037796,1355.4835830037796,0.9997541870040749,0.0003734035357740722
1355.4905275908998,1355.4905275908998,1.0001625415223425,0.0003734457375989005
1355.4974721779959,1355.4974721779959,0.9994720513567774,0.0003734005492825092
1355.5044167650924,1355.5044167650924,1.0000608036557326,0.0003734176961469955
1355.5113613521833,1355.5113613521833,1.0000624865306496,0.00037346002829884893
1355.5183059392566,1355.5183059392566,1.0002069161533864,0.0003734628644050151
1355.5252505263184,1355.5252505263184,0.9999833330602378,0.0003734232466364929
1355.5321951133797,1355.5321951133797,0.9998696915822494,0.0003734087323203303
1355.53913970043,1355.53913970043,0.9999160985634008,0.0003733811105685364
1355.5460842874622,1355.5460842874622,0.9999727395241006,0.0003734180033385031
1355.5530288745008,1355.5530288745008,0.9994787597086552,0.00037336096409426464
1355.5599734615103,1355.5599734615103,1.000543531934532,0.00037351404245319767
1355.5669180485193,1355.5669180485193,1.00006818312506,0.00037345752318499825
1355.573862635517,1355.573862635517,0.999970766485955,0.0003734220587625415
1355.5808072225032,1355.5808072225032,1.000262659462089,0.0003734751304090327
1355.5877518094828,1355.5877518094828,0.9998945439873094,0.00037341844189380695
1355.594696396446,1355.594696396446,1.000027475625433,0.0003734296902799871
1355.6016409833967,1355.6016409833967,0.9998851430170417,0.00037342356438263243
1355.608585570348,1355.608585570348,0.9995332168897452,0.0003733544009129849
1355.6155301572817,1355.6155301572817,0.9997835203949192,0.00037336806633618525
1355.6224747442034,1355.6224747442034,1.0007536304511853,0.00037352842747846954
1355.6294193311137,1355.6294193311137,1.0001987966551162,0.00037341824120786746
1355.6363639180126,1355.6363639180126,0.9998344661497154,0.00037339338776113935
1355.6433085049052,1355.6433085049052,1.0000999275499016,0.0003734544706368176
1355.650253091781,1355.650253091781,0.9996122964885096,0.00037336269285873764
1355.6571976786445,1355.6571976786445,1.0000161608923894,0.0003734275699750928
1355.6641422655023,1355.6641422655023,0.9998650473305281,0.0003733412332843085
1355.671086852343,1355.671086852343,1.0000257009264881,0.00037346491610837373
1355.6780314391656,1355.6780314391656,0.9998228786045201,0.0003733958295468769
1355.6849760259945,1355.6849760259945,1.0001840355855935,0.0003733948954015984
1355.6919206128005,1355.6919206128005,0.9995379395973367,0.00037338730989814955
1355.6988651995766,1355.6988651995766,1.000800682552809,0.0003735473518300943
1355.7058097863646,1355.7058097863646,0.9999514090579235,0.0003733412075674227
1355.7127543731299,1355.7127543731299,0.9998266202100321,0.0003733476927910781
1355.7196989598883,1355.7196989598883,1.0003887134785363,0.00037345324097765465
1355.7266435466302,1355.7266435466302,0.9994922592784088,0.0003732756069155208
1355.7335881333597,1355.7335881333597,0.9996106492684784,0.0003732943101275546
1355.7408105035443,1355.7408105035443,1.0006569045668297,0.00037350250581349753
1355.7488662241226,1355.7488662241226,1.000146004012755,0.0003734465383701957
1355.7558108107999,1355.7558108107999,1.000237860794382,0.0003734335444799029
1355.762755397489,1355.762755397489,0.9995687598219456,0.00037333646888361384
1355.7696999841494,1355.7696999841494,1.0002354319672409,0.00037346464070937
1355.7766445707853,1355.7766445707853,0.9993024618527702,0.00037328658842075664
1355.7835891574225,1355.7835891574225,1.0001828454428345,0.0003734204831373555
1355.790533744042,1355.790533744042,0.9998455964492919,0.00037340762275611076
1355.7974783306495,1355.7974783306495,0.9999863363464362,0.00037338883658305554
1355.8044229172513,1355.8044229172513,0.9997893087221307,0.00037337948514419366
1355.811367503824,1355.811367503824,1.0003282128646678,0.0003734918174234966
1355.8183120903911,1355.8183120903911,1.0003287817466398,0.0003734610636512161
1355.825256676946,1355.825256676946,1.000520405541479,0.0003735198824105177
1355.8322012634783,1355.8322012634783,1.0001815145940118,0.0003733671881927832
1355.8391458499927,1355.8391458499927,0.9994435484692851,0.00037330817346646427
1355.846090436507,1355.846090436507,0.9999796529043976,0.00037341068064930267
1355.8530350230099,1355.8530350230099,0.9999313719654321,0.00037344358390239654
1355.8599796094895,1355.8599796094895,0.9994100448760846,0.00037333445327492434
1355.8669241959517,1355.8669241959517,1.0002106895873981,0.00037343246014218156
1355.873868782414,1355.873868782414,1.0001075051941832,0.000373440529657079
