time,time,flux,flux_err
1325.2982141020066,1325.2982141020066,0.999952573573558,9.616969532509945e-05
1325.3065474412244,1325.3065474412244,1.0000204148782708,9.619668901546918e-05
1325.314880780831,1325.314880780831,1.0001024008697144,9.62073900957152e-05
1325.3225196757396,1325.3225196757396,0.9998927620538716,8.781786923519085e-05
1325.3294641258385,1325.3294641258385,0.9998910460981125,8.781973643508389e-05
1325.3364085761707,1325.3364085761707,0.9999994158148139,8.783304276139682e-05
1325.343353026666,1325.343353026666,1.0000425082821496,8.783803673430403e-05
1325.350297477487,1325.350297477487,1.0000641314718324,8.784667091205428e-05
1325.3572419284476,1325.3572419284476,0.9999910359419829,8.785069980720294e-05
1325.3641863795715,1325.3641863795715,1.000087149880094,8.786700414846639e-05
1325.3711308309744,1325.3711308309744,1.0001183829574918,8.786900027896723e-05
1325.3780752825405,1325.3780752825405,1.0001234519021214,8.787925184502379e-05
1325.3850197343395,1325.3850197343395,0.9999222160837629,8.788374973965344e-05
1325.391964186278,1325.391964186278,0.9998369242326278,8.788633619759298e-05
1325.3989086384724,1325.3989086384724,0.9997668963516304,8.789288753274904e-05
1325.4058530908537,1325.4058530908537,1.0000223046662515,8.790423068542395e-05
1325.4127975433507,1325.4127975433507,1.0000913760486243,8.791433235931986e-05
1325.4197419960813,1325.4197419960813,1.000105406957777,8.792280346399694e-05
1325.4266864489975,1325.4266864489975,0.9999474994178467,8.79255164046473e-05
1325.433630902147,1325.433630902147,0.999910533175955,8.792437463514597e-05
1325.4405753554126,1325.4405753554126,0.9999959824787574,8.792843515369677e-05
1325.447519808888,1325.447519808888,1.0001718123175771,8.794764531584484e-05
1325.454464262526,1325.454464262526,1.000010239881274,8.794615868428593e-05
1325.4614087163504,1325.4614087163504,0.9999176534417924,8.79447185305146e-05
1325.468353170338,1325.468353170338,1.0000178566433768,8.795170561419493e-05
1325.475297624512,1325.475297624512,1.000108859844562,8.795670670926066e-05
1325.4822420788485,1325.4822420788485,0.9998763973020962,8.795800923037866e-05
1325.4891865333718,1325.4891865333718,1.0000890229528516,8.797339291032043e-05
1325.4961309880578,1325.4961309880578,0.9998862781289791,8.79724391521203e-05
1325.5030754428833,1325.5030754428833,0.999822454640603,8.797560790063074e-05
1325.510019897872,1325.510019897872,1.0001910888621817,8.799476204214567e-05
1325.5169643530703,1325.5169643530703,1.0000001068659166,8.799401450370864e-05
1325.523908808385,1325.523908808385,1.0000353090098808,8.799994162745194e-05
1325.5308532638624,1325.5308532638624,1.0001089689448217,8.80131711775385e-05
1325.5377977195028,1325.5377977195028,1.000005078736994,8.801326111159761e-05
1325.5447421752604,1325.5447421752604,0.9998011455450626,8.801273735688059e-05
1325.5516866312266,1325.5516866312266,1.0000320803307279,8.802832038288836e-05
1325.55863108731,1325.55863108731,1.0000567815624528,8.803103039102376e-05
1325.5655755435557,1325.5655755435557,1.0000783110168963,8.804202793626438e-05
1325.572519999918,1325.572519999918,0.9999986180897238,8.80494077232899e-05
1325.5794644564671,1325.5794644564671,0.9999166435888261,8.804662912630857e-05
1325.5864089131783,1325.5864089131783,0.9999058426725963,8.805009233848465e-05
1325.5933533699597,1325.5933533699597,1.0000722312689079,8.806164053765858e-05
1325.6002978269742,1325.6002978269742,1.0000048157546482,8.80589703265781e-05
1325.6072422840348,1325.6072422840348,0.9998993013501399,8.805536953027226e-05
1325.614186741259,1325.614186741259,1.0000148777993914,8.806334244142727e-05
1325.6211311986222,1325.6211311986222,1.0000677978187327,8.806555975389465e-05
1325.628075656149,1325.628075656149,1.00005741500232,8.806521187262108e-05
1325.6350201137918,1325.6350201137918,1.0000587503215015,8.807058432126985e-05
1325.641964571551,1325.641964571551,1.0000407490780632,8.807099817838072e-05
1325.648909029427,1325.648909029427,1.0000705884071137,8.807689002103509e-05
1325.6558534874657,1325.6558534874657,0.9999868735225373,8.807097087946248e-05
1325.6627979456443,1325.6627979456443,0.9998365649912117,8.806624488724658e-05
1325.6697424038923,1325.6697424038923,0.9998550802371063,8.806388271660234e-05
1325.6766868622803,1325.6766868622803,0.9999224140044788,8.805960394353803e-05
1325.6836313208082,1325.6836313208082,0.9999718407053837,8.806929091138197e-05
1325.6905757794523,1325.6905757794523,1.0000951831841434,8.807651199422714e-05
1325.6975202381666,1325.6975202381666,1.000142965128626,8.808452816121476e-05
1325.70446469709,1325.70446469709,1.0000023012873689,8.807521471197801e-05
1325.7114091560597,1325.7114091560597,1.0001288738843737,8.80874149678486e-05
1325.7183536151697,1325.7183536151697,0.9999842511662873,8.807781223344236e-05
1325.7252980743958,1325.7252980743958,1.0000279562431167,8.808764317901955e-05
1325.732242533715,1325.732242533715,0.9998645456215879,8.807968322203774e-05
1325.7391869931744,1325.7391869931744,0.9999393410347114,8.80913132928962e-05
1325.7461314527259,1325.7461314527259,1.0000766457745711,8.8097435757628e-05
1325.753075912395,1325.753075912395,0.9998971499611133,8.809472653138216e-05
1325.76002037218,1325.76002037218,0.9999980330387379,8.810461713738645e-05
1325.7669648320577,1325.7669648320577,0.9999479615302616,8.810639448217624e-05
1325.7739092920292,1325.7739092920292,0.9999891629058858,8.810974205423801e-05
1325.78085375214,1325.78085375214,0.9999855500341124,8.811356253981824e-05
1325.7877982122977,1325.7877982122977,1.0002606306645498,8.812646704488682e-05
1325.794742672595,1325.794742672595,1.0000405445344023,8.812115594186533e-05
1325.8016871329853,1325.8016871329853,1.0001292153601788,8.813018257092935e-05
1325.8086315935157,1325.8086315935157,1.0001539147696064,8.813166681967798e-05
1325.8155760540685,1325.8155760540685,1.0000198011139367,8.812845910776738e-05
1325.8225205147385,1325.8225205147385,0.9998625017688758,8.811841679474276e-05
1325.8294649755246,1325.8294649755246,1.000030553868505,8.81334335318855e-05
1325.8364094364038,1325.8364094364038,0.9999191735055522,8.812970767453907e-05
1325.8433538973532,1325.8433538973532,0.999936423426113,8.812789083380672e-05
1325.8502983584647,1325.8502983584647,1.0001032628444007,8.813521052051142e-05
1325.8572428196007,1325.8572428196007,0.9999606586748113,8.812873914827787e-05
1325.8641872808057,1325.8641872808057,1.000105361475723,8.813561359492178e-05
1325.8711317421275,1325.8711317421275,0.9999577513479491,8.812522650263234e-05
1325.8780762035656,1325.8780762035656,1.0000159743775556,8.812242959240647e-05
1325.8850206650502,1325.8850206650502,0.9999059772939468,8.81124880856638e-05
1325.891965126651,1325.891965126651,1.0000470171905218,8.811596840944352e-05
1325.8989095882757,1325.8989095882757,0.9999889967087586,8.811049198927126e-05
1325.905854050086,1325.905854050086,1.0000741957288237,8.810639532665046e-05
1325.9127985118969,1325.9127985118969,1.000000381308961,8.809738920622121e-05
1325.919742973847,1325.919742973847,0.9999195219963439,8.810166158573088e-05
1325.926687435844,1325.926687435844,1.0000260952276745,8.810646042403256e-05
1325.9336318979338,1325.9336318979338,0.9999850991207898,8.809922429887835e-05
1325.940576360094,1325.940576360094,0.999972999253956,8.809347104435317e-05
1325.9475208223237,1325.9475208223237,0.9999822260463572,8.809682630806294e-05
1325.9544652846932,1325.9544652846932,1.000141239647365,8.810558661182162e-05
1325.9622430825389,1325.9622430825389,1.0000101687378429,8.810822605542433e-05
1325.9697431020315,1325.9697431020315,0.9999653462549991,8.80932408252546e-05
1325.9766875646105,1325.9766875646105,0.9999323489904007,8.809313328555863e-05
1325.9836320272357,1325.9836320272357,0.9999104874417952,8.809141592993537e-05
1325.9905764899545,1325.9905764899545,1.000065169708276,8.809576455241797e-05
1325.9975209526967,1325.9975209526967,1.0000285975693546,8.810392450341877e-05
1326.004465415578,1326.004465415578,0.9999483138874806,8.809973084303136e-05
1326.0114098784832,1326.0114098784832,0.9999605909549028,8.8106136083627e-05
1326.0183543415046,1326.0183543415046,1.0001681989339455,8.811148633191641e-05
1326.0252988045493,1326.0252988045493,0.9999965550094349,8.811110512324019e-05
1326.03224326771,1326.03224326771,0.9998739052652249,8.811207937070817e-05
1326.0391877308944,1326.0391877308944,1.000177592656276,8.811813038315943e-05
1326.046132194172,1326.046132194172,0.9999766718581677,8.811120996699587e-05
1326.053076657496,1326.053076657496,0.9999993559080508,8.811097756235646e-05
1326.0600211208432,1326.0600211208432,1.0000205513937568,8.812077790227033e-05
1326.0669655843071,1326.0669655843071,0.9998542341975855,8.811581235608357e-05
1326.0739100478866,1326.0739100478866,0.999878946028644,8.81105806371985e-05
1326.0808545114676,1326.0808545114676,1.0000008582481783,8.811813578420003e-05
1326.087798975117,1326.087798975117,1.000077212619113,8.812028228871773e-05
1326.0947434388372,1326.0947434388372,1.0000386594699475,8.811993886687005e-05
1326.1016879026035,1326.1016879026035,1.0000735884674827,8.812329936875371e-05
1326.1086323664397,1326.1086323664397,1.0001012806450666,8.812688095533227e-05
1326.1155768303227,1326.1155768303227,0.9999248272575203,8.812232578692258e-05
1326.122521294275,1326.122521294275,1.0000529640152673,8.812692294338353e-05
1326.1294657582746,1326.1294657582746,1.000008511821513,8.811894357277449e-05
1326.1364102223433,1326.1364102223433,0.9997339645038826,8.81091682730081e-05
1326.1433546864823,1326.1433546864823,1.0000332948275592,8.812189373831006e-05
1326.1502991506911,1326.1502991506911,1.0000241399751677,8.812504279328388e-05
1326.1572436149231,1326.1572436149231,0.9999562035738243,8.811942845538485e-05
1326.1641880792254,1326.1641880792254,1.000056898546305,8.812616703481786e-05
1326.1711325435733,1326.1711325435733,1.0001545789666517,8.81279934439876e-05
1326.1780770079454,1326.1780770079454,0.9998837814399261,8.812245142830958e-05
1326.1850214724102,1326.1850214724102,1.0001774571668534,8.812961001064108e-05
1326.1919659369212,1326.1919659369212,0.9999475826554699,8.811497883912193e-05
1326.1989104015265,1326.1989104015265,1.00014888130508,8.812785544988923e-05
1326.205854866154,1326.205854866154,0.9997897385312668,8.811469610005493e-05
1326.2127993307822,1326.2127993307822,0.9999510879855222,8.811999620519877e-05
1326.2197437954796,1326.2197437954796,1.0000425458747217,8.812077046206762e-05
1326.2266882602473,1326.2266882602473,0.9998613002774037,8.811715230785643e-05
1326.2336327250614,1326.2336327250614,0.9999013539795035,8.811658943333155e-05
1326.2405771899216,1326.2405771899216,1.000124333759202,8.812421810270942e-05
1326.2475216548296,1326.2475216548296,1.000118529332426,8.812189820777596e-05
1326.2544661198062,1326.2544661198062,1.0000058891612125,8.812486893208293e-05
1326.2614105848072,1326.2614105848072,0.9999760388979768,8.812082178279709e-05
1326.2683550498539,1326.2683550498539,1.000101269809083,8.812752280933363e-05
1326.2752995149706,1326.2752995149706,1.000025117484005,8.81188628734001e-05
1326.2822439800877,1326.2822439800877,0.9999650947536907,8.812336257921434e-05
1326.2891884452974,1326.2891884452974,1.000146689463713,8.812869591845002e-05
1326.2961329105306,1326.2961329105306,0.9999254822904392,8.811912563151009e-05
1326.3030773758335,1326.3030773758335,0.9999759071731524,8.812336321614902e-05
1326.3100218411369,1326.3100218411369,0.9998448908643318,8.812471897863836e-05
1326.3169663065332,1326.3169663065332,1.0000082500081588,8.813345919353792e-05
1326.323910771929,1326.323910771929,1.0000489267818047,8.813707268596365e-05
1326.3308552373958,1326.3308552373958,1.000154934583216,8.814191995998102e-05
1326.3377997029081,1326.3377997029081,1.000036146666846,8.81405064822056e-05
1326.3452997256609,1326.3452997256609,1.000186038801973,8.814358535224473e-05
1326.35446642025,1326.35446642025,1.0000269669845452,8.814106678810725e-05
1326.361410885879,1326.361410885879,0.999829806017402,8.813969215903781e-05
1326.368355351578,1326.368355351578,0.9998389622684588,8.813825796708354e-05
1326.3752998172768,1326.3752998172768,0.9998936827452459,8.815096583858752e-05
1326.382244283069,1326.382244283069,0.9999427041419079,8.814722399734095e-05
1326.389188748861,1326.389188748861,1.0000957311393561,8.815771614883325e-05
1326.396133214653,1326.396133214653,1.000174005546809,8.816431332458571e-05
1326.4030776805612,1326.4030776805612,0.9999207369347556,8.814979040984035e-05
1326.4100221464469,1326.4100221464469,1.0000054825055054,8.815843284736154e-05
1326.4169666124249,1326.4169666124249,1.000044833320575,8.816142338063983e-05
1326.423911078403,1326.423911078403,0.9998692713379764,8.815304821887702e-05
1326.4308555444045,1326.4308555444045,1.0000490974313494,8.816565417902317e-05
1326.437800010476,1326.437800010476,0.9999551577013822,8.816282226092614e-05
1326.4447444765708,1326.4447444765708,1.0000780269629201,8.817170728839161e-05
1326.4516889426889,1326.4516889426889,1.000110936777603,8.817456635691566e-05
1326.45863340883,1326.45863340883,1.000089458147324,8.817393018906626e-05
1326.4655778750644,1326.4655778750644,0.9999500550234037,8.817205017065574e-05
1326.4725223412988,1326.4725223412988,0.9998599963362901,8.816981410587659e-05
1326.479466807557,1326.479466807557,0.9998985555137786,8.817864699115689e-05
1326.4864112738608,1326.4864112738608,1.0002473943335597,8.819592111762454e-05
1326.4933557401653,1326.4933557401653,1.0000094657687861,8.818810060469805e-05
1326.5003002065391,1326.5003002065391,0.9999913220954454,8.819045159402634e-05
1326.5072446729366,1326.5072446729366,0.9999403825511299,8.818993191687282e-05
1326.5141891394037,1326.5141891394037,0.9999393215288773,8.819226149881331e-05
1326.5211336058478,1326.5211336058478,0.9996909573838163,8.818222725776396e-05
1326.5280780723383,1326.5280780723383,0.9999154917161576,8.82026471250107e-05
1326.5350225388752,1326.5350225388752,1.0000619511034206,8.81995298845109e-05
1326.5419670054357,1326.5419670054357,0.9999619977730776,8.820564855597296e-05
1326.5489114720194,1326.5489114720194,1.0001372021608084,8.82163315277894e-05
1326.5558559386263,1326.5558559386263,1.0002098193355533,8.821993930103054e-05
1326.5628004052796,1326.5628004052796,0.9999710342012413,8.821241239534797e-05
1326.5697448719566,1326.5697448719566,0.9999080374406141,8.820313207703182e-05
1326.5766893386804,1326.5766893386804,0.9999038677613485,8.820414309421791e-05
1326.5836338054032,1326.5836338054032,1.000100709143006,8.821689150556732e-05
1326.5905782721734,1326.5905782721734,1.0000375948786635,8.821861584401556e-05
1326.5975227389665,1326.5975227389665,1.000021980483586,8.822367065944821e-05
1326.604467205783,1326.604467205783,0.9999168116595383,8.821194770266755e-05
1326.6114116726462,1326.6114116726462,0.9998854136540614,8.821845793843195e-05
1326.6183561395324,1326.6183561395324,0.9999378142144266,8.822153809627273e-05
1326.6253006063955,1326.6253006063955,1.0000357824439399,8.821713338059499e-05
1326.6322450733514,1326.6322450733514,1.0000891123538875,8.82274265940099e-05
1326.6391895403078,1326.6391895403078,1.000037523643586,8.8226256428518e-05
1326.6461340072872,1326.6461340072872,1.0000404453816008,8.822647498719308e-05
1326.6530784743366,1326.6530784743366,0.9998613076176837,8.821710025997059e-05
1326.6600229413627,1326.6600229413627,1.0002879225768448,8.823013445316652e-05
1326.666967408412,1326.666967408412,1.0000488259320648,8.822161625452187e-05
1326.673911875508,1326.673911875508,0.9997885092202917,8.82061955019143e-05
1326.680856342627,1326.680856342627,1.0000704383977734,8.821395635513848e-05
1326.688911924529,1326.688911924529,0.9998733184242349,8.820632516777113e-05
1326.696134170373,1326.696134170373,0.9998238919946664,8.820455305061606e-05
1326.703078637562,1326.703078637562,1.0001553773034064,8.821499016970013e-05
1326.7105786621541,1326.7105786621541,1.0000004292841613,8.820484690317306e-05
1326.718356465471,1326.718356465471,0.9999718320421772,8.820267465020664e-05
1326.725300932753,1326.725300932753,1.00005733778892,8.819942555370363e-05
1326.7322454000353,1326.7322454000353,1.0000075088925686,8.820041514123472e-05
1326.7391898673409,1326.7391898673409,1.000009607861645,8.818748991357957e-05
1326.7461343346924,1326.7461343346924,0.9998324731147014,8.818400708121586e-05
1326.7530788020445,1326.7530788020445,1.0001572764244675,8.820687781370575e-05
1326.7600232694433,1326.7600232694433,0.9999628445627895,8.818854920714956e-05
1326.7669677368417,1326.7669677368417,1.0001629557958103,8.820160130954983e-05
1326.7739122042635,1326.7739122042635,1.0000392679323158,8.819074454256281e-05
1326.7808566717088,1326.7808566717088,0.9999830835533775,8.819738728882109e-05
1326.7878011392236,1326.7878011392236,1.000105148461327,8.82031813566161e-05
1326.7947456066688,1326.7947456066688,0.9997528430450752,8.819052412720515e-05
1326.801690074184,1326.801690074184,0.9999765259070351,8.820106190386264e-05
1326.808634541722,1326.808634541722,0.9999939318323813,8.820533575522271e-05
1326.81557900926,1326.81557900926,0.9999013004443658,8.820761811947694e-05
1326.822523476915,1326.822523476915,1.0000492721038043,8.82026908335827e-05
1326.829467944453,1326.829467944453,1.00002649008199,8.820384968023784e-05
1326.836412412108,1326.836412412108,0.9999784574195882,8.82032752300021e-05
1326.8433568797395,1326.8433568797395,0.9999647958775781,8.820139982376094e-05
1326.850301347394,1326.850301347394,1.0001499763981119,8.820549172393727e-05
1326.8572458150952,1326.8572458150952,1.0000878796887238,8.82024084661217e-05
1326.8641902827735,1326.8641902827735,0.9998866596702625,8.818700236511185e-05
1326.8711347504982,1326.8711347504982,1.0000189421921162,8.819898819984392e-05
1326.878079218222,1326.878079218222,0.9999993443004126,8.818906825904534e-05
1326.8850236859703,1326.8850236859703,1.00000568680717,8.818121668788328e-05
1326.8919681537411,1326.8919681537411,1.0000200749202832,8.8190709523773e-05
1326.8989126215588,1326.8989126215588,0.99999468375396,8.817494201289323e-05
1326.9058570893299,1326.9058570893299,1.0000195988328557,8.817921569604322e-05
1326.912801557171,1326.912801557171,1.0000941667506926,8.817207428624948e-05
1326.919746025035,1326.919746025035,0.9998726070798989,8.815359858619539e-05
1326.926690492876,1326.926690492876,0.9999207950162337,8.81624579807192e-05
1326.9336349607638,1326.9336349607638,0.999867985823425,8.814882239921166e-05
1326.940579428674,1326.940579428674,1.0000345227263352,8.814707150960383e-05
1326.9475238966083,1326.9475238966083,1.0001450869257134,8.814872775477673e-05
1326.9544683645192,1326.9544683645192,0.9999498022977324,8.814122631195306e-05
1326.9614128324768,1326.9614128324768,0.9999611869665472,8.813696341869977e-05
1326.9683573004343,1326.9683573004343,1.0000281919583798,8.813465946694497e-05
1326.9753017684143,1326.9753017684143,1.0000724872790698,8.813525720907231e-05
1326.9822462364186,1326.9822462364186,0.9999923950357893,8.811898298641785e-05
1326.9891907044225,1326.9891907044225,1.0002235483628508,8.812540202998946e-05
1326.9961351724733,1326.9961351724733,0.9998646490485663,8.810853103372644e-05
1327.0030796404767,1327.0030796404767,0.9999844327290119,8.81199823302211e-05
1327.0100241085972,1327.0100241085972,0.9998580943059097,8.810717865828682e-05
1327.0169685766245,1327.0169685766245,0.9998787278812109,8.811650871904868e-05
1327.0239130447214,1327.0239130447214,1.0000543065539536,8.811603301895665e-05
1327.030857512842,1327.030857512842,1.0000026093023027,8.812139172968835e-05
1327.0378019809618,1327.0378019809618,1.0000637977080067,8.81263805136896e-05
1327.0447464490826,1327.0447464490826,1.0000676021440025,8.8117633716287e-05
1327.0516909172725,1327.0516909172725,1.000213019903768,8.812572922795169e-05
1327.0594687216144,1327.0594687216144,1.000000608025918,8.811977543723203e-05
1327.066968747254,1327.066968747254,0.9999670866012179,8.811859889644715e-05
1327.0739132154442,1327.0739132154442,0.999765840967547,8.811959604837253e-05
1327.0808576836575,1327.0808576836575,0.9999931929814704,8.812959660114729e-05
