time,time,flux,flux_err
1385.9535255800954,1385.9535255800954,0.9999606793498526,8.680236141670285e-05
1385.9618590576822,1385.9618590576822,1.000062361527617,8.680763520824906e-05
1385.970192535191,1385.970192535191,0.9999912770239797,8.680679244577725e-05
1385.977831556186,1385.977831556186,0.9999468743606521,7.924142290165262e-05
1385.9847761206763,1385.9847761206763,1.000005007482221,7.92462143269199e-05
1385.9917206851892,1385.9917206851892,1.0000048407811875,7.924801602722853e-05
1385.9986652495854,1385.9986652495854,1.0001008912030431,7.925175037151326e-05
1386.0056098139826,1386.0056098139826,0.9999725530216435,7.925057946525191e-05
1386.0125543783324,1386.0125543783324,0.9999548827665683,7.924809577551874e-05
1386.0194989426354,1386.0194989426354,0.9999642422725705,7.92485969333861e-05
1386.0264435068932,1386.0264435068932,1.0000021700077972,7.925134817193362e-05
1386.0333880711037,1386.0333880711037,1.000065720439949,7.925405645299493e-05
1386.04033263529,1386.04033263529,1.0000393460006256,7.925412204597055e-05
1386.0472771994541,1386.0472771994541,0.9998900799302393,7.924683887578801e-05
1386.0542217635486,1386.0542217635486,1.0000500297606236,7.925106406293468e-05
1386.0611663275952,1386.0611663275952,0.9999985451920868,7.924902984305214e-05
1386.0681108916197,1386.0681108916197,0.9999690720574504,7.924956612173968e-05
1386.0750554555975,1386.0750554555975,0.9999705505696449,7.924804158703913e-05
1386.0820000195513,1386.0820000195513,1.0000329305782567,7.924940223500543e-05
1386.0889445834587,1386.0889445834587,1.000093439771546,7.925285611408901e-05
1386.0958891472972,1386.0958891472972,0.9999206171169188,7.92483430143661e-05
1386.1028337111115,1386.1028337111115,0.9999829266735485,7.924971870469756e-05
1386.1097782749257,1386.1097782749257,1.0001506081141813,7.925624592527496e-05
1386.1167228386244,1386.1167228386244,0.999984071295996,7.92474966156016e-05
1386.1236674023457,1386.1236674023457,0.9999011476247326,7.924627612916372e-05
1386.1306119659735,1386.1306119659735,0.999929988309853,7.924766059365177e-05
1386.1375565296025,1386.1375565296025,1.0001149244398349,7.925307224879234e-05
1386.1445010931843,1386.1445010931843,0.999861467336425,7.924529934666417e-05
1386.1514456567422,1386.1514456567422,1.0000945976485263,7.925428926986044e-05
1386.1583902202078,1386.1583902202078,1.0001363164517323,7.925585343173918e-05
1386.1653347836732,1386.1653347836732,0.9999011219837431,7.92451383714392e-05
1386.1722793470913,1386.1722793470913,0.9999672836391703,7.925042437178823e-05
1386.1792239104639,1386.1792239104639,1.0000354111812464,7.925047536983901e-05
1386.1861684738133,1386.1861684738133,0.999995457396456,7.924886502346349e-05
1386.1931130370917,1386.1931130370917,0.9999328868283124,7.924417605744506e-05
1386.200057600324,1386.200057600324,1.0000319409471954,7.925026994466463e-05
1386.207002163557,1386.207002163557,0.9998359565720282,7.924305527016465e-05
1386.213946726743,1386.213946726743,1.0000539258539565,7.925044857143811e-05
1386.2208912898586,1386.2208912898586,1.0001418567353013,7.925358074609632e-05
1386.2278358529518,1386.2278358529518,1.0000128171380878,7.924861012351859e-05
1386.2347804160213,1386.2347804160213,1.0000579915709102,7.925154963418622e-05
1386.2417249790203,1386.2417249790203,0.9999540747091187,7.924654737531481e-05
1386.2486695419973,1386.2486695419973,0.9999908196516367,7.924690767800401e-05
1386.2556141049276,1386.2556141049276,0.9999693831224743,7.924830035201718e-05
1386.2625586678334,1386.2625586678334,1.0000249061801811,7.925096747731688e-05
1386.2695032306704,1386.2695032306704,0.9999141712004522,7.924410885721208e-05
1386.2764477934838,1386.2764477934838,0.9999295157040464,7.924422031380378e-05
1386.2833923562505,1386.2833923562505,0.9999977944939836,7.92459448916215e-05
1386.2903369189705,1386.2903369189705,1.0000475107391638,7.924905297304231e-05
1386.2972814816214,1386.2972814816214,1.0001145853812583,7.925122551442219e-05
1386.304226044272,1386.304226044272,1.0000490725628652,7.924963112130775e-05
1386.3111706069215,1386.3111706069215,0.9999167585232975,7.924471121395442e-05
1386.3181151695026,1386.3181151695026,1.0000435044389904,7.925080675211123e-05
1386.325059732037,1386.325059732037,1.0000864724341425,7.9253756503578e-05
1386.3320042945236,1386.3320042945236,0.999955636905486,7.924743358252573e-05
1386.338948856965,1386.338948856965,0.9999419856980707,7.924444977469892e-05
1386.3458934193827,1386.3458934193827,0.9998702959877954,7.924335202955297e-05
1386.352837981753,1386.352837981753,0.9999850495096136,7.924590932690119e-05
1386.3597825440545,1386.3597825440545,1.0001131952337587,7.925433640526654e-05
1386.3675604538046,1386.3675604538046,0.9999622642718832,7.924919520771348e-05
1386.375060581047,1386.375060581047,1.0001107038470327,7.925535163190254e-05
1386.3820051432322,1386.3820051432322,0.9999379533786439,7.924680276225108e-05
1386.3889497053938,1386.3889497053938,1.0000617004914327,7.925044322140973e-05
1386.3958942675322,1386.3958942675322,0.9999909862224483,7.924804536438546e-05
1386.4028388295997,1386.4028388295997,0.9999969956075805,7.924557604072912e-05
1386.4097833916453,1386.4097833916453,0.9999371570064955,7.924361783554802e-05
1386.416727953621,1386.416727953621,0.9998416950333382,7.924220091477993e-05
1386.4236725155954,1386.4236725155954,1.0000144262304096,7.924740555720548e-05
1386.4306170774776,1386.4306170774776,1.0001273289468584,7.925304589639084e-05
1386.4375616393836,1386.4375616393836,0.9999732228141411,7.924572167882395e-05
1386.4445062012185,1386.4445062012185,1.000067587142548,7.924834787141142e-05
1386.4514507630076,1386.4514507630076,1.0001122604746495,7.925320500232865e-05
1386.4583953247734,1386.4583953247734,1.0000007270410118,7.924867642408199e-05
1386.465339886469,1386.465339886469,0.9998949291067458,7.924270582332448e-05
1386.4722844481414,1386.4722844481414,1.000003933921706,7.924576299116357e-05
1386.479229009791,1386.479229009791,1.0000651665167142,7.924943714581709e-05
1386.486173571394,1386.486173571394,0.9999615741594396,7.924616912922876e-05
1386.4931181329493,1386.4931181329493,0.9999308857396821,7.924661932556958e-05
1386.5000626944823,1386.5000626944823,0.999914635435726,7.924443068697957e-05
1386.507007255969,1386.507007255969,0.9998831497468412,7.924376033754322e-05
1386.5139518173385,1386.5139518173385,1.0001253870547377,7.925394305877957e-05
1386.520896378755,1386.520896378755,1.000113202129758,7.925259372342269e-05
1386.527840940125,1386.527840940125,1.000021746160241,7.924797768378688e-05
1386.5347855014018,1386.5347855014018,0.9999604299958195,7.924457735367766e-05
1386.541730062701,1386.541730062701,1.0000118982974313,7.924918574224016e-05
1386.548674623932,1386.548674623932,1.000025299052804,7.924709308961976e-05
1386.5556191851158,1386.5556191851158,1.0000013708570608,7.924641643221587e-05
1386.5631193111708,1386.5631193111708,1.0000228904107407,7.924933550476725e-05
1386.570897219617,1386.570897219617,0.9998974430521059,7.924380664296878e-05
1386.577841780661,1386.577841780661,0.9999657702053455,7.924829229328377e-05
1386.5847863417043,1386.5847863417043,1.0000778803369736,7.925212795727645e-05
1386.5917309026786,1386.5917309026786,1.0000127810224924,7.925132283077283e-05
1386.5986754636297,1386.5986754636297,1.0000903623766901,7.925106951281868e-05
1386.605620024534,1386.605620024534,0.9999452988726112,7.924472808632906e-05
1386.612564585391,1386.612564585391,0.9999651857575887,7.924793882973545e-05
1386.6195091462255,1386.6195091462255,0.9999470052455575,7.924612823378098e-05
1386.6264537069906,1386.6264537069906,0.9999760848147806,7.924741225159065e-05
1386.6333982677309,1386.6333982677309,0.9999343106316173,7.92437577545497e-05
1386.6403428284261,1386.6403428284261,0.9999438741439797,7.924324846629437e-05
1386.647287389121,1386.647287389121,1.0000763549361749,7.924707875958254e-05
1386.6542319497216,1386.6542319497216,1.0000257854530357,7.924354458281408e-05
1386.6611765103003,1386.6611765103003,1.0000023841311276,7.924429037007883e-05
1386.6681210708557,1386.6681210708557,1.0001108642404908,7.924743437885768e-05
1386.6750656313402,1386.6750656313402,1.000054596778607,7.924348571460198e-05
1386.6820101918254,1386.6820101918254,0.9999729750429539,7.924297836365779e-05
1386.6889547522408,1386.6889547522408,0.9999571443125532,7.924383501711468e-05
1386.6958993126332,1386.6958993126332,1.0000890153730388,7.924730913625525e-05
1386.7028438730008,1386.7028438730008,1.0000330224090932,7.92456693004557e-05
1386.7097884332768,1386.7097884332768,0.9999226532997036,7.92444220675577e-05
1386.7167329935296,1386.7167329935296,0.9998637343966139,7.924326822872425e-05
1386.723677553758,1386.723677553758,1.0000621008268311,7.924986284607287e-05
1386.7306221139168,1386.7306221139168,1.0000721752307116,7.924930698497355e-05
1386.7375666740768,1386.7375666740768,0.9998530981506004,7.92424808135729e-05
1386.744511234166,1386.744511234166,0.999994336440853,7.924470242536244e-05
1386.7514557942318,1386.7514557942318,1.0000047091159787,7.92470684174807e-05
1386.7584003542747,1386.7584003542747,1.0000380898481667,7.924788401562669e-05
1386.7653449142244,1386.7653449142244,1.0000318300527526,7.92481938607063e-05
1386.7728450389527,1386.7728450389527,1.0000159387537353,7.924705038028627e-05
1386.7806229460714,1386.7806229460714,1.0000069501434894,7.924563473662183e-05
1386.787567505905,1386.787567505905,0.9999601350522422,7.924336726001122e-05
1386.794512065738,1386.794512065738,1.0000565315470742,7.924680018301862e-05
1386.8014566255008,1386.8014566255008,1.0000250944423503,7.924425282818288e-05
1386.808401185241,1386.808401185241,1.0000162009132034,7.924634437699332e-05
1386.815345744935,1386.815345744935,0.9999539352124966,7.92422173039459e-05
1386.8222903045812,1386.8222903045812,0.9999409181090281,7.924246581366161e-05
1386.8292348641821,1386.8292348641821,1.0000589992411208,7.924832316369963e-05
1386.8361794237826,1386.8361794237826,0.9998956392596676,7.924434616397195e-05
1386.8431239832892,1386.8431239832892,1.000008368793668,7.924474754187442e-05
1386.8500685427732,1386.8500685427732,1.0000323782147826,7.924685640575465e-05
1386.8570131022345,1386.8570131022345,1.0000849263830898,7.924599718791637e-05
1386.8639576616483,1386.8639576616483,1.0000230071802951,7.924486464122868e-05
1386.870902221039,1386.870902221039,0.9999744889238944,7.924277990443353e-05
1386.87784678036,1386.87784678036,0.9999083504749695,7.924099880673806e-05
1386.884791339658,1386.884791339658,0.9999844429592727,7.92431292794172e-05
1386.8917358988851,1386.8917358988851,0.9999461770178402,7.924004131116654e-05
1386.8986804581364,1386.8986804581364,1.0001021028664518,7.924572153663681e-05
1386.9056250172948,1386.9056250172948,1.0000942827594637,7.924729266073623e-05
1386.9125695764528,1386.9125695764528,1.0000562549830143,7.924524600422142e-05
1386.9195141354935,1386.9195141354935,0.9998896012194768,7.924012077213918e-05
1386.9264586945592,1386.9264586945592,0.9999536634056811,7.924227531455342e-05
1386.9334032535776,1386.9334032535776,0.9998931652937246,7.923989393261317e-05
1386.9403478125485,1386.9403478125485,1.0000933044444136,7.924639232554993e-05
1386.947292371474,1386.947292371474,1.0000776764200994,7.924607519441712e-05
1386.954236930376,1386.954236930376,0.9999285218865174,7.923976352075624e-05
1386.9611814892312,1386.9611814892312,1.0000751862801431,7.924841464104211e-05
1386.9681260480397,1386.9681260480397,1.0001008995871015,7.924746907043683e-05
1386.9750706068257,1386.9750706068257,0.999971068062042,7.924269140708123e-05
1386.983126294937,1386.983126294937,0.9998484494886263,7.923882661305183e-05
1386.9903486359713,1386.9903486359713,0.9999620797719642,7.924009274059426e-05
1386.997293194594,1386.997293194594,1.0000551935992446,7.924355511359429e-05
1387.0042377532639,1387.0042377532639,0.9999376772772944,7.924229770307191e-05
1387.0111823117925,1387.0111823117925,1.0000900508055575,7.924631507409119e-05
1387.0181268702986,1387.0181268702986,0.9999556422844552,7.924166269174926e-05
1387.0250714287818,1387.0250714287818,1.0000908125095764,7.924486796078228e-05
1387.0320159872413,1387.0320159872413,0.9999357229534883,7.924012295236603e-05
1387.0389605456303,1387.0389605456303,1.0000283713594844,7.924377718236801e-05
1387.0459051039973,1387.0459051039973,0.9999685416041878,7.924083380027793e-05
1387.0528496623406,1387.0528496623406,1.0000614039373354,7.924401607180712e-05
1387.0597942206134,1387.0597942206134,1.000003337983791,7.924420067616617e-05
1387.066738778863,1387.066738778863,0.9998664266417959,7.92380179727807e-05
1387.0736833370902,1387.0736833370902,1.0001286502161861,7.924901994741775e-05
1387.0806278952239,1387.0806278952239,0.9999935271776842,7.924165037258028e-05
1387.0875724533566,1387.0875724533566,0.9999628068220894,7.923929250227978e-05
1387.094517011444,1387.094517011444,0.9999559161143481,7.92422148448921e-05
1387.1014615694846,1387.1014615694846,0.9999463077839579,7.923962335177294e-05
1387.108406127478,1387.108406127478,1.000112356266449,7.92479895470297e-05
1387.1153506854719,1387.1153506854719,0.9999844206919327,7.924150491093375e-05
1387.1222952433727,1387.1222952433727,1.0001538286639176,7.924566088155212e-05
1387.1292398012738,1387.1292398012738,0.9998730896486183,7.923942513514556e-05
1387.1361843591037,1387.1361843591037,0.9999320631114568,7.923859247485404e-05
1387.1431289169118,1387.1431289169118,0.9999611044681005,7.924043855369571e-05
1387.1500734746735,1387.1500734746735,1.0000323641776325,7.924171524398052e-05
1387.1570180324106,1387.1570180324106,1.0000227681360552,7.924004799709288e-05
1387.1639625900782,1387.1639625900782,0.9999045298106651,7.923795320414608e-05
1387.1709071477464,1387.1709071477464,1.0000959937324982,7.924389330870475e-05
1387.177851705345,1387.177851705345,0.9999831565453448,7.923642460727474e-05
1387.1847962628956,1387.1847962628956,1.000086528967325,7.924460809720053e-05
1387.191740820424,1387.191740820424,0.99997072394605,7.92412804979847e-05
1387.1986853779058,1387.1986853779058,1.0001295835716713,7.924432277528517e-05
1387.2056299353176,1387.2056299353176,0.9999685189080176,7.923849182195702e-05
1387.2125744927287,1387.2125744927287,0.9998916336346138,7.923353034507126e-05
1387.219519050141,1387.219519050141,0.9999929551968926,7.923794077840918e-05
1387.2264636074601,1387.2264636074601,1.0000691146317493,7.924251538502427e-05
1387.2334081647546,1387.2334081647546,0.9999183075357158,7.923710779379384e-05
1387.2403527219801,1387.2403527219801,1.0000129933661313,7.924183694216926e-05
1387.2472972792061,1387.2472972792061,0.9999929904348932,7.923979337230168e-05
1387.254241836362,1387.254241836362,0.999902463731942,7.923782170769962e-05
1387.2611863934703,1387.2611863934703,1.000113294310174,7.924570277372516e-05
1387.2681309505795,1387.2681309505795,0.9999967822609914,7.924031611277913e-05
1387.275075507619,1387.275075507619,1.0000471823545936,7.924087986031203e-05
1387.2820200646115,1387.2820200646115,0.9999307285574899,7.923926191588348e-05
1387.288964621604,1387.288964621604,0.9999942543857767,7.924126370872258e-05
1387.2959091785272,1387.2959091785272,0.9999965311137805,7.924232131838483e-05
1387.3028537354037,1387.3028537354037,1.000113555113042,7.924342373692286e-05
1387.3109094213949,1387.3109094213949,0.9999110374396475,7.923577012983109e-05
1387.3195206717478,1387.3195206717478,1.0000084752873752,7.924234845952965e-05
1387.3264652285318,1387.3264652285318,0.9999518529662312,7.923886026617285e-05
1387.3345209143138,1387.3345209143138,0.9998610790352579,7.923460442983257e-05
1387.3417432532538,1387.3417432532538,0.9999867932724733,7.923796151782204e-05
1387.3492433743977,1387.3492433743977,1.0002253903436924,7.924860459141411e-05
1387.357021277767,1387.357021277767,0.9999701517653665,7.923680904550842e-05
1387.3639658342938,1387.3639658342938,1.000115198676797,7.924283040274575e-05
1387.3709103907977,1387.3709103907977,1.0000050186110807,7.924133554194705e-05
1387.3778549472554,1387.3778549472554,0.9999283455838102,7.923580707365053e-05
1387.3847995036651,1387.3847995036651,0.9999774227134537,7.923570294982234e-05
1387.3917440600526,1387.3917440600526,0.9999139110209535,7.923854657559639e-05
1387.398688616347,1387.398688616347,1.0000463817365648,7.923989121881301e-05
1387.405633172711,1387.405633172711,0.9999221117203028,7.923746650190956e-05
1387.412577728958,1387.412577728958,1.0000358691862723,7.924179485384614e-05
1387.4195222851363,1387.4195222851363,1.000029683029414,7.924266829541748e-05
1387.4264668413375,1387.4264668413375,0.9998954099029195,7.923226677622927e-05
1387.433411397445,1387.433411397445,1.000110252312654,7.924332139042962e-05
1387.4403559535529,1387.4403559535529,1.0000365599310346,7.924012239007042e-05
1387.4473005096147,1387.4473005096147,1.0001608764734393,7.92483795308561e-05
1387.4542450656297,1387.4542450656297,0.9999143413365239,7.923367833472194e-05
1387.4611896216206,1387.4611896216206,0.9999268333718991,7.92388652041161e-05
1387.4681341775424,1387.4681341775424,0.9998803448728302,7.923419570438482e-05
1387.475078733441,1387.475078733441,1.0000061985829434,7.923479226541267e-05
1387.482023289293,1387.482023289293,1.0000405041854248,7.923877047115118e-05
1387.488967845121,1387.488967845121,1.0000182615696616,7.92384127901332e-05
1387.495912400903,1387.495912400903,0.9999221624320139,7.923603799036182e-05
1387.5028569566389,1387.5028569566389,1.0000961712002379,7.92414349788704e-05
1387.5098015123501,1387.5098015123501,1.0001355779866963,7.924509059211872e-05
1387.5167460680161,1387.5167460680161,0.9998837798895919,7.92323032309654e-05
1387.523690623612,1387.523690623612,0.999993861183539,7.923788535267316e-05
1387.5306351791846,1387.5306351791846,1.000147869077817,7.924147951960692e-05
1387.537579734733,1387.537579734733,0.9998195383747113,7.922992578930521e-05
1387.5445242902124,1387.5445242902124,1.000048539749939,7.924254421243538e-05
1387.5514688456924,1387.5514688456924,0.9999506375595196,7.92372337475893e-05
1387.558413401102,1387.558413401102,1.0000326502342365,7.924267465793614e-05
1387.5653579564873,1387.5653579564873,0.9999815832842425,7.923679313429106e-05
1387.5723025118273,1387.5723025118273,0.9999343068668376,7.923542580933364e-05
1387.5792470671206,1387.5792470671206,0.9999386105596209,7.923375552626765e-05
1387.5861916223898,1387.5861916223898,1.0000586472975586,7.924104078568738e-05
1387.593136177613,1387.593136177613,1.0000587903211224,7.9242543194508e-05
1387.6000807327662,1387.6000807327662,1.000083392046704,7.924362030307823e-05
1387.6070252879433,1387.6070252879433,0.9999843490015262,7.923586871816961e-05
1387.6139698430259,1387.6139698430259,0.9999476355383434,7.92355640574762e-05
1387.6209143981098,1387.6209143981098,1.0001013198180257,7.92392072008289e-05
1387.6278589531007,1387.6278589531007,0.9999341780508979,7.923363761956146e-05
1387.634803508091,1387.634803508091,0.9998398650706359,7.923513774983802e-05
1387.641748063034,1387.641748063034,1.0000616512122342,7.924104860533975e-05
1387.6486926179316,1387.6486926179316,1.0001790316179453,7.924740105018686e-05
1387.6556371727827,1387.6556371727827,0.9999209673408194,7.923399155142738e-05
1387.6625817275863,1387.6625817275863,0.9999713789625044,7.923767135912739e-05
1387.66952628239,1387.66952628239,1.0000432954885365,7.924188900001366e-05
1387.6764708371245,1387.6764708371245,0.9999542962118181,7.923792934711021e-05
1387.683415391836,1387.683415391836,1.0000034687740311,7.923782967909595e-05
1387.6903599464765,1387.6903599464765,1.000001215960976,7.923906891597223e-05
1387.6973045011175,1387.6973045011175,0.9999384064278821,7.923465533095544e-05
1387.7042490557121,1387.7042490557121,1.0001269998638387,7.924406021882698e-05
1387.7111936102374,1387.7111936102374,0.9999838957169995,7.923965242843312e-05
1387.7181381647379,1387.7181381647379,0.9999236876765403,7.923064473217699e-05
1387.7250827192165,1387.7250827192165,0.9998819703933481,7.92319673624182e-05
1387.7320272736247,1387.7320272736247,0.9999577318927189,7.923404773776523e-05
