time,time,flux,flux_err
1325.299855798279,1325.299855798279,0.9993789308681281,0.0005958796505539592
1325.3081891263691,1325.3081891263691,1.0008489521108264,0.000596263971019812
1325.3165224546735,1325.3165224546735,0.9999639219664975,0.0005962321273333786
1325.3241613391456,1325.3241613391456,1.0002891190138743,0.0005445635828776578
1325.331105779745,1325.331105779745,1.0003277490212088,0.0005447760643785452
1325.3380502204966,1325.3380502204966,0.9994549294802301,0.0005449320806223019
1325.344994661376,1325.344994661376,1.000275976795414,0.0005454032269842547
1325.3519391024179,1325.3519391024179,1.0005233239973599,0.0005457830735263031
1325.3588835435996,1325.3588835435996,1.0002681360367647,0.0005462078826044218
1325.3658279849328,1325.3658279849328,1.0004321527653495,0.0005465426558062473
1325.372772426394,1325.372772426394,1.0006492999333383,0.0005470437804536747
1325.379716867995,1325.379716867995,0.9998725255155982,0.0005473421294721751
1325.3866613097473,1325.3866613097473,0.999498223974711,0.0005475807045357628
1325.3936057516507,1325.3936057516507,1.0003950896938556,0.0005481374657931996
1325.400550193659,1325.400550193659,1.000258763273801,0.0005485340864286403
1325.4074946358073,1325.4074946358073,0.9993199237078558,0.000548699629277227
1325.414439078118,1325.414439078118,0.9997813342676732,0.0005491893337868053
1325.4213835205342,1325.4213835205342,0.9998843452331997,0.0005495849626661964
1325.4283279631127,1325.4283279631127,1.0003232560679851,0.0005498615352274009
1325.4352724057962,1325.4352724057962,1.000788500490628,0.0005503308449260541
1325.4422168486312,1325.4422168486312,0.9991151602498066,0.0005503226301295785
1325.449161291571,1325.449161291571,1.0001155404668254,0.0005507521798581946
1325.4561057346505,1325.4561057346505,0.9999562055264694,0.0005510623321862385
1325.4630501778577,1325.4630501778577,1.0003706725298938,0.0005513527875363056
1325.46999462117,1325.46999462117,1.0000976814409388,0.0005516404614249073
1325.4769390646452,1325.4769390646452,0.9996849373890949,0.000551886818650581
1325.483883508225,1325.483883508225,0.9989646676497907,0.0005521907207521839
1325.49082795191,1325.49082795191,1.0008095083013127,0.0005528191438579362
1325.497772395723,1325.497772395723,0.9999965419313938,0.0005530082250214937
1325.504716839652,1325.504716839652,1.0003548978353753,0.0005533858364298497
1325.5116612837214,1325.5116612837214,0.9997008757083783,0.0005536443050764108
1325.518605727871,1325.518605727871,0.9997657329129573,0.000554058581414187
1325.5255501721615,1325.5255501721615,1.0003959742552937,0.0005545044513582543
1325.5324946165679,1325.5324946165679,1.0006320066686853,0.0005549182449640763
1325.5394390610559,1325.5394390610559,0.9993525568861307,0.0005552280693475821
1325.5463835056955,1325.5463835056955,1.0001067755796362,0.0005555749551194703
1325.5533279504275,1325.5533279504275,0.9996382519335839,0.0005559749959327227
1325.5602723952652,1325.5602723952652,1.0000219535537358,0.000556288972490994
1325.567216840207,1325.567216840207,0.9996484335899571,0.0005566134292652196
1325.5741612852771,1325.5741612852771,1.000758450762196,0.0005572211038681465
1325.581105730429,1325.581105730429,0.9998488421060202,0.0005573852958073048
1325.5880501756849,1325.5880501756849,1.0002889158036532,0.0005577641856507803
1325.594994621081,1325.594994621081,1.0003331636515411,0.000557948453694102
1325.6019390665238,1325.6019390665238,0.9995824424312639,0.0005579909964124933
1325.608883512106,1325.608883512106,0.9993691171858762,0.0005581359322892954
1325.6158279577585,1325.6158279577585,0.9999731199987645,0.0005583224965524274
1325.6227724035384,1325.6227724035384,0.9999686902792991,0.0005585155616228141
1325.6297168494118,1325.6297168494118,1.000316566924273,0.000558457569011639
1325.6366612954016,1325.6366612954016,1.0000762339739326,0.000558539501768049
1325.6436057414378,1325.6436057414378,0.9995723058803432,0.0005584753001637408
1325.6505501876022,1325.6505501876022,1.0000420488150847,0.0005584477662390249
1325.6574946338715,1325.6574946338715,1.0009045365986924,0.000558533584371697
1325.664439080187,1325.664439080187,0.9994242761284579,0.0005582467987088719
1325.6713835266307,1325.6713835266307,0.9995123081300074,0.0005582283455051768
1325.6783279731562,1325.6783279731562,1.0006564921691097,0.0005584069929527043
1325.6852724197631,1325.6852724197631,1.0001683766482812,0.0005585002845573319
1325.6922168664864,1325.6922168664864,0.9995655869907452,0.0005584303008988347
1325.6991613132561,1325.6991613132561,1.000741166252744,0.0005587589615092709
1325.7061057601425,1325.7061057601425,1.0004200220882917,0.0005587693509831788
1325.7130502071097,1325.7130502071097,0.9999852490799022,0.0005588731562835719
1325.7199946541473,1325.7199946541473,0.9992218239677225,0.0005588938066633185
1325.726939101278,1325.726939101278,0.9997959447046476,0.0005591228700733347
1325.7338835485016,1325.7338835485016,1.0000716319363558,0.0005593342834545824
1325.7408279958072,1325.7408279958072,0.9997392870825552,0.0005593326114069903
1325.747772443182,1325.747772443182,1.000364764854675,0.000559672409793535
1325.7547168906387,1325.7547168906387,0.9994946205638534,0.0005596766489332488
1325.761661338177,1325.761661338177,0.9993890879630769,0.0005598785934551341
1325.768605785785,1325.768605785785,1.0001276191946153,0.0005601160342096512
1325.7755502334742,1325.7755502334742,1.000649429894028,0.00056042230381947
1325.7824946812452,1325.7824946812452,1.0000526824284524,0.0005604194018816761
1325.789439129098,1325.789439129098,1.0006721467128201,0.000560667742941682
1325.79638357702,1325.79638357702,1.0002851063659612,0.0005608060120044506
1325.8033280249888,1325.8033280249888,0.999791909573306,0.000560836233643424
1325.810272473074,1325.810272473074,0.9994242757327333,0.0005610010078475321
1325.817216921229,1325.817216921229,0.9999663042418259,0.000560993367075681
1325.8241613694308,1325.8241613694308,0.9993473075546115,0.000561018854183077
1325.8311058177255,1325.8311058177255,1.0003225423739146,0.0005613621025725036
1325.8380502660668,1325.8380502660668,0.9997790689914098,0.0005613568434888583
1325.8449947144898,1325.8449947144898,0.9998540239077867,0.0005613740098891102
1325.8519391629702,1325.8519391629702,1.0013997620185466,0.0005615355714409522
1325.8588836115218,1325.8588836115218,0.9999710628899413,0.0005612097204437253
1325.8658280601423,1325.8658280601423,0.9995935365351688,0.0005609526979876193
1325.8727725088334,1325.8727725088334,0.999868159692696,0.0005607657737738184
1325.8797169575935,1325.8797169575935,0.9999658555494413,0.0005605869621599067
1325.8866614064123,1325.8866614064123,0.9993082880859522,0.0005602525284629364
1325.8936058553122,1325.8936058553122,1.0001869819217866,0.0005601205403215156
1325.9005503042358,1325.9005503042358,1.0002197391669538,0.0005601164233983208
1325.9074947532406,1325.9074947532406,0.9997739246096184,0.0005598647576787733
1325.9144392023038,1325.9144392023038,1.0002907292465824,0.000559804627207448
1325.9213836514364,1325.9213836514364,1.0004995029899162,0.0005596909394173101
1325.9283281006283,1325.9283281006283,0.9999417365166685,0.0005595435653220204
1325.9352725498657,1325.9352725498657,0.9998590347885818,0.0005594407508109654
1325.9422169991735,1325.9422169991735,1.000542548374331,0.0005594433246808546
1325.949161448551,1325.949161448551,0.9994463514580035,0.0005592059110610885
1325.9561058979632,1325.9561058979632,0.999158095792778,0.0005591792291982301
1325.9638836813967,1325.9638836813967,1.0000498793262378,0.000559313250243732
1325.9713836868846,1325.9713836868846,1.0007375822466764,0.0005593917212863663
1325.9783281364835,1325.9783281364835,0.9995247412914461,0.0005592309230478509
1325.9852725861517,1325.9852725861517,1.0008736388081663,0.0005595025954013874
1325.9922170358552,1325.9922170358552,0.9996779393868479,0.0005593556537464918
1325.999161485582,1325.999161485582,0.9997145784885534,0.0005593928123465485
1326.006105935425,1326.006105935425,1.000763183994198,0.0005597032114254586
1326.0130503852915,1326.0130503852915,0.9992830467802427,0.0005596678794070973
1326.019994835216,1326.019994835216,0.999072818099141,0.0005597902951228586
1326.0269392851644,1326.0269392851644,1.0005843764591602,0.0005602174675364618
1326.0338837351935,1326.0338837351935,1.0002967706532053,0.0005602749206089185
1326.0408281852456,1326.0408281852456,1.0007414859002357,0.000560192736233267
1326.0477726353688,1326.0477726353688,0.9993751127569155,0.0005600471769071282
1326.0547170855375,1326.0547170855375,1.0000258925295693,0.0005600909344499805
1326.0616615357417,1326.0616615357417,0.999993046285754,0.0005602303823911108
1326.068605986004,1326.068605986004,0.9997619748665965,0.0005602084207334251
1326.0755504363005,1326.0755504363005,1.000579517294709,0.0005604331479290572
1326.0824948866682,1326.0824948866682,0.9992500765759422,0.0005601665850687345
1326.0894393370584,1326.0894393370584,1.0002436735008409,0.0005604861378134718
1326.0963837874954,1326.0963837874954,1.0002441544988574,0.000560504725182909
1326.1033282379906,1326.1033282379906,1.000283413023329,0.0005603920826902028
1326.1102726885085,1326.1102726885085,0.9995918045548559,0.0005603894138308997
1326.117217139085,1326.117217139085,1.0000569586065988,0.0005603925431543578
1326.1241615896847,1326.1241615896847,0.9997324756108746,0.0005603627992686808
1326.1311060403432,1326.1311060403432,1.0004362992483,0.0005604179585025212
1326.138050491059,1326.138050491059,0.9999638276756306,0.0005602635767320117
1326.1449949417988,1326.1449949417988,0.9993981890643729,0.0005601473335171374
1326.1519393925732,1326.1519393925732,0.9992297126334655,0.0005601701282530283
1326.1588838434056,1326.1588838434056,1.001088013764885,0.0005603930551594234
1326.165828294262,1326.165828294262,1.0005352943578765,0.0005602421438190573
1326.172772745164,1326.172772745164,0.9994548082284647,0.0005599971630970712
1326.1797171961134,1326.1797171961134,1.0000451095602796,0.0005601632555304094
1326.186661647074,1326.186661647074,0.9999404696545142,0.0005600541389750569
1326.1936060980927,1326.1936060980927,1.0005573357820658,0.0005601993591200462
1326.200550549147,1326.200550549147,1.0001026938671722,0.0005600002492738812
1326.2074950002354,1326.2074950002354,1.0005052684276752,0.0005600468440257491
1326.2144394513596,1326.2144394513596,0.9994073450373815,0.0005598492898809308
1326.221383902518,1326.221383902518,0.9994874995257067,0.0005598210572932054
1326.2283283537113,1326.2283283537113,0.9993691467217012,0.0005598402196004047
1326.2352728049282,1326.2352728049282,0.9995080804647201,0.0005597734970613098
1326.242217256226,1326.242217256226,1.0003246611722818,0.0005598875910499846
1326.2491617075134,1326.2491617075134,1.0005506339639354,0.0005598565959512991
1326.2561061588463,1326.2561061588463,1.000659525054122,0.0005599514800319161
1326.2630506102264,1326.2630506102264,1.0000636892308237,0.0005598613490062375
1326.2699950616177,1326.2699950616177,0.9998042993749842,0.0005597045768142267
1326.276939513044,1326.276939513044,1.0004372909841024,0.0005597408225504198
1326.2838839645171,1326.2838839645171,1.00010518299698,0.0005596049662374196
1326.2908284160133,1326.2908284160133,0.9996043018942691,0.0005594756773330887
1326.2977728675444,1326.2977728675444,0.9988879310911146,0.000559421547979369
1326.3047173190987,1326.3047173190987,1.0002479765867738,0.0005595877551518555
1326.3116617706883,1326.3116617706883,0.9998932455979356,0.0005596462888571245
1326.3186062223126,1326.3186062223126,1.0000191300375345,0.0005596514601805545
1326.325550673948,1326.325550673948,1.0003056835728414,0.0005596924314608784
1326.332495125631,1326.332495125631,1.0005132505698193,0.0005597489796243891
1326.3394395773366,1326.3394395773366,1.00005837883376,0.0005597594902945348
1326.3469395852117,1326.3469395852117,1.0002537114518515,0.0005597652658538503
1326.3561062615586,1326.3561062615586,0.9999250919693484,0.0005599180687251123
1326.3630507133341,1326.3630507133341,0.9997490204811392,0.0005598789196331837
1326.3699951651797,1326.3699951651797,1.0007874312472227,0.0005602033949667056
1326.376939617037,1326.376939617037,0.999880396118763,0.0005600447839679927
1326.3838840689286,1326.3838840689286,0.9998399517808995,0.0005601022826431414
1326.3908285208324,1326.3908285208324,1.0003216852684285,0.0005602488240317339
1326.3977729727594,1326.3977729727594,0.9992230849332607,0.0005600833290650348
1326.4047174247212,1326.4047174247212,1.0001339043721076,0.0005603045560948097
1326.4116618767184,1326.4116618767184,0.9999401862866634,0.0005603785753080707
1326.4186063287266,1326.4186063287266,1.0006376709756293,0.0005604813527242978
1326.4255507807586,1326.4255507807586,0.9997120233314497,0.0005603166630812752
1326.432495232825,1326.432495232825,1.0003902959638493,0.0005605144391240748
1326.4394396848916,1326.4394396848916,0.999894228795019,0.0005604106242181627
1326.446384137005,1326.446384137005,0.9998557836703966,0.0005605883106729079
1326.4533285891298,1326.4533285891298,0.9998969076647682,0.0005605886386780732
1326.4602730412894,1326.4602730412894,1.0008577691963358,0.0005608119971819389
1326.4672174934726,1326.4672174934726,0.9995073216819004,0.0005607139633944074
1326.4741619456556,1326.4741619456556,1.0002499399859348,0.0005608747193827306
1326.4811063978855,1326.4811063978855,0.9995790333429044,0.000560818279717019
1326.4880508501149,1326.4880508501149,1.0001738902971071,0.0005610582799906335
1326.494995302391,1326.494995302391,0.999769009792981,0.0005609739219355509
1326.501939754667,1326.501939754667,0.9992871793885334,0.0005609666073921213
1326.5088842069786,1326.5088842069786,1.0001511078362921,0.0005610877221637336
1326.5158286592896,1326.5158286592896,1.000035943323622,0.0005612396001992059
1326.5227731116472,1326.5227731116472,1.0003891105242857,0.0005613309438491258
1326.5297175639937,1326.5297175639937,1.0001237582664608,0.0005614803730292372
1326.5366620163975,1326.5366620163975,1.000072829179978,0.0005615146619670784
1326.5436064688022,1326.5436064688022,1.000301181495459,0.0005616728680633475
1326.5505509212064,1326.5505509212064,1.0001091167944145,0.000561827947713372
1326.557495373657,1326.557495373657,0.9999807913774973,0.0005618574158988811
1326.564439826108,1326.564439826108,0.9997149792347546,0.0005617582816571938
1326.5713842785935,1326.5713842785935,1.0002350155580306,0.0005619073069473049
1326.5783287310794,1326.5783287310794,0.9989452820816824,0.0005617373645441177
1326.5852731835998,1326.5852731835998,0.9998196734557003,0.0005619678705474304
1326.5922176361325,1326.5922176361325,1.0004396652628724,0.0005621065684985823
1326.5991620886762,1326.5991620886762,0.9997072665474518,0.0005619637130427742
1326.6061065412437,1326.6061065412437,1.0012808801991757,0.0005622779256289985
1326.6130509938225,1326.6130509938225,0.9998302292880249,0.0005620648261257515
1326.6199954464246,1326.6199954464246,0.9996123029617794,0.0005620628745119531
1326.626939899027,1326.626939899027,0.999760394229981,0.0005621097793416347
1326.6338843516637,1326.6338843516637,1.000185289302538,0.0005620546785253804
1326.6408288043128,1326.6408288043128,1.0003215803101266,0.0005621155798593354
1326.6477732569615,1326.6477732569615,0.9997576219388489,0.0005619568575595896
1326.6547177096568,1326.6547177096568,1.000071575531015,0.000562112353654669
1326.661662162352,1326.661662162352,0.9999754916623536,0.000561897658539238
1326.6686066150473,1326.6686066150473,0.9998912611308534,0.0005618602246558486
1326.6755510677544,1326.6755510677544,1.000048995068036,0.0005617565441278329
1326.6824955204963,1326.6824955204963,0.9996134451594744,0.0005615136072213211
1326.6905510856693,1326.6905510856693,0.9999053861716789,0.0005613238952076126
1326.6977733165538,1326.6977733165538,1.0001923189771165,0.0005613460364188957
1326.7047177693307,1326.7047177693307,0.9999215230376194,0.0005611515490012073
1326.7122177783467,1326.7122177783467,1.0000796566433918,0.0005610698361382763
1326.7199955654935,1326.7199955654935,0.9999411751642953,0.0005610132978836177
1326.7269400183168,1326.7269400183168,0.9996225742599375,0.0005607049024551851
1326.7338844711398,1326.7338844711398,0.9999278103154674,0.0005606642814989999
1326.7408289239868,1326.7408289239868,0.9998267110214789,0.000560531965089875
1326.7477733768333,1326.7477733768333,1.0003952652743575,0.0005605496540586483
1326.7547178297148,1326.7547178297148,0.9994497115598261,0.0005603743943232471
1326.761662282585,1326.761662282585,0.9999339561097145,0.0005603481126275931
1326.7686067354662,1326.7686067354662,1.000040910014805,0.0005604776157345948
1326.7755511883827,1326.7755511883827,0.9997356930387623,0.0005602382256174683
1326.7824956412994,1326.7824956412994,1.000635905781258,0.000560420457489777
1326.7894400942157,1326.7894400942157,1.0009569942819299,0.0005605230926977337
1326.796384547144,1326.796384547144,0.9995592065982961,0.0005602992596032959
1326.8033290000956,1326.8033290000956,0.9993662826314607,0.0005603975374120897
1326.8102734530587,1326.8102734530587,0.9997977892782179,0.0005604726099710407
1326.8172179060327,1326.8172179060327,1.0000661831150741,0.0005605005433763419
1326.824162358973,1326.824162358973,1.0004001269172687,0.0005606170643888935
1326.8311068119592,1326.8311068119592,1.0003055186641263,0.0005606272500277421
1326.8380512649805,1326.8380512649805,0.9995730046578496,0.0005603252194774927
1326.84499571799,1326.84499571799,0.9993249474359492,0.0005603582800339578
1326.851940170988,1326.851940170988,0.9996681551781841,0.000560277217110538
1326.858884624021,1326.858884624021,1.000346246059659,0.0005603617424606766
1326.8658290770427,1326.8658290770427,1.000185280238106,0.0005601755988713152
1326.8727735300872,1326.8727735300872,0.9999120583034303,0.0005600646537950334
1326.8797179831313,1326.8797179831313,1.0008439925234929,0.000559931824606431
1326.8866624361879,1326.8866624361879,1.0001496909678014,0.0005596719436339623
1326.8936068892551,1326.8936068892551,0.9996536928017514,0.000559371557196441
1326.9005513423235,1326.9005513423235,1.0001517719077329,0.0005592354851371483
1326.9074957954144,1326.9074957954144,0.9995738390435587,0.0005589344350670732
1326.914440248494,1326.914440248494,0.9996982172041899,0.0005587712778718457
1326.9213847015849,1326.9213847015849,0.9998158054249953,0.000558472440874561
1326.9283291546878,1326.9283291546878,1.000216201458581,0.0005583441787771705
1326.9352736078024,1326.9352736078024,1.000108920874617,0.0005581353046902347
1326.9422180609165,1326.9422180609165,1.0009708145859928,0.0005580795449866759
1326.9491625140427,1326.9491625140427,1.0010843508142433,0.0005579651053859638
1326.956106967157,1326.956106967157,0.9992086501273926,0.0005572287994593543
1326.9630514203068,1326.9630514203068,0.9997932963725769,0.0005572110358385334
1326.9699958734443,1326.9699958734443,0.9998803735038397,0.0005570852473268638
1326.9769403265932,1326.9769403265932,0.999829141216478,0.0005569884144802259
1326.983884779743,1326.983884779743,1.0002597782525786,0.0005568991062239186
1326.9908292329037,1326.9908292329037,0.9998326202033798,0.000556655904606711
1326.997773686077,1326.997773686077,1.0004009433187375,0.0005566593949321325
1327.0047181392374,1327.0047181392374,0.9997761240989831,0.0005565980583238422
1327.0116625924215,1327.0116625924215,1.000371627470414,0.0005566608661434879
1327.018607045594,1327.018607045594,0.9994314596676684,0.0005564075332048634
1327.0255514987784,1327.0255514987784,0.9995418691024074,0.000556330701183462
1327.0324959519744,1327.0324959519744,0.9998271687733874,0.0005563957247305401
1327.03944040517,1327.03944040517,1.0006273771045582,0.0005565521426365405
1327.0463848583663,1327.0463848583663,1.0001995424587284,0.0005564714619670331
1327.0533293115736,1327.0533293115736,0.9994947399215626,0.0005562282733976958
1327.0611070991747,1327.0611070991747,0.999619686939545,0.0005563691105495613
1327.0686071086443,1327.0686071086443,1.0005208672052457,0.0005564569429080425
1327.0755515618519,1327.0755515618519,1.0006193822316791,0.0005564667134964872
