time,time,flux,flux_err
1491.638056228385,1491.638056228385,0.9982820696526926,0.005973803477302624
1491.6463896690736,1491.6463896690736,1.002070529898568,0.005955516460219341
1491.6540286564489,1491.6540286564489,1.0005113111932027,0.005417193546110924
1491.6609731904803,1491.6609731904803,1.002641132585786,0.005419825102183515
1491.6679177244653,1491.6679177244653,0.9962307295150314,0.005400857842361326
1491.6748622585892,1491.6748622585892,0.9969139414658077,0.005385652996251176
1491.681806792667,1491.681806792667,0.9950978318778745,0.005367973327418782
1491.6887513267916,1491.6887513267916,1.005400421928843,0.00536471853248498
1491.6956958609626,1491.6956958609626,1.002750298129183,0.005356708675191581
1491.7026403950867,1491.7026403950867,1.0053562983524682,0.005344273790705971
1491.7095849293046,1491.7095849293046,0.999154646701124,0.0053396440063898315
1491.7165294634756,1491.7165294634756,0.997880811199367,0.005325267402229118
1491.7234739976934,1491.7234739976934,1.003371514083262,0.005314097546657615
1491.7304185319572,1491.7304185319572,0.994056431208976,0.00530414174788226
1491.7373630661748,1491.7373630661748,1.0103849118314439,0.005295327532556263
1491.7443076004388,1491.7443076004388,0.9998303358043138,0.005292149029660699
1491.751252134703,1491.751252134703,0.9920732255343443,0.005275438394215541
1491.7581966689206,1491.7581966689206,0.9961149866773076,0.005273907197698763
1491.7651412032308,1491.7651412032308,1.0007178089048818,0.005274226229490175
1491.7720857375418,1491.7720857375418,1.0047025002024825,0.005274556769000033
1491.7790302717592,1491.7790302717592,1.0131425903961973,0.005275011106250999
1491.7859748060232,1491.7859748060232,0.9979523776405197,0.005251271243576114
1491.792919340334,1491.792919340334,1.0066278653436422,0.005246573294838761
1491.7998638745983,1491.7998638745983,0.999151643663334,0.0052361860590134
1491.806808408862,1491.806808408862,0.9942566223087445,0.005227920283300902
1491.8137529431265,1491.8137529431265,0.9979341052842621,0.005227541792055918
1491.8206974773439,1491.8206974773439,0.9939396351124756,0.005215957824142273
1491.8276420116076,1491.8276420116076,1.0009688324794404,0.005217435066135372
1491.8345865458252,1491.8345865458252,0.9999564325458212,0.005215355025134276
1491.8415310800428,1491.8415310800428,1.0031747169890521,0.005209662956641741
1491.84847561426,1491.84847561426,1.0025586032053837,0.005205803174375034
1491.855420148478,1491.855420148478,0.9990564410545932,0.005201642664983506
1491.8623646826493,1491.8623646826493,1.0059948629096827,0.005196285606668896
1491.8693092167737,1491.8693092167737,0.997943628621902,0.005181384506642271
1491.876253750991,1491.876253750991,0.9944557363182124,0.005196057012118134
1491.8831982851157,1491.8831982851157,0.997961326777985,0.005177815124664547
1491.8901428191934,1491.8901428191934,0.9994727140328319,0.005175171527949586
1491.8970873533174,1491.8970873533174,1.0017118283790247,0.005177474217520873
1491.9040318873954,1491.9040318873954,1.0006107210817683,0.005173034580016764
1491.9109764213804,1491.9109764213804,1.0062758944157433,0.005190710692622493
1491.917920955458,1491.917920955458,0.9999002417668634,0.00516735439867171
1491.9248654894427,1491.9248654894427,0.9986685976262454,0.005166923753453389
1491.9318100234275,1491.9318100234275,1.001593504160585,0.005160240998561119
1491.9387545573652,1491.9387545573652,0.9920806852626578,0.00515231884313463
1491.9456990912572,1491.9456990912572,1.002230910642599,0.005166951138379007
1491.9526436251485,1491.9526436251485,0.9946823255652746,0.005158220044183975
1491.9595881590865,1491.9595881590865,1.00273880456182,0.005160111447392986
1491.966532692885,1491.966532692885,1.0013630347320188,0.005158127226009641
1491.9734772266834,1491.9734772266834,1.0031180550791483,0.005168347928772568
1491.980421760482,1491.980421760482,1.003624767332338,0.005166451869293537
1491.9873662942337,1491.9873662942337,1.0040649082143425,0.005164618690019563
1491.9943108279394,1491.9943108279394,0.991636562144992,0.005167830421696848
1492.0012553615982,1492.0012553615982,0.9983180620323997,0.005157536144153727
1492.008199895257,1492.008199895257,1.0036952907447771,0.005156792839728539
1492.015144428776,1492.015144428776,0.9978500424039826,0.005151452847929762
1492.0220889624347,1492.0220889624347,0.9988491563891035,0.00516708388885025
1492.0290334960464,1492.0290334960464,0.9914449263870566,0.005154765098458393
1492.0359780294261,1492.0359780294261,1.0062377153508815,0.005153359774393404
1492.042922562852,1492.042922562852,0.9980209858588165,0.0051553876566233
1492.0498670963707,1492.0498670963707,1.0061120515813775,0.005148139948627851
1492.056811629657,1492.056811629657,1.0035286566135022,0.005140953981552962
1492.0637561630365,1492.0637561630365,0.9987469099804297,0.005145374677726514
1492.0707006963225,1492.0707006963225,0.9995817510785766,0.005145181680024154
1492.077645229609,1492.077645229609,0.997036616526041,0.005147473543869208
1492.084589762802,1492.084589762802,1.0024287852785214,0.005153682331423839
1492.0915342959947,1492.0915342959947,0.9993523172982144,0.005143200004474241
1492.0984788291414,1492.0984788291414,0.9993610616618582,0.005153621010058626
1492.1054233621949,1492.1054233621949,0.9929664905061173,0.0051506521298365655
1492.1123678952479,1492.1123678952479,1.0010023840707571,0.0051642203735381784
1492.119312428255,1492.119312428255,1.0064972248246968,0.005165151501298574
1492.1262569611686,1492.1262569611686,1.0047038718777794,0.00516001390313705
1492.1332014941286,1492.1332014941286,1.0020720956051954,0.005162054779344645
1492.140146026996,1492.140146026996,0.9917685797929676,0.00516126286310818
1492.147090559817,1492.147090559817,0.9991660645783835,0.005163396272124241
1492.1540350925443,1492.1540350925443,1.001851617191197,0.005164852068788454
1492.1609796253183,1492.1609796253183,0.9974545961575499,0.005159558792525375
1492.1679241579527,1492.1679241579527,0.9986837792129357,0.005169120372848438
1492.1748686905871,1492.1748686905871,1.0000575869371526,0.005169685184851901
1492.1818132231742,1492.1818132231742,0.9992717923725115,0.005159686381169688
1492.1887577557156,1492.1887577557156,1.0028146112624243,0.005154199790866268
1492.1957022881636,1492.1957022881636,0.9983510362002544,0.005153684921945078
1492.2026468205183,1492.2026468205183,1.0041978106814036,0.005148126005090205
1492.2095913528733,1492.2095913528733,0.9998243174221964,0.0051467052147969004
1492.2165358852283,1492.2165358852283,0.9981974061242646,0.005146851816140196
1492.2234804175828,1492.2234804175828,1.0026675612569644,0.005166504704947438
1492.2304249497981,1492.2304249497981,0.9982067554027546,0.005149230228563977
1492.2373694819669,1492.2373694819669,0.9994247693835103,0.005156599012455404
1492.2443140140886,1492.2443140140886,1.0034318009074956,0.005168028065962639
1492.251258546164,1492.251258546164,1.0020899815111095,0.005167634659728779
1492.2582030781932,1492.2582030781932,0.9969632250708692,0.005159651536535463
1492.2651476101287,1492.2651476101287,0.9990027750845266,0.005162614158591523
1492.272092142018,1492.272092142018,0.9960942349289116,0.005166532914750659
1492.2790366739075,1492.2790366739075,1.0044213606682262,0.0051695400912435754
1492.2859812057036,1492.2859812057036,0.9942894363370367,0.005164130829778117
1492.292925737453,1492.292925737453,1.0006012820298087,0.005174498606362593
1492.2998702691098,1492.2998702691098,0.9998671706239811,0.00516259523768168
1492.3068148007198,1492.3068148007198,1.0045442144578132,0.005173577376002529
1492.3137593322829,1492.3137593322829,0.9987794581714755,0.005161584094118323
1492.3207038638461,1492.3207038638461,0.9995368260207671,0.005167468980598958
1492.3276483952695,1492.3276483952695,1.0009136373650258,0.005165646880025266
1492.3345929266466,1492.3345929266466,1.0001407800047581,0.00516451270606532
1492.3415374580702,1492.3415374580702,0.9998670284933218,0.005151821666467161
1492.3484819892608,1492.3484819892608,0.999903102932923,0.005162738225755208
1492.3554265204511,1492.3554265204511,1.0005658855814252,0.005168798834142228
1492.3623710516424,1492.3623710516424,0.9953555134799921,0.00515879338107476
1492.3693155828328,1492.3693155828328,1.0003775585860422,0.005159555759234191
1492.3762601139301,1492.3762601139301,1.0021120904533203,0.005162413913262413
1492.3832046448883,1492.3832046448883,1.0020866609295995,0.00517368056094954
1492.3901491758463,1492.3901491758463,1.0024718329857496,0.005175491243312734
1492.3970937067575,1492.3970937067575,0.9998762350054502,0.005159780487193778
1492.4040382375292,1492.4040382375292,0.997861267556598,0.005165774471233751
1492.410982768301,1492.410982768301,0.9988896111408208,0.005171030250806773
1492.4179272990255,1492.4179272990255,1.0051323447059344,0.005164645991426758
1492.4248718296112,1492.4248718296112,0.9966075051028611,0.005170059231590119
1492.4318163602431,1492.4318163602431,0.9997055188142545,0.005168500059619514
1492.438760890782,1492.438760890782,0.998549332941319,0.005174779580877352
1492.4457054211814,1492.4457054211814,1.0060577258585983,0.00516754501668998
1492.452649951627,1492.452649951627,1.0012525969986532,0.0051650094978679005
1492.4595944819794,1492.4595944819794,0.9975987982239598,0.005162725869178168
1492.4665390122386,1492.4665390122386,1.0048637560657883,0.0051622615520603415
1492.4734835424983,1492.4734835424983,0.9984555392112796,0.005162801894752839
1492.4804280725716,1492.4804280725716,0.9970755808862559,0.0051660838578877774
1492.4873726026913,1492.4873726026913,0.9968829196852305,0.005163629398610392
1492.4943171327643,1492.4943171327643,0.9980530632290604,0.005180814742566039
1492.5012616626514,1492.5012616626514,1.0026570828171857,0.005178096121856597
1492.508206192631,1492.508206192631,1.005657358809985,0.005169678378364457
1492.5151507224714,1492.5151507224714,0.9991748526156105,0.005185038609207086
1492.5220952522186,1492.5220952522186,0.9964892665361328,0.005178379905672805
1492.5290397819656,1492.5290397819656,0.9977338443016546,0.005166107228471987
1492.5359843116198,1492.5359843116198,1.00354591942462,0.0051707707909406245
1492.5429288412274,1492.5429288412274,1.0036478405816045,0.005177823934145382
1492.5498733707414,1492.5498733707414,0.9939702950215468,0.005169952533495604
1492.556817900256,1492.556817900256,0.9959042496663099,0.005175666816624131
1492.5637624295841,1492.5637624295841,1.0020556778723502,0.005176130707689032
1492.5707069589585,1492.5707069589585,1.006039141305753,0.005176115695663782
1492.5776514881934,1492.5776514881934,1.0004818609621733,0.0051767993267097055
1492.5845960174286,1492.5845960174286,0.9963484617982162,0.005171332130363296
1492.59154054657,1492.59154054657,1.0018566928443142,0.005184020955113487
1492.5984850756192,1492.5984850756192,1.0002558176655856,0.005172088594349639
1492.6054296046682,1492.6054296046682,0.9995589502638083,0.005168909087595877
1492.6123741335305,1492.6123741335305,0.9979815983734681,0.005167229685853722
1492.6193186623927,1492.6193186623927,0.9990851262226157,0.005175813220929875
1492.6262631912552,1492.6262631912552,1.0032179457767616,0.005166124754197631
1492.6332077201175,1492.6332077201175,1.0008621235776156,0.00517089951025968
1492.6401522487472,1492.6401522487472,1.002301827360562,0.00517595272691756
1492.6470967774235,1492.6470967774235,1.0027492927871704,0.005169910361155225
1492.654041305913,1492.654041305913,1.000789467369052,0.005157523572785833
1492.6609858344495,1492.6609858344495,0.996864806121458,0.005162518584658086
1492.6679303628928,1492.6679303628928,1.0062347092344919,0.005157735837785485
1492.6748748912432,1492.6748748912432,0.9967284554869584,0.005163881712773042
1492.6818194195464,1492.6818194195464,0.9981813099998739,0.005167104421289636
1492.6887639477575,1492.6887639477575,0.9936808229033455,0.005161659439813363
1492.695708475921,1492.695708475921,0.9997523790002456,0.00516873068234241
1492.7026530039916,1492.7026530039916,1.009094610246739,0.00516575145549915
1492.7095975320626,1492.7095975320626,1.0052355523986054,0.005170538784078147
1492.7165420600404,1492.7165420600404,0.9938093576678326,0.0051652376545757
1492.7234865878781,1492.7234865878781,0.9988948573110544,0.005162363700855235
1492.7304311158093,1492.7304311158093,0.9927236006042829,0.005159720799531238
1492.7373756435077,1492.7373756435077,0.9994360543077043,0.0051615461157802685
1492.7443201712056,1492.7443201712056,0.9983592609499328,0.005158057156139426
1492.7512646989042,1492.7512646989042,0.9998995336752738,0.005167656673877205
1492.7582092264165,1492.7582092264165,1.008154276885049,0.005169787621726196
1492.7651537539286,1492.7651537539286,1.104765221773659,0.005187886843319115
1492.772098281394,1492.772098281394,1.0242730790496866,0.005123305509166004
1492.7790428087196,1492.7790428087196,1.00219467072943,0.005113076483437651
1492.7859873359987,1492.7859873359987,0.9959751885626723,0.005118339993214573
1492.7929318632778,1492.7929318632778,0.9992504581674867,0.005135876970854291
1492.7998763904175,1492.7998763904175,1.0025407108843223,0.00513232922314095
1492.8068209175103,1492.8068209175103,0.9958831140063671,0.00514624394280519
1492.8137654445568,1492.8137654445568,0.9950277881871858,0.005143489455939239
1492.8207099714632,1492.8207099714632,0.998497240948305,0.005145408348820602
1492.82765449837,1492.82765449837,0.9990292216395721,0.005148242415740042
1492.8345990251833,1492.8345990251833,0.995635769205143,0.005158128583848672
1492.841543551997,1492.841543551997,0.9984276207253899,0.005149921464898016
1492.8484880786707,1492.8484880786707,1.003851222721763,0.005151430237200395
1492.8554326052977,1492.8554326052977,0.9975848530197229,0.005154648138473112
1492.862377131832,1492.862377131832,1.0017467015588115,0.005171997007050689
1492.8693216583663,1492.8693216583663,1.0077019049475986,0.005154617897574062
1492.8762661847136,1492.8762661847136,1.0036126313402791,0.005156200729190879
1492.8832107110618,1492.8832107110618,0.9973979102465312,0.005152220187093218
1492.8901552373632,1492.8901552373632,0.9965547048438198,0.005146088306672365
1492.897099763571,1492.897099763571,0.9965832231163182,0.0051496814494020795
1492.9040442897326,1492.9040442897326,1.003183768868564,0.005162918488119651
1492.9109888157545,1492.9109888157545,0.9997965654377069,0.00516850005911981
1492.9179333418228,1492.9179333418228,0.9980910265217908,0.005159504798160782
1492.9248778677056,1492.9248778677056,1.0018794624351635,0.005169103643498413
1492.931822393588,1492.931822393588,0.9999396848005887,0.005177228227206274
1492.938766919377,1492.938766919377,1.0038989291709177,0.005179466875646517
1492.9457114451193,1492.9457114451193,1.00262766044079,0.005174653475603989
1492.9526559707688,1492.9526559707688,0.9935299606730492,0.005166363610462738
1492.9596004963714,1492.9596004963714,1.0053874910568572,0.005173012786009977
1492.9665450219277,1492.9665450219277,0.9989786456318308,0.005176210418302315
1492.9734895472977,1492.9734895472977,0.9979369058869283,0.005167644750090381
1492.9804340726673,1492.9804340726673,0.9969342086535375,0.005160128903715737
1492.9873785980376,1492.9873785980376,1.004589836225049,0.00516123550439144
1492.9943231233142,1492.9943231233142,0.9988872524035779,0.005158996161170313
1493.001267648498,1493.001267648498,0.9984858433696461,0.005156780186730934
1493.0082121735882,1493.0082121735882,1.0046813912664683,0.005153575151302458
1493.0151566986792,1493.0151566986792,0.9994567925107092,0.00516225517403691
1493.0221012235834,1493.0221012235834,1.001075908783914,0.0051593212674487165
1493.0290457484873,1493.0290457484873,0.9951149980463366,0.005174833696298259
1493.0359902733453,1493.0359902733453,1.003427926038762,0.005160282220629809
1493.04293479811,1493.04293479811,1.0018113962944522,0.005152444525432089
1493.0498793227812,1493.0498793227812,0.9964389097598312,0.005158061658750541
1493.0568238474063,1493.0568238474063,1.0024407343102624,0.005153393192631218
1493.0637683719383,1493.0637683719383,0.9975389627248351,0.005149764247749259
1493.0707128964696,1493.0707128964696,0.999065584878697,0.005164782693613914
1493.077657420862,1493.077657420862,0.999801255558151,0.005158390523560985
1493.084601945254,1493.084601945254,1.0036361684828414,0.005169205828271794
1493.091546469506,1493.091546469506,1.0009552829291448,0.005157682927261437
1493.0984909937124,1493.0984909937124,0.994075124613377,0.005154570527412224
1493.1054355178717,1493.1054355178717,1.0033220653015331,0.005161687978782562
1493.1123800418911,1493.1123800418911,1.0031906540580737,0.0051688703724645044
1493.1193245659103,1493.1193245659103,0.9968396435589529,0.005155696233400033
1493.1262690897906,1493.1262690897906,0.9951536118842,0.005155771567422113
1493.1332136136703,1493.1332136136703,1.007122905119698,0.00515986225593813
1493.140158137457,1493.140158137457,0.9974333560254024,0.00516063272111679
1493.1471026611973,1493.1471026611973,1.001020431658088,0.005157680258393821
1493.1540471848443,1493.1540471848443,1.0023313169909365,0.005163272198046955
1493.160991708398,1493.160991708398,0.997994855228181,0.005160099448344134
1493.1679362319055,1493.1679362319055,1.0027393945478111,0.005157568543380343
1493.1748807553663,1493.1748807553663,0.9960799265613023,0.0051581641305498225
1493.1818252787336,1493.1818252787336,1.0001299193973618,0.005163226060344869
1493.1887698020082,1493.1887698020082,0.9964698779931196,0.00516492086128013
1493.1957143252362,1493.1957143252362,1.0012253425878685,0.005161644157535652
1493.2026588484173,1493.2026588484173,1.0025605676134217,0.0051583223592340235
1493.2096033714593,1493.2096033714593,1.001095371051754,0.005170659772906243
1493.2165478945008,1493.2165478945008,1.0006546957062306,0.005166058465269098
1493.2234924174957,1493.2234924174957,1.000586085489911,0.0051635930076094644
1493.2304369403512,1493.2304369403512,0.9959925660370214,0.005160834670611854
1493.2373814631133,1493.2373814631133,0.9985830611833763,0.005151588558128708
1493.2443259858753,1493.2443259858753,1.0020228179971429,0.005152717645023128
1493.2512705085446,1493.2512705085446,1.0012669229009963,0.005154218850991635
1493.2582150311675,1493.2582150311675,0.9973826328261701,0.005152546360637742
1493.26515955365,1493.26515955365,0.9988122648403394,0.005142140136092356
1493.2721040760862,1493.2721040760862,1.0040011535405093,0.005155461869254507
1493.2790485985229,1493.2790485985229,0.9993469506742232,0.005145401371315431
1493.2859931208197,1493.2859931208197,1.004424050105333,0.005158648933728201
1493.2929376430695,1493.2929376430695,0.9974879161810055,0.005151960201752991
1493.2998821652732,1493.2998821652732,1.0017373909201306,0.00515565446601674
1493.3068266873368,1493.3068266873368,0.9958082054245823,0.005159773599209972
1493.3137712094008,1493.3137712094008,1.001211023283143,0.005163400041979934
1493.320715731278,1493.320715731278,1.0066588353192811,0.005163175214815777
1493.3276602531555,1493.3276602531555,0.9984274311387831,0.005159529248038181
1493.3346047750329,1493.3346047750329,0.99689140710013,0.005156348820762201
1493.3415492968174,1493.3415492968174,1.003491462726751,0.005158143368168054
1493.3484938185088,1493.3484938185088,0.9987502937637585,0.005172547134915946
1493.3554383401065,1493.3554383401065,0.9974686576356749,0.005167663282766898
1493.3623828617049,1493.3623828617049,1.0005652331234267,0.005163354216218493
1493.3693273831166,1493.3693273831166,1.0038584880017047,0.0051566407733892785
1493.3762719045283,1493.3762719045283,0.9989220338968554,0.005154071411635451
1493.3832164258938,1493.3832164258938,0.9974790306260681,0.005153651885116107
1493.3901609471193,1493.3901609471193,1.0068857101321202,0.005158694817461495
1493.3971054682982,1493.3971054682982,1.0002200413908953,0.005157683334701987
1493.4040499894304,1493.4040499894304,0.9969737693825456,0.005160683444119064
1493.4109945104701,1493.4109945104701,0.9991693872903304,0.005154282991285026
1493.4179390314625,1493.4179390314625,0.9990550698568581,0.005154708176360913
1493.4248835523622,1493.4248835523622,1.0023147892665698,0.005152824839764171
