time,time,flux,flux_err
1325.300120328903,1325.300120328903,0.9986708895104686,0.003928786451185713
1325.3084537110778,1325.3084537110778,1.0014565199599381,0.003937914330230317
1325.3167870934283,1325.3167870934283,1.0002582774242559,0.003946993284001767
1325.3244260274,1325.3244260274,1.0016345582369302,0.003614169080793408
1325.3313705129708,1325.3313705129708,0.9951933921045425,0.003621749707743178
1325.3383149986585,1325.3383149986585,0.9992976279176367,0.0036318807315309544
1325.3452594844623,1325.3452594844623,1.0001710447673775,0.0036428865120686055
1325.3522039704058,1325.3522039704058,1.0057536665124047,0.003656856300034097
1325.359148456454,1325.359148456454,0.9992783355210643,0.003666117259794806
1325.366092942619,1325.366092942619,0.9981958165771211,0.0036773065970483083
1325.3730374289112,1325.3730374289112,0.9973028359165383,0.0036870896196570615
1325.3799819152857,1325.3799819152857,1.003346343813086,0.0037023325264194822
1325.386926401823,1325.386926401823,1.0009451218273724,0.0037108560280508323
1325.3938708884532,1325.3938708884532,0.9998952653859696,0.00372166702041389
1325.4008153751884,1325.4008153751884,0.9976186396809034,0.0037311569192822512
1325.4077598620402,1325.4077598620402,1.003697896601657,0.003742752309457619
1325.4147043490198,1325.4147043490198,0.9964802960599688,0.003747812813895252
1325.4216488360807,1325.4216488360807,0.9948280674833674,0.003757653790644723
1325.4285933232463,1325.4285933232463,0.9985223121666081,0.0037661974206337537
1325.4355378105404,1325.4355378105404,1.0082499084102543,0.003780666575474256
1325.4424822979277,1325.4424822979277,1.00283779404197,0.003786894651669463
1325.4494267854193,1325.4494267854193,1.0014849169095392,0.0037976077347726318
1325.456371273016,1325.456371273016,1.0076200515020726,0.003810157039384439
1325.4633157607173,1325.4633157607173,0.9973808689273369,0.0038144483301474725
1325.4702602485236,1325.4702602485236,1.0015102731519836,0.003828926125843012
1325.4772047364345,1325.4772047364345,0.9976068024109331,0.003842842936538636
1325.484149224415,1325.484149224415,0.9962451385254422,0.0038579612716181403
1325.4910937125242,1325.4910937125242,0.9981245531997377,0.003876727225027641
1325.4980382007145,1325.4980382007145,0.9978727025137146,0.0038932774414755927
1325.5049826890092,1325.5049826890092,1.0037647430572327,0.003911088593466903
1325.5119271773979,1325.5119271773979,1.005169953308458,0.003926433625252022
1325.518871665879,1325.518871665879,0.9998342327165753,0.003937885088472148
1325.5258161544418,1325.5258161544418,0.9961206449395181,0.003949744884475125
1325.5327606431092,1325.5327606431092,0.9923793924320797,0.003960045923559504
1325.5397051318819,1325.5397051318819,1.0033751703263476,0.003973641895879637
1325.546649620701,1325.546649620701,0.9978208252356346,0.003979601050808218
1325.5535941096477,1325.5535941096477,1.0020265424241683,0.003992111740102983
1325.5605385986416,1325.5605385986416,1.0023769287489064,0.004002377377341698
1325.5674830877633,1325.5674830877633,1.0003476434368164,0.004012149287718078
1325.5744275769546,1325.5744275769546,1.0043761812697827,0.004017206657120168
1325.5813720662277,1325.5813720662277,0.9971586875174147,0.004023524010837324
1325.588316555582,1325.588316555582,0.9978833714918419,0.004027474742850708
1325.5952610450297,1325.5952610450297,0.9993173122892334,0.004033479935291559
1325.6022055345588,1325.6022055345588,1.005293590935893,0.004039425585643648
1325.609150024146,1325.609150024146,0.9962667768788641,0.00403981373620142
1325.6160945138383,1325.6160945138383,0.9986364412996442,0.004044665003346127
1325.6230390036003,1325.6230390036003,1.0017101538721649,0.004051114321613442
1325.6299834934434,1325.6299834934434,0.9995691476011089,0.004044384396789582
1325.6369279833568,1325.6369279833568,1.0006395468568718,0.004044682504251186
1325.6438724733398,1325.6438724733398,0.9956857932382681,0.00403935425990307
1325.6508169634162,1325.6508169634162,1.0048667303232552,0.004041643159019463
1325.6577614535622,1325.6577614535622,0.9982448592952213,0.0040355795189699305
1325.6647059437898,1325.6647059437898,1.0011342208715706,0.004038391381086975
1325.6716504340638,1325.6716504340638,0.9984019410050978,0.004035817399473056
1325.6785949244313,1325.6785949244313,0.9983386876665492,0.004034080094892948
1325.6855394148454,1325.6855394148454,1.0033046427639682,0.004034486746321948
1325.6924839053288,1325.6924839053288,1.003971563418982,0.004036491743138657
1325.699428395929,1325.699428395929,1.0006053038676814,0.0040359993764254075
1325.7063728865528,1325.7063728865528,0.9969314614153829,0.004035457976433074
1325.7133173772456,1325.7133173772456,0.9974944716341797,0.004040841151728572
1325.720261868032,1325.720261868032,0.9987140586532837,0.004043325043406346
1325.7272063588534,1325.7272063588534,0.9998192111665241,0.004046320383512198
1325.7341508497561,1325.7341508497561,1.005861573120395,0.004051092504241739
1325.7410953407173,1325.7410953407173,0.9934648109588544,0.004050504707816168
1325.7480398317362,1325.7480398317362,1.0040637940825323,0.0040697632103282476
1325.7549843228371,1325.7549843228371,1.0028025979616526,0.004063974283980934
1325.7619288139729,1325.7619288139729,0.9995805830775453,0.004065095422764689
1325.7688733051898,1325.7688733051898,0.9953931908585607,0.004066331953055081
1325.7758177964654,1325.7758177964654,1.002468785215068,0.004071849591562485
1325.7827622877871,1325.7827622877871,1.001017964598897,0.004073771692953044
1325.7897067791555,1325.7897067791555,0.9932562073745517,0.00407335111411619
1325.7966512706287,1325.7966512706287,1.0016095901960882,0.004077598414735125
1325.8035957621255,1325.8035957621255,0.9980316578324897,0.004076648513663836
1325.8105402536803,1325.8105402536803,1.0008236345563999,0.004080643229099389
1325.8174847452926,1325.8174847452926,1.004811528835932,0.004080988675498445
1325.8244292369875,1325.8244292369875,1.000779623130315,0.0040822188897729735
1325.831373728682,1325.831373728682,0.9998145318868541,0.004078029659640172
1325.838318220458,1325.838318220458,0.9998520965567707,0.00408102193734295
1325.845262712292,1325.845262712292,1.004622851470255,0.004082309965362351
1325.8522072041724,1325.8522072041724,0.9962876765671496,0.00408025394379408
1325.8591516960998,1325.8591516960998,0.9979857973957429,0.004078492448466546
1325.8660961880853,1325.8660961880853,0.9976714694422408,0.00407342399105095
1325.8730406801176,1325.8730406801176,1.0034826460759452,0.004070708561750775
1325.879985172196,1325.879985172196,1.0032391178152786,0.004065323721255527
1325.886929664333,1325.886929664333,1.0001171038490158,0.004061086319704723
1325.8938741565162,1325.8938741565162,1.0036968581598973,0.004056243478320764
1325.900818648723,1325.900818648723,0.9950765719357996,0.004048046301200261
1325.9077631409875,1325.9077631409875,0.9989350542605111,0.0040409443208217375
1325.9147076333338,1325.9147076333338,1.000871567060407,0.0040377948935089465
1325.9216521256917,1325.9216521256917,1.0022671268199468,0.004029889634908109
1325.9285966180967,1325.9285966180967,0.9984351688553188,0.00402466319451903
1325.9355411105594,1325.9355411105594,0.9987586456550064,0.004021845022018216
1325.9424856030455,1325.9424856030455,1.0015698837134988,0.004018466809202156
1325.9494300955782,1325.9494300955782,1.0010068530291913,0.004015856137643705
1325.956374588169,1325.956374588169,1.0000026370899457,0.004012604180950227
1325.9641524199146,1325.9641524199146,1.003688161240511,0.004011712651671046
1325.9716524720038,1325.9716524720038,1.003542554701367,0.004009894980066079
1325.9785969647228,1325.9785969647228,0.9931543051407715,0.004004473282070825
1325.9855414574763,1325.9855414574763,0.9972586122313182,0.004005912907339924
1325.9924859502648,1325.9924859502648,1.000480077602053,0.004008651042753945
1325.9994304431123,1325.9994304431123,0.9999032792875786,0.004010623377225858
1326.0063749359706,1326.0063749359706,0.9998650042092111,0.004010764009542428
1326.013319428876,1326.013319428876,0.998989376602896,0.004013511631379948
1326.0202639218273,1326.0202639218273,1.003649892445147,0.004019208231518444
1326.027208414826,1326.027208414826,0.9979179494617529,0.004021922440533951
1326.0341529078357,1326.0341529078357,1.0038268252086577,0.004019720111464776
1326.041097400892,1326.041097400892,0.9996203001429589,0.004013116586044618
1326.0480418939956,1326.0480418939956,0.9937439328404608,0.0040076339373932715
1326.0549863870867,1326.0549863870867,0.9987616268071369,0.004010787316217493
1326.0619308802711,1326.0619308802711,1.0028627634552252,0.004013377371437546
1326.0688753734676,1326.0688753734676,1.0046396237561468,0.0040132787385768
1326.0758198666865,1326.0758198666865,0.9995849275054306,0.004011675646891083
1326.0827643599648,1326.0827643599648,1.0011881720136435,0.004010472931305686
1326.089708853254,1326.089708853254,0.9982625353721231,0.0040141313986497545
1326.0966533465785,1326.0966533465785,1.002917282347639,0.004013797091883232
1326.1035978399261,1326.1035978399261,0.9932221852994033,0.004008359482393036
1326.1105423333315,1326.1105423333315,1.0008818703367868,0.0040103040977556206
1326.1174868267258,1326.1174868267258,1.004597665739451,0.004013061393010188
1326.124431320201,1326.124431320201,0.9983195389644022,0.004010112129490857
1326.1313758136653,1326.1313758136653,0.9979242978370323,0.004008900599513455
1326.1383203071753,1326.1383203071753,0.9984530229417279,0.0040067357334745415
1326.1452648007096,1326.1452648007096,0.9996932316218784,0.004008395244799817
1326.1522092942782,1326.1522092942782,0.9979183123450307,0.004004703764923354
1326.1591537878699,1326.1591537878699,1.0064794013666492,0.004008025093820233
1326.1660982814972,1326.1660982814972,0.9991458105244717,0.0040011058188071805
1326.1730427751354,1326.1730427751354,1.0013222291941881,0.004002308623350266
1326.179987268809,1326.179987268809,1.0046408541109755,0.004003008632529862
1326.1869317625176,1326.1869317625176,0.9985224721389614,0.003998293582631287
1326.1938762562488,1326.1938762562488,0.9925914226372681,0.003993616663330133
1326.200820749981,1326.200820749981,1.001386081318293,0.003994653574931363
1326.2077652437706,1326.2077652437706,0.996934058728759,0.003989111617791179
1326.2147097375728,1326.2147097375728,1.000996713381849,0.003990858064820481
1326.221654231397,1326.221654231397,0.9970400882397479,0.003986310267909765
1326.2285987252453,1326.2285987252453,1.006131656767187,0.0039899176957823536
1326.2355432191166,1326.2355432191166,0.9984732243737785,0.003982907792196793
1326.2424877130227,1326.2424877130227,1.0046115638946267,0.003986962895467862
1326.2494322069413,1326.2494322069413,0.9968547285571419,0.003983204109847339
1326.2563767008821,1326.2563767008821,1.0021299941529,0.003982785763416925
1326.2633211948469,1326.2633211948469,1.004185872464907,0.003982501015105258
1326.270265688823,1326.270265688823,0.9999639780765529,0.003980091373852591
1326.2772101828339,1326.2772101828339,0.9945690342627644,0.003976066478701525
1326.284154676857,1326.284154676857,0.9985249623295797,0.003978651635559235
1326.2910991709145,1326.2910991709145,0.9938058659547769,0.003978015179694146
1326.2980436649839,1326.2980436649839,1.0086252737273373,0.003982369815403461
1326.3049881590762,1326.3049881590762,0.9947666025158947,0.003974740666207359
1326.3119326531807,1326.3119326531807,0.9997543232845736,0.003977983489792364
1326.318877147308,1326.318877147308,1.0008844425804795,0.003978889410983986
1326.3258216414586,1326.3258216414586,1.0018794906326964,0.003980733709478009
1326.3327661356102,1326.3327661356102,1.0013018388403245,0.00397961786261891
1326.339710629807,1326.339710629807,1.0025559108013709,0.00398106154302589
1326.3472106835495,1326.3472106835495,0.9980747470104461,0.003982225718456578
1326.3563774159272,1326.3563774159272,1.0012208031492817,0.003983804808080693
1326.3633219101596,1326.3633219101596,0.9980334088289166,0.003984938386791293
1326.3702664044267,1326.3702664044267,0.9923096303695997,0.003986806351418013
1326.3772108986939,1326.3772108986939,1.0041377880592588,0.003992854010924845
1326.384155392996,1326.384155392996,0.9969557172931992,0.003994146080441038
1326.39109988731,1326.39109988731,0.9978832406277874,0.003996501853718364
1326.3980443816238,1326.3980443816238,0.9989474315719944,0.003997527160686039
1326.4049888759841,1326.4049888759841,1.0011901625301216,0.0039985386136330335
1326.4119333703331,1326.4119333703331,1.0046097536129959,0.00400419784499066
1326.4188778647049,1326.4188778647049,1.0007547253239208,0.003999313372093074
1326.4258223590884,1326.4258223590884,0.9992923974440451,0.004000495446124253
1326.4327668534836,1326.4327668534836,0.9925101659398081,0.003997393696771895
1326.4397113479022,1326.4397113479022,1.0004483829989501,0.004000202798600907
1326.4466558423326,1326.4466558423326,1.0002295487051374,0.004000936377296929
1326.4536003367625,1326.4536003367625,1.0075547267911449,0.004002922771516615
1326.460544831216,1326.460544831216,0.9942654063287171,0.0039999754102586155
1326.467489325693,1326.467489325693,1.0007919570912844,0.004003428985862353
1326.4744338201695,1326.4744338201695,1.0012869769803874,0.004006369646400531
1326.4813783146699,1326.4813783146699,1.0096850439617846,0.004008450174199213
1326.4883228091812,1326.4883228091812,0.9935021226922707,0.0040002901587987486
1326.4952673036817,1326.4952673036817,0.9982486718651856,0.004003658589287439
1326.5022117982164,1326.5022117982164,0.99708007304289,0.004001927891022855
1326.5091562927514,1326.5091562927514,0.999954477004222,0.004008762534220015
1326.516100787298,1326.516100787298,0.9965596761398571,0.004012378858366236
1326.523045281868,1326.523045281868,1.0027525456447641,0.0040194404046601335
1326.5299897764378,1326.5299897764378,1.004394769839126,0.004021128183385063
1326.5369342710308,1326.5369342710308,1.0013115622837692,0.004026836802415475
1326.5438787655894,1326.5438787655894,1.0006779315809786,0.004033317769845389
1326.550823260194,1326.550823260194,1.0017575418198548,0.0040349543835276015
1326.557767754822,1326.557767754822,0.9944053062581611,0.004031830402813621
1326.5647122494618,1326.5647122494618,1.0009321606973411,0.004038135002100283
1326.5716567440666,1326.5716567440666,0.9921815890746404,0.004035490407788209
1326.57860123873,1326.57860123873,1.003616070287461,0.004043785327315997
1326.5855457333691,1326.5855457333691,0.999578510454224,0.0040427930004729926
1326.5924902280326,1326.5924902280326,1.0092498190501284,0.0040492321977379465
1326.5994347226956,1326.5994347226956,0.9987677781625433,0.004044205548885247
1326.6063792173586,1326.6063792173586,0.9964384423604026,0.0040421333828664025
1326.6133237120566,1326.6133237120566,0.9975496653621596,0.004039570275080991
1326.6202682067426,1326.6202682067426,0.9986680019216246,0.0040397422189214
1326.6272127014295,1326.6272127014295,0.999635660965129,0.004040310923096368
1326.6341571961384,1326.6341571961384,0.9999247030558924,0.004039654358595584
1326.6411016908485,1326.6411016908485,1.0058317307514986,0.004041746420226807
1326.6480461855695,1326.6480461855695,0.9980737804079622,0.004036388148076298
1326.6549906802907,1326.6549906802907,1.004222111463929,0.0040381677827225505
1326.661935175024,1326.661935175024,0.9999629055682338,0.004032674285597477
1326.668879669768,1326.668879669768,0.9959613824381839,0.004030472346059033
1326.6758241645014,1326.6758241645014,0.998843915109218,0.004028301456176535
1326.6827686592455,1326.6827686592455,1.0009766516904723,0.0040294408149301655
1326.6908242731736,1326.6908242731736,0.9981606823386452,0.00402691740851289
1326.6980465477252,1326.6980465477252,1.0003661811954205,0.004025095258958749
1326.7049910424932,1326.7049910424932,1.0023432151276543,0.00402309120496876
1326.712491096841,1326.712491096841,0.9974663905980347,0.004019964662928391
1326.7202689309966,1326.7202689309966,0.9966750568367093,0.004016719064155556
1326.727213425776,1326.727213425776,1.0016432490041842,0.004018495569181217
1326.7341579205554,1326.7341579205554,1.002140458175915,0.004012952524762213
1326.7411024153585,1326.7411024153585,1.0006762727567142,0.0040145212388335155
1326.748046910149,1326.748046910149,1.0013402763442456,0.004014420338863541
1326.7549914049516,1326.7549914049516,1.001222439046913,0.004013515657728111
1326.7619358997547,1326.7619358997547,0.9966965317639425,0.004010414186089617
1326.7688803945455,1326.7688803945455,1.0049159606343143,0.004012580910349862
1326.7758248893717,1326.7758248893717,0.9993518404447868,0.0040099038512017935
1326.7827693841743,1326.7827693841743,0.9945656647691562,0.0040091378120062715
1326.7897138790006,1326.7897138790006,1.0015809071743023,0.004014715861826091
1326.7966583738148,1326.7966583738148,1.004317283016747,0.004018973627729475
1326.8036028686292,1326.8036028686292,0.9953370501682386,0.004014185643455922
1326.810547363455,1326.810547363455,1.0025996163616369,0.004019490389843936
1326.8174918582808,1326.8174918582808,1.0052291789380907,0.004021962166500706
1326.8244363531187,1326.8244363531187,1.0072952876063,0.004022430275883164
1326.8313808479447,1326.8313808479447,0.9949563810690233,0.00401708650376768
1326.8383253427826,1326.8383253427826,0.9959526627646544,0.004018280001731086
1326.8452698376084,1326.8452698376084,0.9985179978721057,0.004017009433348267
1326.8522143324462,1326.8522143324462,1.0013486589516172,0.004016889730074385
1326.8591588272836,1326.8591588272836,1.000036405035388,0.0040145748223924275
1326.866103322122,1326.866103322122,0.997253523151364,0.004009545853241649
1326.8730478169593,1326.8730478169593,1.000309596987572,0.004004271340299271
1326.8799923118083,1326.8799923118083,1.0029171147566986,0.004002861404770658
1326.8869368066462,1326.8869368066462,1.0014498934257217,0.003993602368498276
1326.8938813014836,1326.8938813014836,0.9962095907068449,0.003983592631814982
1326.900825796333,1326.900825796333,0.9968108924007131,0.003976189538566726
1326.9077702911704,1326.9077702911704,1.0041664848755274,0.003976095999733714
1326.9147147860199,1326.9147147860199,1.0007019686700906,0.003966713001034882
1326.9216592808575,1326.9216592808575,1.003302308313278,0.003960477210381432
1326.928603775707,1326.928603775707,0.9983333860867665,0.003953888959040349
1326.9355482705448,1326.9355482705448,1.0047965896511986,0.003949458082240067
1326.9424927653938,1326.9424927653938,0.9972605821221121,0.003945313205719438
1326.9494372602317,1326.9494372602317,1.0014183686726184,0.003941547013993584
1326.9563817550693,1326.9563817550693,0.9932866077276525,0.003932507605179611
1326.9633262499187,1326.9633262499187,1.0001195132195588,0.003931552483255505
1326.9702707447564,1326.9702707447564,1.0048659049187452,0.003931312167128162
1326.9772152395935,1326.9772152395935,1.0022512000110737,0.003929168005407765
1326.9841597344318,1326.9841597344318,0.9962634652904878,0.00392265447845419
1326.9911042292692,1326.9911042292692,0.9969032361742676,0.003918800623744589
1326.998048724107,1326.998048724107,0.9979040593643879,0.003911555351529664
1327.0049932189445,1327.0049932189445,1.003328069164148,0.003909813628502236
1327.0119377137705,1327.0119377137705,1.0011762784457474,0.0039011669029903493
1327.0188822085966,1327.0188822085966,0.9967624772544033,0.0038971489541236226
1327.025826703434,1327.025826703434,0.9935427767388187,0.0038907836319786323
1327.0327711982604,1327.0327711982604,1.005040136230663,0.003898661438476795
1327.039715693086,1327.039715693086,0.9996032933454947,0.0038912635901909485
1327.0466601879125,1327.0466601879125,1.0108560393837576,0.0038978968211180096
1327.0536046827149,1327.0536046827149,1.007542607687268,0.0038968052762741526
1327.0613825169287,1327.0613825169287,0.9996793922465141,0.0038928637599107223
1327.0688825713112,1327.0688825713112,0.9980550894240736,0.0038920936077532975
1327.0758270661377,1327.0758270661377,0.9931814750378493,0.0038938574508683294
1327.082771560928,1327.082771560928,1.0009160361852207,0.003895964355646816
1327.0897160557543,1327.0897160557543,0.9983695460742241,0.0038955678348226016
