time,time,flux,flux_err
1517.3495792908075,1517.3495792908075,,
1517.3509682079848,1517.3509682079848,,
1517.3523571253954,1517.3523571253954,,
1517.3537460428047,1517.3537460428047,,
1517.3565238773904,1517.3565238773904,,
1517.357912794801,1517.357912794801,,
1517.3593017122107,1517.3593017122107,,
1517.3606906298533,1517.3606906298533,26087.826,29.207352
1517.3620795472632,1517.3620795472632,26296.342,29.181492
1517.364857382082,1517.364857382082,26080.447,29.012981
1517.3662462997254,1517.3662462997254,26112.707,28.944471
1517.367635217135,1517.367635217135,26058.45,28.863827
1517.3690241345444,1517.3690241345444,26112.205,28.834764
1517.3718019698308,1517.3718019698308,26100.297,28.6867
1517.37319088724,1517.37319088724,26016.893,28.664568
1517.3745798048826,1517.3745798048826,26057.084,28.579454
1517.3759687225252,1517.3759687225252,26085.525,28.554073
1517.3773576401677,1517.3773576401677,26089.523,28.495144
1517.3787465578102,1517.3787465578102,26223.39,28.418999
1517.3801354754528,1517.3801354754528,26088.828,28.343803
1517.3815243930956,1517.3815243930956,26083.533,28.307762
1517.3829133107374,1517.3829133107374,26151.312,28.253775
1517.3843022283809,1517.3843022283809,26129.709,28.180004
1517.385691146024,1517.385691146024,26083.457,28.151335
1517.387080063666,1517.387080063666,26112.502,28.086815
1517.3884689815409,1517.3884689815409,26064.48,28.03952
1517.389857899184,1517.389857899184,26058.898,27.965294
1517.3912468170602,1517.3912468170602,26070.742,27.934114
1517.3926357347023,1517.3926357347023,26085.672,27.900972
1517.3940246525776,1517.3940246525776,26210.496,27.86681
1517.3954135702202,1517.3954135702202,26115.893,27.787884
1517.3968024880955,1517.3968024880955,26117.688,27.774855
1517.3995803238465,1517.3995803238465,26138.879,27.651072
1517.4009692417221,1517.4009692417221,26148.85,27.624155
1517.4023581593638,1517.4023581593638,26136.088,27.572845
1517.40374707724,1517.40374707724,26097.73,27.513819
1517.4051359953492,1517.4051359953492,26139.22,27.48042
1517.4065249132236,1517.4065249132236,26066.81,27.419971
1517.407913831099,1517.407913831099,26156.658,27.429562
1517.4093027489753,1517.4093027489753,26092.992,27.368135
1517.4106916668507,1517.4106916668507,26154.621,27.322083
1517.4120805849584,1517.4120805849584,26154.52,27.315153
1517.4134695028338,1517.4134695028338,26087.129,27.258595
1517.414858420942,1517.414858420942,26141.783,27.208231
1517.4162473388174,1517.4162473388174,26131.045,27.17649
1517.4176362569265,1517.4176362569265,26107.223,27.152037
1517.4190251748018,1517.4190251748018,26098.293,27.102549
1517.4204140929096,1517.4204140929096,26147.836,27.085182
1517.421803011017,1517.421803011017,26114.463,27.04214
1517.4231919288932,1517.4231919288932,26125.662,27.00249
1517.4245808470023,1517.4245808470023,26138.564,26.982637
1517.4259697651096,1517.4259697651096,26106.332,26.936028
1517.427358683218,1517.427358683218,26115.322,26.906445
1517.428747601327,1517.428747601327,26141.904,26.887632
1517.430136519435,1517.430136519435,26110.336,26.860973
1517.4315254375429,1517.4315254375429,26115.145,26.815834
1517.432914355651,1517.432914355651,26078.596,26.778166
1517.434303273992,1517.434303273992,26088.691,26.76985
1517.4356921921003,1517.4356921921003,26140.008,26.71539
1517.4370811102094,1517.4370811102094,26136.145,26.696976
1517.4384700285505,1517.4384700285505,26153.768,26.672474
1517.4398589466582,1517.4398589466582,26127.525,26.643244
1517.4412478649992,1517.4412478649992,26105.463,26.612032
1517.4426367831084,1517.4426367831084,26146.39,26.58269
1517.4440257014494,1517.4440257014494,26093.316,26.558945
1517.4454146195567,1517.4454146195567,26130.41,26.52734
1517.446803537898,1517.446803537898,26135.545,26.501266
1517.4481924562397,1517.4481924562397,26139.326,26.501707
1517.4495813745807,1517.4495813745807,26199.076,26.444294
1517.4509702926891,1517.4509702926891,26163.334,26.431393
1517.4523592110304,1517.4523592110304,26104.172,26.399809
1517.4537481293705,1517.4537481293705,26103.385,26.385681
1517.4551370477116,1517.4551370477116,26116.148,26.362898
1517.4565259660535,1517.4565259660535,26143.023,26.343184
1517.4579148843945,1517.4579148843945,26124.111,26.315676
1517.4593038027351,1517.4593038027351,26170.418,26.294767
1517.460692721309,1517.460692721309,26132.727,26.26434
1517.462081639651,1517.462081639651,26180.97,26.251163
1517.463470557992,1517.463470557992,26152.549,26.242937
1517.4648594763323,1517.4648594763323,26164.0,26.21185
1517.4662483949064,1517.4662483949064,26145.395,26.194452
1517.467637313248,1517.467637313248,26182.314,26.173527
1517.4690262318218,1517.4690262318218,26134.324,26.139908
1517.470415150163,1517.470415150163,26174.582,26.12644
1517.4718040687371,1517.4718040687371,26142.18,26.113422
1517.4731929870773,1517.4731929870773,26155.418,26.095997
1517.474581905652,1517.474581905652,26205.113,26.079618
1517.4759708242268,1517.4759708242268,26136.281,26.059025
1517.4773597427998,1517.4773597427998,26155.688,26.0332
1517.4787486611403,1517.4787486611403,26132.266,26.018295
1517.4801375797142,1517.4801375797142,26175.992,26.005878
1517.481526498289,1517.481526498289,26202.164,25.987076
1517.4829154168629,1517.4829154168629,26104.271,25.942951
1517.4843043354367,1517.4843043354367,26165.938,25.93912
1517.4856932540106,1517.4856932540106,26096.2,25.90198
1517.4870821725845,1517.4870821725845,26146.86,25.917372
1517.4884710911585,1517.4884710911585,26194.219,25.901249
1517.4898600097326,1517.4898600097326,26175.885,25.855425
1517.4912489285393,1517.4912489285393,26129.662,25.836828
1517.4926378471123,1517.4926378471123,26169.115,25.827665
1517.494026765687,1517.494026765687,26196.832,25.816832
1517.4954156842618,1517.4954156842618,26120.186,25.773497
1517.4968046030676,1517.4968046030676,26115.01,25.777895
1517.498193521641,1517.498193521641,26190.07,25.78754
1517.4995824404477,1517.4995824404477,26189.412,25.757593
1517.5009713590225,1517.5009713590225,26150.629,25.72851
1517.5023602778292,1517.5023602778292,26161.656,25.68777
1517.503749196403,1517.503749196403,26185.596,25.697136
1517.5051381152098,1517.5051381152098,26155.434,25.680452
1517.5065270340165,1517.5065270340165,26156.463,25.66597
1517.5079159525912,1517.5079159525912,26147.416,25.628107
1517.509304871398,1517.509304871398,26202.85,25.63884
1517.5106937902042,1517.5106937902042,26180.512,25.611431
1517.5120827090102,1517.5120827090102,26133.865,25.600576
1517.5134716278176,1517.5134716278176,26186.443,25.587784
1517.5148605466252,1517.5148605466252,26135.361,25.57319
1517.5162494654312,1517.5162494654312,26133.752,25.550129
1517.5176383842381,1517.5176383842381,26166.535,25.541561
1517.5190273030448,1517.5190273030448,26134.312,25.509487
1517.5204162218515,1517.5204162218515,26173.041,25.504303
1517.5218051406582,1517.5218051406582,26179.643,25.499422
1517.523194059465,1517.523194059465,26175.275,25.482199
1517.5245829782716,1517.5245829782716,26161.725,25.463606
1517.5259718973114,1517.5259718973114,26153.055,25.443336
1517.5273608161187,1517.5273608161187,26127.13,25.442307
1517.5287497349254,1517.5287497349254,26145.1,25.417418
1517.5301386539645,1517.5301386539645,26134.1,25.381308
1517.5315275727705,1517.5315275727705,26149.703,25.41274
1517.5329164918107,1517.5329164918107,26142.963,25.369839
1517.5343054106183,1517.5343054106183,26151.646,25.36536
1517.5356943296572,1517.5356943296572,26149.854,25.351147
1517.5370832484641,1517.5370832484641,26120.633,25.336761
1517.5384721675036,1517.5384721675036,26128.95,25.322464
1517.5398610863103,1517.5398610863103,26124.705,25.312292
1517.5412500053499,1517.5412500053499,26164.418,25.296272
1517.5426389243894,1517.5426389243894,26208.697,25.314852
1517.544027843429,1517.544027843429,26192.809,25.294922
1517.5454167622358,1517.5454167622358,26129.0,25.253227
1517.546805681276,1517.546805681276,26161.371,25.248945
1517.5481946003156,1517.5481946003156,26191.658,25.245148
1517.5495835193547,1517.5495835193547,26123.604,25.218933
1517.5509724383942,1517.5509724383942,26138.373,25.197943
1517.5523613574346,1517.5523613574346,26155.227,25.202099
1517.5537502764741,1517.5537502764741,26137.402,25.179386
1517.5551391955132,1517.5551391955132,26154.385,25.170052
1517.5565281145527,1517.5565281145527,26164.479,25.167538
1517.5579170335923,1517.5579170335923,26146.479,25.163074
1517.5593059526318,1517.5593059526318,26173.527,25.143358
1517.560694871905,1517.560694871905,26142.758,25.136284
1517.5620837909446,1517.5620837909446,26124.129,25.111633
1517.5634727099834,1517.5634727099834,26133.229,25.105713
1517.5648616290232,1517.5648616290232,26155.305,25.09227
1517.566250548296,1517.566250548296,26161.066,25.09182
1517.5676394673358,1517.5676394673358,26110.219,25.07028
1517.5690283866074,1517.5690283866074,26140.805,25.064314
1517.570417305647,1517.570417305647,26191.162,25.065426
1517.5718062246874,1517.5718062246874,26172.537,25.062738
1517.5731951439598,1517.5731951439598,26141.81,25.039116
1517.5745840632317,1517.5745840632317,26132.723,25.025316
1517.5759729822712,1517.5759729822712,26137.791,25.016739
1517.5773619015436,1517.5773619015436,26115.59,24.999266
1517.578750820583,1517.578750820583,26148.156,25.006502
1517.5801397398563,1517.5801397398563,26154.541,24.997131
1517.5815286591287,1517.5815286591287,26136.082,24.972311
1517.5829175784004,1517.5829175784004,26135.09,24.949022
1517.5843064974406,1517.5843064974406,26115.125,24.962925
1517.5856954167139,1517.5856954167139,26171.748,24.95277
1517.5870843359855,1517.5870843359855,26154.01,24.949463
1517.5884732552572,1517.5884732552572,26160.94,24.93709
1517.5898621745296,1517.5898621745296,26142.861,24.925941
1517.5912510938028,1517.5912510938028,26145.145,24.925467
1517.5926400130752,1517.5926400130752,26123.633,24.905878
1517.5940289323476,1517.5940289323476,26152.2,24.888998
1517.59541785162,1517.59541785162,26192.402,24.897514
1517.5968067708918,1517.5968067708918,26149.908,24.875746
1517.5981956901642,1517.5981956901642,26168.516,24.88851
1517.5995846094374,1517.5995846094374,26164.86,24.870514
1517.6009735287098,1517.6009735287098,26144.387,24.863546
1517.6023624479817,1517.6023624479817,26161.11,24.852184
1517.6037513674873,1517.6037513674873,26157.06,24.838346
1517.6051402867606,1517.6051402867606,26127.623,24.833658
1517.6065292060325,1517.6065292060325,26092.11,24.820549
1517.6079181255368,1517.6079181255368,26231.484,24.836544
1517.6093070448092,1517.6093070448092,26139.887,24.825377
1517.6106959640824,1517.6106959640824,26156.887,24.808186
1517.6120848835876,1517.6120848835876,26171.344,24.80971
1517.61347380286,1517.61347380286,26165.594,24.788689
1517.6148627223654,1517.6148627223654,26168.666,24.79069
1517.616251641637,1517.616251641637,26131.074,24.770771
1517.6176405611432,1517.6176405611432,26149.04,24.78717
1517.6190294804162,1517.6190294804162,26191.453,24.774784
1517.6204183999207,1517.6204183999207,26163.486,24.777597
1517.6218073191926,1517.6218073191926,26133.379,24.767763
1517.6231962386983,1517.6231962386983,26209.725,24.75452
1517.6245851582044,1517.6245851582044,26167.46,24.749851
1517.625974077709,1517.625974077709,26172.912,24.750092
1517.6273629969814,1517.6273629969814,26153.824,24.750391
1517.6287519164866,1517.6287519164866,26146.084,24.727888
1517.6301408359918,1517.6301408359918,26108.305,24.70112
1517.631529755497,1517.631529755497,26188.795,24.70547
1517.6329186750022,1517.6329186750022,26133.293,24.696344
1517.6343075942748,1517.6343075942748,26205.56,24.717522
1517.6356965137793,1517.6356965137793,26143.416,24.66812
1517.6370854332854,1517.6370854332854,26175.941,24.69807
1517.6384743527913,1517.6384743527913,26209.686,24.694572
1517.6398632722958,1517.6398632722958,26156.646,24.683779
1517.6412521918005,1517.6412521918005,26114.19,24.650517
1517.6426411113064,1517.6426411113064,26176.553,24.655645
1517.6440300308122,1517.6440300308122,26172.764,24.661064
1517.645418950317,1517.645418950317,26198.617,24.65067
1517.646807870055,1517.646807870055,26147.46,24.62934
1517.6481967895602,1517.6481967895602,26169.146,24.662241
1517.6495857090654,1517.6495857090654,26127.668,24.614248
1517.6509746285715,1517.6509746285715,26128.361,24.625145
1517.6523635480767,1517.6523635480767,26151.365,24.613876
1517.6537524678142,1517.6537524678142,26155.053,24.62094
1517.6551413873185,1517.6551413873185,26131.266,24.585548
1517.6565303068246,1517.6565303068246,26160.32,24.596516
1517.6579192265635,1517.6579192265635,26182.443,24.604092
1517.6593081460678,1517.6593081460678,26184.953,24.583576
1517.660697065573,1517.660697065573,26119.145,24.559622
1517.662085985312,1517.662085985312,26222.459,24.596436
1517.6634749048171,1517.6634749048171,26145.713,24.563951
1517.6648638245547,1517.6648638245547,26161.385,24.557915
1517.6662527440599,1517.6662527440599,26157.129,24.580227
1517.667641663798,1517.667641663798,26158.578,24.543076
1517.669030583303,1517.669030583303,26160.65,24.562279
1517.670419503042,1517.670419503042,26128.771,24.557053
1517.6718084225472,1517.6718084225472,26166.383,24.536331
1517.6731973422848,1517.6731973422848,26150.387,24.511223
1517.6745862620219,1517.6745862620219,26149.016,24.537882
1517.675975181528,1517.675975181528,26150.047,24.50855
1517.677364101267,1517.677364101267,26116.309,24.502024
1517.678753021004,1517.678753021004,26136.205,24.494843
1517.6801419405094,1517.6801419405094,26174.15,24.513235
1517.6815308602481,1517.6815308602481,26165.615,24.48506
1517.6829197799862,1517.6829197799862,26147.098,24.472029
1517.6843086997237,1517.6843086997237,26125.344,24.460262
1517.6856976194617,1517.6856976194617,26118.426,24.460573
1517.687086538967,1517.687086538967,26187.695,24.458385
1517.688475458705,1517.688475458705,26194.697,24.474394
1517.6898643784439,1517.6898643784439,26162.66,24.470024
1517.691253298182,1517.691253298182,26142.303,24.461645
1517.6926422179195,1517.6926422179195,26171.889,24.445114
1517.6940311376575,1517.6940311376575,26158.297,24.43719
1517.6954200573964,1517.6954200573964,26197.611,24.436
1517.6968089771344,1517.6968089771344,26162.318,24.458862
1517.6981978968715,1517.6981978968715,26142.787,24.419563
1517.6995868166098,1517.6995868166098,26181.408,24.415504
1517.7009757363485,1517.7009757363485,26146.217,24.41765
1517.7023646560865,1517.7023646560865,26160.393,24.394165
1517.7037535758247,1517.7037535758247,26171.918,24.397026
1517.7051424957958,1517.7051424957958,26153.494,24.386465
1517.706531415533,1517.706531415533,26152.74,24.377632
1517.707920335271,1517.707920335271,26163.178,24.371447
1517.7093092550099,1517.7093092550099,26137.518,24.380821
1517.710698174748,1517.710698174748,26164.105,24.370651
1517.7120870947183,1517.7120870947183,26135.246,24.344116
1517.7134760144563,1517.7134760144563,26202.77,24.367798
1517.7148649341952,1517.7148649341952,26138.686,24.338293
1517.716253854166,1517.716253854166,26152.285,24.340185
1517.7176427739034,1517.7176427739034,26168.781,24.331455
1517.7190316936417,1517.7190316936417,26159.35,24.341932
1517.720420613613,1517.720420613613,26197.7,24.3373
1517.721809533351,1517.721809533351,26167.94,24.323856
1517.723198453322,1517.723198453322,26121.865,24.29395
1517.7245873730603,1517.7245873730603,26148.438,24.301332
1517.7259762927974,1517.7259762927974,26190.213,24.30094
1517.7273652127692,1517.7273652127692,26148.383,24.29334
1517.7287541325081,1517.7287541325081,26130.037,24.272318
1517.730143052478,1517.730143052478,26179.906,24.297087
1517.7315319724485,1517.7315319724485,26165.67,24.25778
1517.7329208921865,1517.7329208921865,26168.734,24.263058
1517.7343098121582,1517.7343098121582,26180.107,24.267502
1517.7356987318963,1517.7356987318963,26192.232,24.25977
1517.7370876518671,1517.7370876518671,26164.227,24.254292
1517.738476571838,1517.738476571838,26166.363,24.242744
1517.739865491576,1517.739865491576,26161.5,24.261961
1517.741254411547,1517.741254411547,26172.78,24.240618
1517.7426433315181,1517.7426433315181,26181.97,24.230528
1517.7440322512562,1517.7440322512562,26156.309,24.226696
1517.745421171226,1517.745421171226,26169.695,24.226263
1517.7468100911979,1517.7468100911979,26169.191,24.228758
1517.7481990111696,1517.7481990111696,26175.912,24.22401
1517.7495879311396,1517.7495879311396,26118.889,24.205574
1517.7509768508771,1517.7509768508771,26103.793,24.189072
1517.752365770848,1517.752365770848,26162.75,24.193823
1517.7537546908197,1517.7537546908197,26178.24,24.200766
1517.7551436107906,1517.7551436107906,26146.406,24.185204
1517.7565325307614,1517.7565325307614,26187.902,24.199005
1517.7579214507323,1517.7579214507323,26158.32,24.182516
1517.7593103707031,1517.7593103707031,26103.982,24.155582
1517.7606992906742,1517.7606992906742,26172.828,24.178867
1517.7620882106453,1517.7620882106453,26145.557,24.156595
1517.7634771306161,1517.7634771306161,26138.135,24.145002
1517.7648660505863,1517.7648660505863,26130.873,24.151262
1517.7662549705578,1517.7662549705578,26180.984,24.138813
1517.7676438905296,1517.7676438905296,26186.256,24.150558
1517.7690328104998,1517.7690328104998,26168.482,24.1316
1517.7704217304708,1517.7704217304708,26178.24,24.141262
1517.7718106504417,1517.7718106504417,26145.078,24.117418
1517.7731995704125,1517.7731995704125,26158.426,24.125925
1517.7745884903834,1517.7745884903834,26154.52,24.123278
1517.7759774103542,1517.7759774103542,26189.738,24.106281
1517.777366330325,1517.777366330325,26136.697,24.091105
1517.778755250529,1517.778755250529,26182.367,24.11202
1517.7801441705005,1517.7801441705005,26170.16,24.104168
1517.7815330904714,1517.7815330904714,26171.314,24.095688
1517.7829220104418,1517.7829220104418,26165.822,24.082846
1517.784310930412,1517.784310930412,26154.344,24.086985
1517.7856998506163,1517.7856998506163,26165.51,24.09631
1517.787088770588,1517.787088770588,26133.562,24.072323
1517.7884776905582,1517.7884776905582,26195.633,24.072582
1517.7898666107621,1517.7898666107621,26156.135,24.046059
1517.791255530733,1517.791255530733,26130.53,24.038168
1517.7926444507038,1517.7926444507038,26133.963,24.052486
1517.7940333709075,1517.7940333709075,26156.877,24.036032
1517.7954222908784,1517.7954222908784,26145.922,24.031961
1517.7968112108492,1517.7968112108492,26119.166,24.02364
1517.7982001310531,1517.7982001310531,26177.088,24.042894
1517.7995890510247,1517.7995890510247,26162.732,24.0468
1517.8009779712283,1517.8009779712283,26138.268,24.03079
1517.8023668911987,1517.8023668911987,26120.355,24.01027
1517.803755811402,1517.803755811402,26157.934,24.015566
1517.8051447313733,1517.8051447313733,26130.736,24.001215
1517.8065336515779,1517.8065336515779,26169.213,24.01262
1517.8079225715483,1517.8079225715483,26148.602,23.992329
1517.809311491752,1517.809311491752,26170.094,23.994759
1517.8107004117228,1517.8107004117228,26173.611,24.004995
1517.8120893319265,1517.8120893319265,26149.402,23.99151
1517.8134782518982,1517.8134782518982,26158.293,23.967718
1517.814867172102,1517.814867172102,26139.684,23.978935
1517.816256092305,1517.816256092305,26162.408,23.971481
1517.817645012276,1517.817645012276,26110.832,23.96036
1517.8190339324801,1517.8190339324801,26126.625,23.97309
1517.820422852684,1517.820422852684,26151.785,23.96584
1517.8218117726542,1517.8218117726542,26185.566,23.965948
1517.8232006928579,1517.8232006928579,26183.207,23.963892
1517.8245896130625,1517.8245896130625,26119.758,23.93779
1517.8259785330333,1517.8259785330333,26155.652,23.951765
1517.8273674532365,1517.8273674532365,26167.793,23.948841
1517.8287563734402,1517.8287563734402,26126.955,23.907997
1517.830145293411,1517.830145293411,26199.5,23.959608
1517.8315342136148,1517.8315342136148,26210.02,23.953856
1517.8329231338193,1517.8329231338193,26189.914,23.94011
1517.834312054023,1517.834312054023,26164.744,23.940176
1517.835700974226,1517.835700974226,26157.223,23.928537
1517.837089894197,1517.837089894197,26163.19,23.905552
1517.8384788144012,1517.8384788144012,26160.021,23.908419
1517.8398677346051,1517.8398677346051,26153.354,23.91544
1517.8412566548081,1517.8412566548081,26169.879,23.92143
1517.8426455750118,1517.8426455750118,26143.824,23.905766
