time,time,flux,flux_err
1410.905110964574,1410.905110964574,1.0000306568383583,0.00010310935855229166
1410.9127499799397,1410.9127499799397,1.0000492098880405,9.412713858523267e-05
1410.9196945395647,1410.9196945395647,0.9998871319719074,9.412259581774168e-05
1410.926639099375,1410.926639099375,0.9999702213419756,9.412319030630009e-05
1410.9335836593725,1410.9335836593725,0.9997698174108113,9.410551535269792e-05
1410.9405282196021,1410.9405282196021,1.0001287825631056,9.412454670482981e-05
1410.9474727799484,1410.9474727799484,0.999856161213882,9.409443218191097e-05
1410.9544173404815,1410.9544173404815,1.0002014410581652,9.412036583526548e-05
1410.9627508133576,1410.9627508133576,0.9999541875969624,9.406240837517769e-05
1410.9788621950302,1410.9788621950302,1.0000517013720172,9.403491820692399e-05
1410.9863623212736,1410.9863623212736,0.9998687204673192,9.407436213985319e-05
1410.9960847074951,1410.9960847074951,1.0001167812919394,9.400499888201485e-05
1411.005807093997,1411.005807093997,0.9998457075690454,9.407227161880872e-05
1411.0127516560428,1411.0127516560428,0.9998215383921591,9.405529656548816e-05
1411.0196962181585,1411.0196962181585,0.9999965670548032,9.40809413848413e-05
1411.0266407805077,1411.0266407805077,1.0002425700693771,9.407101776868728e-05
1411.033585342972,1411.033585342972,0.9999063035201482,9.404518078583285e-05
1411.040529905647,1411.040529905647,1.0001681760470253,9.407675642300035e-05
1411.048585598532,1411.048585598532,1.0002050733958185,9.405952474666606e-05
1411.0558079440623,1411.0558079440623,0.9999562109410709,9.405169580404825e-05
1411.062752507249,1411.062752507249,0.9999296924867472,9.404501991716443e-05
1411.0696970705521,1411.0696970705521,1.0000246951975542,9.407235160719397e-05
1411.0766416340425,1411.0766416340425,1.000041713839567,9.406228312714493e-05
1411.083586197671,1411.083586197671,0.9998847500333283,9.40275073427987e-05
1411.0905307614632,1411.0905307614632,1.0001086134555037,9.407341824927238e-05
1411.0974753253722,1411.0974753253722,0.9998930078929341,9.408820638042432e-05
1411.104419889467,1411.104419889467,0.9999323608334935,9.404487640802232e-05
1411.1113644536788,1411.1113644536788,1.0000953381338005,9.40723319012399e-05
1411.1183090180525,1411.1183090180525,0.9999596794966239,9.407371936977212e-05
1411.1252535825668,1411.1252535825668,1.0000015974685723,9.402190859173428e-05
1411.1321981472436,1411.1321981472436,1.000040260199798,9.40762894781036e-05
1411.1391427120368,1411.1391427120368,0.99995866723304,9.404102736181895e-05
1411.1460872769937,1411.1460872769937,0.9999619945956709,9.40620833498359e-05
1411.1530318420894,1411.1530318420894,1.0000582794152497,9.404416026597314e-05
1411.1599764073258,1411.1599764073258,1.0000564897204605,9.405004641306672e-05
1411.1669209726779,1411.1669209726779,0.9999817305208287,9.400682100145965e-05
1411.1738655381928,1411.1738655381928,1.0000786091661518,9.405717676094777e-05
1411.1808101038018,1411.1808101038018,1.000045441864621,9.40439072566052e-05
1411.1877546695723,1411.1877546695723,0.9998864142446703,9.40427283926544e-05
1411.1946992354835,1411.1946992354835,0.9999548685249635,9.404270949166235e-05
1411.2016438014878,1411.2016438014878,1.0000916562993862,9.404062106805857e-05
1411.2085883676546,1411.2085883676546,1.00013244911668,9.404741035702398e-05
1411.215532933962,1411.215532933962,0.9999852225249974,9.401970200085042e-05
1411.222477500385,1411.222477500385,0.9998579821041744,9.403300019503828e-05
1411.2294220669248,1411.2294220669248,0.9999204885142486,9.401959027688685e-05
1411.2363666336041,1411.2363666336041,1.0001552557869928,9.405780462710924e-05
1411.2433112003996,1411.2433112003996,1.0000244771685844,9.4069396474222e-05
1411.2502557673124,1411.2502557673124,1.0000658046999695,9.406655080896142e-05
1411.2572003343637,1411.2572003343637,0.9999867963423968,9.405363117395807e-05
1411.2641449015093,1411.2641449015093,1.0000322706846199,9.407080665399387e-05
1411.2710894687705,1411.2710894687705,0.9999565406610058,9.401919119268954e-05
1411.2780340361944,1411.2780340361944,1.000164980483732,9.403450640225506e-05
1411.2849786037127,1411.2849786037127,1.0001348276341002,9.405008234789135e-05
1411.2919231713463,1411.2919231713463,1.0002038035352014,9.406974062524464e-05
1411.2988677390967,1411.2988677390967,0.9998392131100703,9.403784954893707e-05
1411.3058123069404,1411.3058123069404,1.000068667434805,9.40772199290315e-05
1411.3127568749467,1411.3127568749467,0.9999172715242176,9.406147369010967e-05
1411.3197014430232,1411.3197014430232,1.0000421629993883,9.40796777622848e-05
1411.326646011239,1411.326646011239,1.0001016755082786,9.406357520771041e-05
1411.3335905795484,1411.3335905795484,0.9998787573645525,9.403865475562177e-05
1411.3405351479973,1411.3405351479973,0.9998590477734262,9.405582954080343e-05
1411.3474797165159,1411.3474797165159,1.0002302140489032,9.408880777101033e-05
1411.3544242851513,1411.3544242851513,0.99995935121737,9.406657476098158e-05
1411.3613688539021,1411.3613688539021,1.0000538883983097,9.404148557412819e-05
1411.3683134227479,1411.3683134227479,1.0001810853105748,9.407805050534707e-05
1411.3752579917548,1411.3752579917548,0.9998803081574099,9.408173119437998e-05
1411.382202560809,1411.382202560809,0.9999273332810465,9.405135977486132e-05
1411.3891471299335,1411.3891471299335,1.0001344416527431,9.407214193360875e-05
1411.3960916991969,1411.3960916991969,0.9998162197114535,9.402752787793682e-05
1411.4030362685776,1411.4030362685776,1.0001607477409078,9.407610012376616e-05
1411.4099808380506,1411.4099808380506,0.9998693171712046,9.405666706403858e-05
1411.4169254075937,1411.4169254075937,1.0002195198235255,9.405648156411539e-05
1411.423869977277,1411.423869977277,1.0000645446427003,9.405587711928755e-05
1411.4308145470523,1411.4308145470523,1.0001240629299206,9.406091102892576e-05
1411.437759116899,1411.437759116899,1.0001750374525935,9.403221932014326e-05
1411.444703686884,1411.444703686884,1.0000177088610247,9.40469746093439e-05
1411.451648256916,1411.451648256916,0.9998551126478619,9.406090156344784e-05
1411.4585928270421,1411.4585928270421,0.9997650740330088,9.405645092501907e-05
1411.4655373973062,1411.4655373973062,1.0001920463406777,9.406666204128817e-05
1411.4724819676417,1411.4724819676417,1.0002346112680218,9.408293002520391e-05
1411.4794265380692,1411.4794265380692,0.9998537141185512,9.405872937998229e-05
1411.4863711085904,1411.4863711085904,1.0002446357428023,9.410216836485891e-05
1411.4933156792047,1411.4933156792047,0.9998147532288215,9.40752200843197e-05
1411.500260249865,1411.500260249865,1.0000149932193831,9.409544194569641e-05
1411.507204820666,1411.507204820666,1.0000231461694284,9.408094585883979e-05
1411.5141493915357,1411.5141493915357,0.9999371107929867,9.405699853618959e-05
1411.5210939625,1411.5210939625,1.00017011028241,9.4104698293063e-05
1411.5280385335561,1411.5280385335561,0.9997298095027147,9.408722447123157e-05
1411.5349831046826,1411.5349831046826,1.000263753761495,9.410379854942056e-05
1411.5419276759026,1411.5419276759026,1.0000708398296392,9.406250437914615e-05
1411.5488722472148,1411.5488722472148,1.0001236321247604,9.408358649140717e-05
1411.5558168185978,1411.5558168185978,0.9998349923128252,9.409356000361876e-05
1411.5627613900729,1411.5627613900729,1.0000762224881896,9.408329191432478e-05
1411.5697059616189,1411.5697059616189,1.0001419608467548,9.408644873434113e-05
1411.576650533234,1411.576650533234,0.9999976630887311,9.408396331525241e-05
1411.5835951049655,1411.5835951049655,1.000067502884663,9.411188293768094e-05
1411.5905396767444,1411.5905396767444,0.9998333811348188,9.409311165338682e-05
1411.5974842486387,1411.5974842486387,0.9999082267359078,9.411786519440997e-05
1411.6044288206037,1411.6044288206037,1.0004621532744686,9.413489409838449e-05
1411.611373392615,1411.611373392615,1.0001168596129617,9.411777603659477e-05
1411.6183179647185,1411.6183179647185,0.999812035677466,9.409648458568942e-05
1411.6252625368938,1411.6252625368938,1.0002270423327073,9.413212182072324e-05
1411.6322071091604,1411.6322071091604,0.9999422465853707,9.41275352834661e-05
1411.6391516814979,1411.6391516814979,1.0000811883787468,9.411464960753461e-05
1411.6460962539047,1411.6460962539047,0.9998868199906947,9.411051768085449e-05
1411.6530408263814,1411.6530408263814,1.000046319084166,9.412273025283119e-05
1411.659985398952,1411.659985398952,0.999938161477844,9.412307467498329e-05
1411.6669299715913,1411.6669299715913,1.0000138505735994,9.412071463456237e-05
1411.6738745442783,1411.6738745442783,1.0001297902575885,9.412147265485578e-05
1411.6808191170808,1411.6808191170808,0.9999400727080909,9.409015736464967e-05
1411.687763689907,1411.687763689907,1.0001189699242101,9.413274421053783e-05
1411.6947082628262,1411.6947082628262,1.000209072246707,9.412961914729952e-05
1411.701652835815,1411.701652835815,0.9999015572777727,9.409715575078071e-05
1411.7085974088745,1411.7085974088745,0.9999564644019546,9.409934457263255e-05
1411.7155419819796,1411.7155419819796,0.9999115789588948,9.4116058902161e-05
1411.7224865551784,1411.7224865551784,0.9998272815179516,9.409970512511777e-05
1411.7294311284468,1411.7294311284468,1.000011953850094,9.41156526445054e-05
1411.736375701785,1411.736375701785,1.000233533938951,9.41197036244359e-05
1411.7433202751702,1411.7433202751702,1.0000140881899646,9.412888395391028e-05
1411.7502648486247,1411.7502648486247,1.000023743625475,9.412867234683901e-05
1411.75720942215,1411.75720942215,0.9999999166426405,9.412952242601078e-05
1411.7641539957435,1411.7641539957435,1.0000733643026705,9.415563600635992e-05
1411.7710985694084,1411.7710985694084,0.9997645406344204,9.410409580386803e-05
1411.7780431431192,1411.7780431431192,0.9999060967378706,9.413448126837108e-05
1411.7849877169228,1411.7849877169228,1.000090518499716,9.414637172902449e-05
1411.7919322907508,1411.7919322907508,1.0001559377556721,9.4154763906953e-05
1411.7988768646705,1411.7988768646705,0.9997520247899534,9.414383482166829e-05
1411.8058214386378,1411.8058214386378,0.9999491602153817,9.413373344201327e-05
1411.8127660126745,1411.8127660126745,0.9999172381137859,9.414015801556911e-05
1411.8197105867578,1411.8197105867578,1.0000168075861247,9.415037044453575e-05
1411.8266551609115,1411.8266551609115,1.000124994969057,9.415465930467663e-05
1411.833599735134,1411.833599735134,1.0000447599424267,9.412222412851144e-05
1411.8405443094275,1411.8405443094275,0.9999385498346239,9.413163493978227e-05
1411.8474888837204,1411.8474888837204,1.000101668902865,9.416031069575219e-05
1411.8544334581295,1411.8544334581295,0.9999404578702347,9.41550067954528e-05
1411.8613780325854,1411.8613780325854,0.9999933477680611,9.415023462600717e-05
1411.8683226070875,1411.8683226070875,0.9998499904529574,9.414457226213197e-05
1411.8752671816371,1411.8752671816371,1.0001577463936586,9.415308337327849e-05
1411.882211756279,1411.882211756279,1.0000110986772865,9.415085653929125e-05
1411.889156330945,1411.889156330945,1.0000770450975807,9.416725936076699e-05
1411.8961009056798,1411.8961009056798,0.9998057706713233,9.414777994366832e-05
1411.9030454804856,1411.9030454804856,0.9999813671281711,9.415487484801371e-05
1411.9099900552674,1411.9099900552674,1.0000861648902892,9.415109480676456e-05
1411.916934630212,1411.916934630212,0.999907803916083,9.414320886276437e-05
1411.9238792051574,1411.9238792051574,1.0000086307827447,9.416472270234444e-05
1411.9308237801713,1411.9308237801713,1.0000790360067058,9.415082756378073e-05
1411.9377683552332,1411.9377683552332,1.000005960821099,9.414853880978682e-05
1411.9447129303176,1411.9447129303176,1.0001262334048404,9.416462438429488e-05
1411.9516575054718,1411.9516575054718,0.9998877605211087,9.416170779667278e-05
1411.9586020807196,1411.9586020807196,1.0000609531500464,9.417422736081042e-05
1411.9655466559668,1411.9655466559668,0.9998351018266799,9.415810199972863e-05
1411.9724912312847,1411.9724912312847,1.0002341041121148,9.415828606559023e-05
1411.9794358066947,1411.9794358066947,0.9998733335532975,9.41537466736974e-05
1411.9863803820358,1411.9863803820358,0.9999387355221406,9.416190737831374e-05
1411.9933249575395,1411.9933249575395,0.9998717701899658,9.413669314549325e-05
1412.0002695330663,1412.0002695330663,1.0002057052535847,9.418479187844352e-05
1412.0072141086403,1412.0072141086403,0.9999447906632396,9.416828135176288e-05
1412.0141586842597,1412.0141586842597,1.0001356484036414,9.417360992985629e-05
1412.0211032599268,1412.0211032599268,1.00002961414007,9.416642188945086e-05
1412.0280478356167,1412.0280478356167,1.0000458040275555,9.415392804118183e-05
1412.0349924113996,1412.0349924113996,1.0000710188992195,9.415929491073355e-05
1412.041936987206,1412.041936987206,1.0001395270569147,9.412457555745563e-05
1412.0488815630586,1412.0488815630586,0.9997975356775312,9.41458675143483e-05
1412.0558261389585,1412.0558261389585,0.9999159713349837,9.415784280861222e-05
1412.062770714904,1412.062770714904,0.9999134200843611,9.41725501481076e-05
1412.0697152908974,1412.0697152908974,0.9999929301697948,9.417732456446526e-05
1412.0766598669363,1412.0766598669363,1.0000888354858413,9.41719764878107e-05
1412.0836044430453,1412.0836044430453,1.000161766002718,9.416311441491966e-05
1412.0905490191776,1412.0905490191776,0.9999191279023714,9.415513833750761e-05
1412.0974935953332,1412.0974935953332,0.9999205696621735,9.416031360420538e-05
1412.104438171559,1412.104438171559,0.9999351995001133,9.416537485659428e-05
1412.1113827478305,1412.1113827478305,1.0002420065620095,9.419583158835933e-05
1412.1183273241259,1412.1183273241259,0.9998928998802915,9.416219265480107e-05
1412.125271900491,1412.125271900491,0.9999292283913024,9.416343778162466e-05
1412.1322164768796,1412.1322164768796,1.0000700449738438,9.417040767689791e-05
1412.1391610533149,1412.1391610533149,1.0000023484961518,9.414980411850775e-05
1412.1461056297958,1412.1461056297958,0.9998614939807287,9.415935716853802e-05
1412.1530502063013,1412.1530502063013,1.0000102286338008,9.416192921619412e-05
1412.1599947828988,1412.1599947828988,1.0000866171336387,9.418368883293903e-05
1412.1669393595203,1412.1669393595203,1.0000237971030965,9.416948092025734e-05
1412.1738839361412,1412.1738839361412,1.0000932598603078,9.4167874290692e-05
1412.1808285128093,1412.1808285128093,0.999901977080032,9.418646928176806e-05
1412.1877730895471,1412.1877730895471,0.9999400182944008,9.41737438686231e-05
1412.1947176663077,1412.1947176663077,1.0000240939419796,9.419349040990683e-05
1412.2016622431393,1412.2016622431393,0.9999712420724356,9.417724577197612e-05
1412.2086068199694,1412.2086068199694,1.0001147633423089,9.419262487728004e-05
1412.2155513968241,1412.2155513968241,0.9998712540603417,9.416563173689967e-05
1412.222495973771,1412.222495973771,1.0000706619533772,9.417985373018211e-05
1412.2294405507414,1412.2294405507414,0.9999109425437386,9.418060902871167e-05
1412.2363851277587,1412.2363851277587,1.0000941802073133,9.416716076421876e-05
1412.243329704775,1412.243329704775,1.0000372542580234,9.41609162250102e-05
1412.2511076311039,1412.2511076311039,0.9998091560818745,9.414069127697676e-05
1412.259718906766,1412.259718906766,0.9999522098444593,9.404516722957658e-05
1412.2697190978927,1412.2697190978927,1.000246279064641,9.412177650044129e-05
1412.2811082045525,1412.2811082045525,1.0000262965120008,9.4075064148057e-05
1412.2891639142013,1412.2891639142013,0.9999254017365196,9.408837219085553e-05
1412.296108491498,1412.296108491498,0.9999424714351515,9.415150901663464e-05
1412.3030530688643,1412.3030530688643,1.0002034585344237,9.415902120949559e-05
1412.3099976462538,1412.3099976462538,0.9998120956721177,9.413248661922967e-05
1412.31694222369,1412.31694222369,0.9999277015127642,9.416950192061903e-05
1412.323886801149,1412.323886801149,1.0000997988698535,9.412064526857455e-05
1412.3308313786554,1412.3308313786554,1.0000441443615662,9.418331471711895e-05
1412.3377759561845,1412.3377759561845,0.9999784341117174,9.415732138823695e-05
1412.344720533761,1412.344720533761,1.000037186686702,9.411532461060224e-05
1412.3516651113596,1412.3516651113596,0.99999380134733,9.413567820875987e-05
1412.3586096890056,1412.3586096890056,1.0001506297556488,9.413445844623707e-05
1412.3655542666745,1412.3655542666745,1.0000502551409536,9.415606894416583e-05
1412.37249884439,1412.37249884439,0.999749992779661,9.41677832961372e-05
1412.3794434221059,1412.3794434221059,0.9999664965703433,9.417349463112219e-05
1412.386387999844,1412.386387999844,0.9997167879523573,9.416224796819226e-05
1412.3933325776768,1412.3933325776768,0.9999232003061687,9.417741726676445e-05
1412.4002771555315,1412.4002771555315,0.9999951479475635,9.416021919363932e-05
1412.4072217333874,1412.4072217333874,0.9999127684981444,9.413731954394954e-05
1412.4141663112891,1412.4141663112891,1.000125647726513,9.413152871231775e-05
1412.4211108892137,1412.4211108892137,1.0000577803269262,9.417902908844555e-05
1412.428055467186,1412.428055467186,1.0000139139336768,9.418928612269569e-05
1412.4350000451807,1412.4350000451807,1.0001182748876771,9.419506393784197e-05
1412.4419446231993,1412.4419446231993,0.9998535177601273,9.414511121974483e-05
1412.4488892012869,1412.4488892012869,0.9998522436420073,9.415315336059652e-05
1412.4558337793521,1412.4558337793521,1.0002069993689637,9.412412058272116e-05
1412.4627783574633,1412.4627783574633,1.00004578284222,9.413942771368364e-05
1412.4697229356448,1412.4697229356448,1.0001019617105098,9.413628707043503e-05
1412.4766675138026,1412.4766675138026,0.9998879625988643,9.407247309510126e-05
1412.4836120920068,1412.4836120920068,0.9999261617633597,9.417739540567767e-05
1412.4905566702585,1412.4905566702585,1.000004971810696,9.41815347059928e-05
1412.4975012485088,1412.4975012485088,0.9998539581604154,9.413088469614037e-05
1412.5044458268308,1412.5044458268308,1.0001149849294018,9.417215745309302e-05
1412.5113904051045,1412.5113904051045,1.0001221881046682,9.418474440195813e-05
1412.5183349834722,1412.5183349834722,0.9999608795655945,9.419214659610035e-05
1412.5252795618399,1412.5252795618399,1.000096460088125,9.419511325159234e-05
1412.5322241403235,1412.5322241403235,0.9998411247239283,9.417516690164284e-05
1412.5391687187378,1412.5391687187378,0.9999629193654556,9.41787094809181e-05
1412.546113297198,1412.546113297198,1.000159985407553,9.418793088457224e-05
1412.5530578757057,1412.5530578757057,0.9998038106209591,9.417853815911556e-05
1412.5600024542125,1412.5600024542125,0.9999109069329449,9.417272753813258e-05
1412.5669470327898,1412.5669470327898,1.0000116847379084,9.418695121725958e-05
1412.573891611367,1412.573891611367,1.0002141538278415,9.41988341931215e-05
1412.5808361899674,1412.5808361899674,1.0000992205514556,9.419192119298033e-05
1412.5877807686143,1412.5877807686143,1.000023668685742,9.420266933360727e-05
1412.5947253472843,1412.5947253472843,0.9999599457270119,9.41712833352729e-05
1412.6016699259549,1412.6016699259549,0.9998849534206797,9.41786705446817e-05
1412.6086145046706,1412.6086145046706,0.9999438239572923,9.418361836899575e-05
1412.6155590834117,1412.6155590834117,0.999939254556361,9.417689669160236e-05
1412.6225036621743,1412.6225036621743,1.00017654818824,9.414275271134107e-05
1412.6294482409844,1412.6294482409844,0.9999666930791575,9.418276620066951e-05
1412.6363928197948,1412.6363928197948,0.9998822274006132,9.418582457518279e-05
1412.6433373986276,1412.6433373986276,0.99997351417463,9.419221909888379e-05
1412.6502819775073,1412.6502819775073,1.0001082819232288,9.420402942187015e-05
1412.65722655641,1412.65722655641,1.0001363638078977,9.419872600721268e-05
1412.66417113536,1412.66417113536,0.99983123494234,9.419616846871327e-05
1412.6711157143093,1412.6711157143093,0.9999584289592697,9.419455149979013e-05
1412.6780602932593,1412.6780602932593,1.0001283512565733,9.413369503879403e-05
1412.6850048722083,1412.6850048722083,1.0000720749685819,9.418188638783867e-05
1412.691949451275,1412.691949451275,0.9999660612469625,9.419361797493996e-05
1412.6988940302942,1412.6988940302942,0.9998678373123274,9.419139680523528e-05
