time,time,flux,flux_err
1354.1084231777372,1354.1084231777372,164665.19,45.381443
1354.1098120793245,1354.1098120793245,164601.69,45.375893
1354.1125898826135,1354.1125898826135,164607.3,45.30728
1354.1139787842008,1354.1139787842008,164596.77,45.402958
1354.1153676857875,1354.1153676857875,164542.16,45.38865
1354.1167565874905,1354.1167565874905,164505.05,45.38122
1354.118145489077,1354.118145489077,164576.62,45.378544
1354.1195343907807,1354.1195343907807,164598.28,45.386612
1354.1209232923682,1354.1209232923682,164732.11,45.39632
1354.1223121940711,1354.1223121940711,164684.62,45.396797
1354.1237010957743,1354.1237010957743,164630.2,45.38805
1354.1250899973606,1354.1250899973606,164671.5,45.3821
1354.1264788990638,1354.1264788990638,164631.05,45.391888
1354.1278678007675,1354.1278678007675,164548.2,45.37444
1354.1292567024707,1354.1292567024707,164601.48,45.388184
1354.1306456041734,1354.1306456041734,164590.58,45.38448
1354.1320345059937,1354.1320345059937,164588.81,45.386196
1354.1334234076967,1354.1334234076967,164651.38,45.387016
1354.1348123094003,1354.1348123094003,164698.98,45.39539
1354.13620121122,1354.13620121122,164571.64,45.382614
1354.1375901129222,1354.1375901129222,164641.03,45.3657
1354.1389790147423,1354.1389790147423,164684.11,45.407475
1354.140367916446,1354.140367916446,164590.88,45.37903
1354.1417568182655,1354.1417568182655,164584.3,45.37387
1354.143145720085,1354.143145720085,164514.2,45.38088
1354.1445346219043,1354.1445346219043,164657.52,45.390778
1354.1459235237244,1354.1459235237244,164666.45,45.387264
1354.1473124255447,1354.1473124255447,164568.42,45.384598
1354.1487013273636,1354.1487013273636,164629.94,45.384544
1354.1500902291828,1354.1500902291828,164635.69,45.387085
1354.1514791310028,1354.1514791310028,164619.44,45.388615
1354.152868032823,1354.152868032823,164671.78,45.395535
1354.154256934759,1354.154256934759,164590.48,45.383533
1354.1556458365776,1354.1556458365776,164634.34,45.389538
1354.157034738514,1354.157034738514,164577.42,45.377758
1354.1584236403344,1354.1584236403344,164596.73,45.382957
1354.1598125422702,1354.1598125422702,164575.42,45.378025
1354.1612014442062,1354.1612014442062,164575.4,45.383995
1354.1625903460254,1354.1625903460254,164544.2,45.371834
1354.163979247962,1354.163979247962,164536.78,45.381012
1354.1653681498988,1354.1653681498988,164608.03,45.37876
1354.1667570518339,1354.1667570518339,164630.06,45.390854
1354.1681459537697,1354.1681459537697,164580.55,45.38263
1354.1695348557064,1354.1695348557064,164678.2,45.390305
1354.1709237577584,1354.1709237577584,164571.14,45.387383
1354.1723126596949,1354.1723126596949,164588.16,45.37505
1354.1737015616309,1354.1737015616309,164660.58,45.39386
1354.1750904636833,1354.1750904636833,164541.97,45.3814
1354.1764793656198,1354.1764793656198,164552.16,45.38378
1354.1778682676718,1354.1778682676718,164520.53,45.370316
1354.1792571696085,1354.1792571696085,164566.94,45.382236
1354.1806460716607,1354.1806460716607,164610.33,45.38416
1354.1820349737122,1354.1820349737122,164562.42,45.37073
1354.1834238757654,1354.1834238757654,164647.22,45.386066
1354.184812777702,1354.184812777702,164614.48,45.38281
1354.186201679754,1354.186201679754,164598.2,45.381718
1354.1875905818065,1354.1875905818065,164542.06,45.37845
1354.1889794838587,1354.1889794838587,164570.5,45.374767
1354.1903683860282,1354.1903683860282,164662.22,45.39047
1354.1917572880811,1354.1917572880811,164588.78,45.38383
1354.1931461901327,1354.1931461901327,164613.67,45.377132
1354.1945350921849,1354.1945350921849,164618.38,45.387962
1354.1959239943544,1354.1959239943544,164660.19,45.38636
1354.1973128964073,1354.1973128964073,164654.98,45.38757
1354.1987017985757,1354.1987017985757,164726.27,45.392532
1354.2000907007439,1354.2000907007439,164565.83,45.38063
1354.201479602797,1354.201479602797,164639.0,45.38867
1354.2028685049663,1354.2028685049663,164590.31,45.3785
1354.2042574071347,1354.2042574071347,164581.11,45.38299
1354.2056463093036,1354.2056463093036,164569.86,45.37697
1354.2070352114724,1354.2070352114724,164559.06,45.37069
1354.2084241136417,1354.2084241136417,164600.1,45.383297
1354.209813015811,1354.209813015811,164640.14,45.374466
1354.211201917979,1354.211201917979,164607.97,45.385685
1354.2125908201479,1354.2125908201479,164650.2,45.38288
1354.2139797223172,1354.2139797223172,164641.62,45.38677
1354.2153686246022,1354.2153686246022,164553.8,45.375553
1354.2167575267717,1354.2167575267717,164568.22,45.375813
1354.2181464290566,1354.2181464290566,164569.28,45.371223
1354.2195353312254,1354.2195353312254,164706.34,45.39253
1354.2209242335111,1354.2209242335111,164677.45,45.393974
1354.2223131357964,1354.2223131357964,164624.98,45.379936
1354.2237020379648,1354.2237020379648,164718.72,45.39613
1354.22509094025,1354.22509094025,164629.97,45.380005
1354.2264798425351,1354.2264798425351,164568.73,45.374886
1354.227868744821,1354.227868744821,164624.47,45.38876
1354.2292576471068,1354.2292576471068,164628.86,45.384377
1354.2306465493918,1354.2306465493918,164595.75,45.373234
1354.232035451677,1354.232035451677,164584.9,45.380493
1354.2334243539622,1354.2334243539622,164708.8,45.395374
1354.234813256248,1354.234813256248,164628.72,45.393093
1354.23620215865,1354.23620215865,164685.4,45.3861
1354.2375910609344,1354.2375910609344,164695.89,45.395744
1354.2389799632197,1354.2389799632197,164599.66,45.38487
1354.2403688656218,1354.2403688656218,164649.5,45.384285
1354.241757768024,1354.241757768024,164654.56,45.385788
1354.2431466703092,1354.2431466703092,164595.34,45.387753
1354.24453557271,1354.24453557271,164635.08,45.38651
1354.2459244751121,1354.2459244751121,164686.9,45.39448
1354.2473133773979,1354.2473133773979,164617.73,45.380215
1354.2487022797995,1354.2487022797995,164666.52,45.39137
1354.2500911822008,1354.2500911822008,164603.44,45.386044
1354.2514800846025,1354.2514800846025,164646.47,45.376945
1354.2528689870046,1354.2528689870046,164601.7,45.37884
1354.2542578894067,1354.2542578894067,164606.33,45.388187
1354.2556467918075,1354.2556467918075,164590.86,45.367847
1354.2570356943256,1354.2570356943256,164620.77,45.390263
1354.2584245967278,1354.2584245967278,164637.77,45.378307
1354.2598134991295,1354.2598134991295,164662.52,45.38713
1354.261202401648,1354.261202401648,164671.8,45.391045
1354.2625913040495,1354.2625913040495,164551.02,45.37248
1354.2639802065673,1354.2639802065673,164645.34,45.388042
1354.2653691089695,1354.2653691089695,164645.7,45.38242
1354.2667580114876,1354.2667580114876,164649.94,45.392452
1354.2681469140057,1354.2681469140057,164606.64,45.376778
1354.2695358165233,1354.2695358165233,164648.58,45.387844
1354.270924718925,1354.270924718925,164614.0,45.383812
1354.2723136214436,1354.2723136214436,164566.25,45.373753
1354.2737025239621,1354.2737025239621,164628.83,45.38544
1354.2750914264802,1354.2750914264802,164688.31,45.389385
1354.2764803289979,1354.2764803289979,164592.1,45.370953
1354.277869231516,1354.277869231516,164654.34,45.38774
1354.279258134151,1354.279258134151,164729.08,45.4011
1354.280647036669,1354.280647036669,164554.66,45.36974
1354.2820359391862,1354.2820359391862,164587.52,45.375614
1354.2834248418212,1354.2834248418212,164626.42,45.38465
1354.2848137443398,1354.2848137443398,164607.69,45.37946
1354.2862026468583,1354.2862026468583,164592.94,45.380497
1354.2875915494928,1354.2875915494928,164614.53,45.379772
1354.2889804521265,1354.2889804521265,164584.03,45.381954
1354.290369354645,1354.290369354645,164717.31,45.390186
1354.29175825728,1354.29175825728,164647.73,45.391724
1354.2931471599138,1354.2931471599138,164606.88,45.37822
1354.294536062548,1354.294536062548,164585.75,45.386353
1354.2959249650667,1354.2959249650667,164575.23,45.381237
1354.2973138677016,1354.2973138677016,164664.58,45.389122
1354.2987027703368,1354.2987027703368,164655.95,45.38792
1354.3000916729707,1354.3000916729707,164577.02,45.38051
1354.3014805757211,1354.3014805757211,164753.38,45.402294
1354.3028694783561,1354.3028694783561,164663.53,45.386204
1354.3042583809906,1354.3042583809906,164655.72,45.39216
1354.3056472836256,1354.3056472836256,164675.56,45.393322
1354.3070361863765,1354.3070361863765,164648.44,45.383286
1354.3084250890108,1354.3084250890108,164618.77,45.37368
1354.309813991646,1354.309813991646,164558.55,45.37522
1354.3112028943965,1354.3112028943965,164603.69,45.383564
1354.3125917971474,1354.3125917971474,164688.27,45.387627
1354.3139806997817,1354.3139806997817,164665.56,45.394745
1354.3153696025324,1354.3153696025324,164608.9,45.381477
1354.3167585052838,1354.3167585052838,164631.66,45.381077
1354.3181474079188,1354.3181474079188,164611.42,45.3817
1354.3195363106697,1354.3195363106697,164594.95,45.375343
1354.3209252134207,1354.3209252134207,164683.6,45.38804
1354.3223141161711,1354.3223141161711,164586.55,45.388996
1354.3237030189225,1354.3237030189225,164663.3,45.381493
1354.3250919216734,1354.3250919216734,164678.16,45.3844
1354.3264808244235,1354.3264808244235,164558.23,45.379406
1354.3278697271749,1354.3278697271749,164714.0,45.390587
1354.329258630043,1354.329258630043,164741.28,45.393085
1354.3306475327945,1354.3306475327945,164658.05,45.389286
1354.332036435545,1354.332036435545,164685.56,45.385597
1354.3334253384114,1354.3334253384114,164544.98,45.377033
1354.334814241163,1354.334814241163,164656.89,45.382812
1354.336203144031,1354.336203144031,164575.0,45.38039
1354.337592046781,1354.337592046781,164615.97,45.38319
1354.338980949648,1354.338980949648,164567.06,45.369358
1354.3403698523996,1354.3403698523996,164626.72,45.37996
1354.3417587552676,1354.3417587552676,164629.44,45.380795
1354.3431476581354,1354.3431476581354,164624.05,45.385788
1354.3445365610019,1354.3445365610019,164627.62,45.375313
1354.345925463869,1354.345925463869,164615.11,45.391087
1354.347314366737,1354.347314366737,164605.06,45.37691
1354.348703269604,1354.348703269604,164607.4,45.388783
1354.3500921724712,1354.3500921724712,164688.56,45.389732
1354.3514810753384,1354.3514810753384,164659.3,45.3921
1354.3528699782064,1354.3528699782064,164564.81,45.381348
1354.3542588810742,1354.3542588810742,164570.62,45.37771
1354.3556477839413,1354.3556477839413,164710.58,45.388374
1354.3570366869249,1354.3570366869249,164562.92,45.3837
1354.3584255897922,1354.3584255897922,164563.3,45.371418
1354.359814492659,1354.359814492659,164612.25,45.38764
1354.3612033956435,1354.3612033956435,164715.14,45.38268
1354.3625922985116,1354.3625922985116,164455.03,45.36862
1354.3639812014949,1354.3639812014949,164592.12,45.38093
1354.3653701043622,1354.3653701043622,164592.77,45.381775
1354.3667590073458,1354.3667590073458,164603.77,45.38374
1354.3681479103302,1354.3681479103302,164539.33,45.365326
1354.3695368133135,1354.3695368133135,164593.4,45.380146
1354.37092571618,1354.37092571618,164625.98,45.379665
1354.3723146191644,1354.3723146191644,164699.1,45.3994
1354.3737035221488,1354.3737035221488,164642.5,45.382202
1354.375092425133,1354.375092425133,164601.23,45.3845
1354.3764813281166,1354.3764813281166,164716.08,45.398655
1354.3778702310997,1354.3778702310997,164632.64,45.380043
1354.379259134084,1354.379259134084,164557.5,45.380035
1354.380648037068,1354.380648037068,164593.61,45.37868
1354.3820369401674,1354.3820369401674,164654.69,45.389885
1354.3834258431511,1354.3834258431511,164551.14,45.376812
1354.3848147461354,1354.3848147461354,164622.02,45.383923
1354.386203649236,1354.386203649236,164644.1,45.38284
1354.3875925522202,1354.3875925522202,164626.55,45.382854
1354.388981455203,1354.388981455203,164502.64,45.375458
1354.3903703583032,1354.3903703583032,164556.67,45.37497
1354.3917592614039,1354.3917592614039,164675.66,45.39291
1354.3931481643876,1354.3931481643876,164654.62,45.380276
1354.3945370674874,1354.3945370674874,164633.52,45.387806
1354.3959259704711,1354.3959259704711,164626.78,45.382042
1354.3973148735718,1354.3973148735718,164585.19,45.372192
1354.3987037766724,1354.3987037766724,164619.03,45.3812
1354.4000926797726,1354.4000926797726,164564.78,45.376717
1354.4014815828723,1354.4014815828723,164602.0,45.378082
1354.4028704859725,1354.4028704859725,164667.34,45.385387
1354.4042593890726,1354.4042593890726,164674.4,45.38788
1354.4056482921733,1354.4056482921733,164640.83,45.38767
1354.407037195274,1354.407037195274,164599.02,45.369728
1354.4084260983739,1354.4084260983739,164637.23,45.38296
1354.4098150014738,1354.4098150014738,164605.78,45.389812
1354.411203904574,1354.411203904574,164634.58,45.37882
1354.412592807791,1354.412592807791,164620.33,45.38696
1354.4139817108912,1354.4139817108912,164612.9,45.385563
1354.4153706139905,1354.4153706139905,164696.84,45.39386
1354.4167595172075,1354.4167595172075,164519.25,45.369625
1354.4181484203082,1354.4181484203082,164623.73,45.3858
1354.4195373235252,1354.4195373235252,164664.69,45.3922
1354.4209262267418,1354.4209262267418,164588.0,45.379093
1354.422315129841,1354.422315129841,164566.11,45.374947
1354.4237040330581,1354.4237040330581,164544.1,45.379242
1354.4250929362752,1354.4250929362752,164639.67,45.38548
1354.4264818393744,1354.4264818393744,164628.69,45.38934
1354.427870742591,1354.427870742591,164621.34,45.382042
1354.429259645808,1354.429259645808,164573.22,45.37773
1354.4306485490251,1354.4306485490251,164600.56,45.37991
1354.4320374522422,1354.4320374522422,164581.2,45.37491
1354.4334263554579,1354.4334263554579,164656.81,45.38059
1354.4348152586745,1354.4348152586745,164666.62,45.390663
1354.4362041618915,1354.4362041618915,164597.83,45.379612
1354.437593065108,1354.437593065108,164652.02,45.387638
1354.4389819683245,1354.4389819683245,164609.1,45.37823
1354.4403708715408,1354.4403708715408,164679.34,45.385563
1354.4417597748743,1354.4417597748743,164627.92,45.38552
1354.4431486780913,1354.4431486780913,164567.83,45.374493
1354.444537581308,1354.444537581308,164649.89,45.38883
1354.445926484641,1354.445926484641,164536.06,45.373108
1354.447315387857,1354.447315387857,164643.7,45.396763
1354.44870429119,1354.44870429119,164715.94,45.391914
1354.4500931944071,1354.4500931944071,164576.92,45.37873
1354.4514820977406,1354.4514820977406,164629.75,45.377537
1354.4528710009572,1354.4528710009572,164637.94,45.392124
1354.45425990429,1354.45425990429,164664.45,45.380962
1354.4556488076228,1354.4556488076228,164595.67,45.3815
1354.4570377109562,1354.4570377109562,164617.12,45.379566
1354.4584266141728,1354.4584266141728,164602.14,45.381058
1354.459815517505,1354.459815517505,164648.58,45.37934
1354.4612044208384,1354.4612044208384,164540.23,45.369003
1354.4625933241718,1354.4625933241718,164651.94,45.3842
1354.4639822275053,1354.4639822275053,164581.62,45.379078
1354.4653711308383,1354.4653711308383,164644.64,45.37781
1354.4667600341704,1354.4667600341704,164694.45,45.395702
1354.4681489375039,1354.4681489375039,164667.2,45.38702
1354.4695378408373,1354.4695378408373,164690.86,45.386158
1354.470926744286,1354.470926744286,164644.2,45.396614
1354.4723156476189,1354.4723156476189,164637.1,45.38192
1354.4737045509523,1354.4737045509523,164657.27,45.389893
1354.475093454286,1354.475093454286,164639.27,45.38453
1354.4764823577361,1354.4764823577361,164558.44,45.369816
1354.4778712610682,1354.4778712610682,164649.77,45.388157
1354.4792601645172,1354.4792601645172,164651.02,45.39089
1354.480649067851,1354.480649067851,164637.98,45.38096
1354.4820379713,1354.4820379713,164599.0,45.3827
1354.483426874633,1354.483426874633,164593.8,45.37556
1354.484815778082,1354.484815778082,164605.75,45.38402
1354.4862046815322,1354.4862046815322,164582.69,45.38284
1354.4875935848659,1354.4875935848659,164732.0,45.400677
1354.4889824883148,1354.4889824883148,164687.27,45.389584
1354.4903713917643,1354.4903713917643,164612.39,45.378704
1354.4917602952135,1354.4917602952135,164593.48,45.379234
1354.4931491986626,1354.4931491986626,164661.33,45.38904
1354.4945381021125,1354.4945381021125,164646.03,45.385284
1354.4959270055626,1354.4959270055626,164678.39,45.38641
1354.4973159090118,1354.4973159090118,164623.31,45.384647
1354.4987048124613,1354.4987048124613,164583.12,45.376945
1354.5000937159102,1354.5000937159102,164652.64,45.388893
1354.5014826193603,1354.5014826193603,164639.22,45.37159
1354.5028715228095,1354.5028715228095,164660.12,45.386982
1354.504260426258,1354.504260426258,164564.45,45.3797
1354.505649329708,1354.505649329708,164679.9,45.39217
1354.5070382332744,1354.5070382332744,164648.77,45.37823
1354.5084271367245,1354.5084271367245,164593.6,45.38094
1354.5098160401735,1354.5098160401735,164648.8,45.397434
1354.5112049437384,1354.5112049437384,164664.88,45.381744
1354.5125938471886,1354.5125938471886,164565.77,45.3756
1354.513982750755,1354.513982750755,164642.56,45.381733
1354.5153716542036,1354.5153716542036,164619.44,45.38358
1354.5167605577692,1354.5167605577692,164638.56,45.38613
1354.5181494613357,1354.5181494613357,164706.0,45.390053
1354.5195383647856,1354.5195383647856,164625.58,45.371357
1354.520927268352,1354.520927268352,164644.75,45.384705
1354.5223161719168,1354.5223161719168,164609.02,45.38228
1354.5237050753663,1354.5237050753663,164628.69,45.39016
1354.5250939789325,1354.5250939789325,164745.67,45.399403
1354.526482882498,1354.526482882498,164626.19,45.37528
1354.5278717860638,1354.5278717860638,164589.8,45.38271
1354.5292606896296,1354.5292606896296,164605.14,45.37912
1354.530649593196,1354.530649593196,164600.23,45.37805
1354.5320384967622,1354.5320384967622,164699.25,45.389503
1354.533427400328,1354.533427400328,164671.5,45.38362
1354.5348163038934,1354.5348163038934,164598.53,45.38829
1354.5362052074593,1354.5362052074593,164638.31,45.376503
1354.5375941110249,1354.5375941110249,164627.23,45.385654
1354.5389830147078,1354.5389830147078,164664.25,45.389065
1354.540371918274,1354.540371918274,164676.03,45.392456
1354.5417608218395,1354.5417608218395,164554.72,45.38078
1354.5431497255217,1354.5431497255217,164658.34,45.384113
1354.5445386290876,1354.5445386290876,164660.69,45.39384
1354.5459275326539,1354.5459275326539,164655.84,45.37057
1354.5473164363357,1354.5473164363357,164648.89,45.392857
1354.5487053399008,1354.5487053399008,164636.14,45.383625
1354.5500942435838,1354.5500942435838,164675.14,45.385387
1354.55148314715,1354.55148314715,164614.22,45.37536
1354.5528720508328,1354.5528720508328,164688.8,45.38924
1354.554260954515,1354.554260954515,164592.67,45.38368
1354.55564985808,1354.55564985808,164558.78,45.36606
1354.5570387617627,1354.5570387617627,164639.97,45.38694
1354.5584276654454,1354.5584276654454,164655.58,45.3898
1354.5598165690103,1354.5598165690103,164583.39,45.37839
1354.5612054726926,1354.5612054726926,164644.36,45.38743
1354.5625943763753,1354.5625943763753,164641.16,45.37878
1354.563983280058,1354.563983280058,164687.27,45.39713
1354.5653721837407,1354.5653721837407,164680.25,45.38343
1354.566761087422,1354.566761087422,164512.75,45.373955
1354.5681499911043,1354.5681499911043,164621.67,45.38425
1354.569538894787,1354.569538894787,164640.52,45.383846
1354.5709277984693,1354.5709277984693,164629.47,45.382072
1354.572316702151,1354.572316702151,164601.47,45.38051
1354.5737056058333,1354.5737056058333,164577.08,45.383026
1354.5750945096324,1354.5750945096324,164596.67,45.37586
1354.5764834133151,1354.5764834133151,164613.9,45.38718
1354.5778723169974,1354.5778723169974,164614.9,45.37652
1354.5792612206794,1354.5792612206794,164583.55,45.37165
1354.5806501244779,1354.5806501244779,164659.86,45.38736
1354.5820390281601,1354.5820390281601,164648.44,45.383358
1354.5834279319592,1354.5834279319592,164652.27,45.384777
1354.584816835642,1354.584816835642,164660.9,45.390778
1354.5862057393242,1354.5862057393242,164661.28,45.3853
1354.5875946431224,1354.5875946431224,164603.1,45.373405
1354.588983546921,1354.588983546921,164622.05,45.38509
1354.5903724506038,1354.5903724506038,164629.53,45.386864
1354.5917613544025,1354.5917613544025,164682.52,45.387726
1354.5931502580838,1354.5931502580838,164637.02,45.39254
1354.594539161883,1354.594539161883,164614.38,45.37275
1354.595928065682,1354.595928065682,164590.55,45.384953
