time,time,flux,flux_err
1385.9530317474255,1385.9530317474255,1.0001164602165993,0.00019592751122438984
1385.9613652539028,1385.9613652539028,0.9999058542227757,0.000195848512713726
1385.9696987603602,1385.9696987603602,1.0000466817465459,0.0001958077629022641
1385.9780322667395,1385.9780322667395,0.9997399692122713,0.0001957473560161618
1385.9856713142199,1385.9856713142199,1.0000330199791783,0.00017868925692280356
1385.992615902784,1385.992615902784,0.9998950724538652,0.00017865289166728136
1385.9995604913252,1385.9995604913252,1.0003217206805968,0.00017865891484483248
1386.0065050798667,1386.0065050798667,1.0001544379305645,0.00017863423052927416
1386.0134496683381,1386.0134496683381,0.9998116241704282,0.00017858304584119242
1386.020394256762,1386.020394256762,1.0000788142588393,0.00017859172215784765
1386.0273388451876,1386.0273388451876,0.9999736678782648,0.00017858696619476216
1386.0342834335656,1386.0342834335656,0.9999870343166398,0.00017857869710647263
1386.0412280219202,1386.0412280219202,0.999985988766611,0.00017856877714119332
1386.0481726101825,1386.0481726101825,1.0001854051824541,0.00017859009888159804
1386.0551171984443,1386.0551171984443,0.9998788917807511,0.00017855286331119484
1386.0620617867055,1386.0620617867055,0.9998753880858937,0.00017857827652860322
1386.0690063749444,1386.0690063749444,1.0001636354701149,0.00017860513021540546
1386.0759509631134,1386.0759509631134,1.0001149607488176,0.00017861061938245052
1386.0828955512347,1386.0828955512347,0.999927650245963,0.0001785842993702181
1386.0898401393338,1386.0898401393338,0.999950841843274,0.00017860080857638004
1386.0967847274094,1386.0967847274094,0.9996330948459367,0.00017860366604532048
1386.1037293154382,1386.1037293154382,1.0002296110398976,0.00017864892497662313
1386.1106739034672,1386.1106739034672,1.0000951199051116,0.00017864031731325178
1386.1176184914266,1386.1176184914266,1.00014702373219,0.0001786602915733446
1386.124563079339,1386.124563079339,0.9996867484653092,0.00017860808727376801
1386.1315076672277,1386.1315076672277,0.9999946918630085,0.000178640403568792
1386.1384522550943,1386.1384522550943,1.0000875573675758,0.00017864988336172184
1386.1453968429137,1386.1453968429137,1.000055594084957,0.00017865712577065348
1386.1523414307326,1386.1523414307326,0.9997128099460028,0.00017862250931861286
1386.159286018506,1386.159286018506,1.0002807216607372,0.00017867562449304998
1386.1662306062092,1386.1662306062092,1.000049934108935,0.00017865395873075386
1386.173175193888,1386.173175193888,0.9999394029285172,0.0001786433340039314
1386.180119781568,1386.180119781568,1.000142064767782,0.00017866884320076015
1386.1870643692016,1386.1870643692016,0.9998654823180205,0.00017863557399407673
1386.1940089567875,1386.1940089567875,0.9999545187997043,0.00017863340072613168
1386.2009535443278,1386.2009535443278,0.9998643405878193,0.0001786318561926176
1386.2078981318678,1386.2078981318678,0.9999188898002448,0.0001786313504465044
1386.214842719338,1386.214842719338,1.0000573820187844,0.00017864427796362173
1386.221787306808,1386.221787306808,0.9999414988464738,0.00017863607518045046
1386.2287318941856,1386.2287318941856,1.0003031541453538,0.00017867330674702816
1386.2356764815856,1386.2356764815856,1.0000400807156002,0.00017864551451357447
1386.2426210689387,1386.2426210689387,0.9999938347523957,0.00017863649968282997
1386.2495656562699,1386.2495656562699,1.000143571555317,0.00017865704811726563
1386.2565102435542,1386.2565102435542,0.9998020363495288,0.0001786352805150713
1386.2634548307904,1386.2634548307904,1.0002226099384806,0.0001786711308616148
1386.2703994180051,1386.2703994180051,0.9995249372218868,0.00017860827242466136
1386.277344005196,1386.277344005196,0.999962122919975,0.00017864611543360337
1386.2842885923396,1386.2842885923396,1.0001558609599452,0.00017867822205841073
1386.2912331794373,1386.2912331794373,1.0000711361183385,0.0001786833210604662
1386.2981777665354,1386.2981777665354,1.0000509710574168,0.00017866224994918066
1386.3051223535633,1386.3051223535633,1.000180005990529,0.00017868213746397265
1386.312066940567,1386.312066940567,0.9997627236799174,0.0001786599512879887
1386.3190115275486,1386.3190115275486,0.999883454145517,0.0001786660622418601
1386.3259561145069,1386.3259561145069,0.9999879042460662,0.00017868787526298808
1386.3329007013942,1386.3329007013942,1.00003626319012,0.00017867594643287626
1386.3398452882598,1386.3398452882598,1.0000169526923193,0.00017868743748046875
1386.3467898750782,1386.3467898750782,1.0002109801639203,0.0001786909690909076
1386.3537344618958,1386.3537344618958,0.9999785462965047,0.00017867916339162253
1386.3606790486679,1386.3606790486679,1.0000212394509638,0.0001786965686517405
1386.3687347692824,1386.3687347692824,0.9998191284474773,0.00017868294632865164
1386.3759571394205,1386.3759571394205,0.9999172785189663,0.00017868087760243716
1386.3829017260996,1386.3829017260996,1.0000461001415548,0.00017870027633873714
1386.3898463127318,1386.3898463127318,1.0001049133643223,0.0001787005976519748
1386.396790899317,1386.396790899317,1.000077415670707,0.00017870444201788422
1386.4037354858788,1386.4037354858788,1.0000150259772949,0.0001786895806404839
1386.4106800723948,1386.4106800723948,0.9996448000171319,0.0001786693346351982
1386.4176246589102,1386.4176246589102,1.0002792512858816,0.0001787091893068299
1386.4245692453092,1386.4245692453092,1.0000884405050194,0.00017868858563066504
1386.431513831755,1386.431513831755,1.0000809379808309,0.000178692819493803
1386.4384584181314,1386.4384584181314,0.9996188359985292,0.0001786577855511576
1386.445403004483,1386.445403004483,1.0001079896211977,0.00017869102636281918
1386.4523475907895,1386.4523475907895,0.9999850479318504,0.00017868697660967706
1386.4592921770961,1386.4592921770961,0.9999910210283582,0.0001786905976277442
1386.4662367633316,1386.4662367633316,1.000140543055036,0.00017869156272714854
1386.4731813495443,1386.4731813495443,1.0000212404587627,0.00017867596909558893
1386.4801259357343,1386.4801259357343,0.9999731314520275,0.00017868759182551572
1386.487070521854,1386.487070521854,1.0000797560896622,0.00017870304467066777
1386.4940151079734,1386.4940151079734,0.9998467040543467,0.00017868844311853124
1386.5009596940467,1386.5009596940467,1.0000738995737115,0.0001787114093985247
1386.507904280097,1386.507904280097,1.0002037306864062,0.00017872996157920033
1386.5148488660996,1386.5148488660996,0.9996843376190107,0.00017869149530425592
1386.5217934521033,1386.5217934521033,1.0000875805664446,0.00017873328234340637
1386.5287380380373,1386.5287380380373,1.000048781890767,0.00017873219373892984
1386.5356826239472,1386.5356826239472,1.000067745990887,0.00017873743744300987
1386.542627209787,1386.542627209787,0.9998216535964819,0.0001787171208322182
1386.5495717956283,1386.5495717956283,1.0000490940797482,0.0001787200893139359
1386.5565163814451,1386.5565163814451,1.0001483103861497,0.00017873513528151775
1386.5642943174805,1386.5642943174805,0.9998503329210179,0.00017872926457818627
1386.5717944700798,1386.5717944700798,0.9997866319818696,0.00017871491366833146
1386.5787390557807,1386.5787390557807,1.0000149126296105,0.0001787353263526793
1386.585683641434,1386.585683641434,1.0001084806748273,0.00017874112497190045
1386.592628227065,1386.592628227065,1.0001741097714185,0.00017873539806375512
1386.5995728126497,1386.5995728126497,1.000042139964202,0.00017872379651555462
1386.6065173982101,1386.6065173982101,1.0000018846649668,0.00017871549590326986
1386.6134619837246,1386.6134619837246,0.9998371373602014,0.00017870499500334305
1386.620406569216,1386.620406569216,1.000111957363194,0.00017873144370238194
1386.6273511546838,1386.6273511546838,0.999938685301997,0.00017871516914830777
1386.6342957400814,1386.6342957400814,0.9998476441158223,0.00017871164758871786
1386.641240325503,1386.641240325503,0.9999334685068959,0.0001787181108359743
1386.6481849108548,1386.6481849108548,1.0001135839208586,0.00017872558712345618
1386.6551294961123,1386.6551294961123,1.0000954781527505,0.00017873183720038203
1386.6620740814174,1386.6620740814174,1.000044096745914,0.00017873729012568272
1386.6690186666528,1386.6690186666528,1.0000748030580113,0.0001787327895088091
1386.6759632518638,1386.6759632518638,0.9996944488988951,0.00017870818227692982
1386.6829078370758,1386.6829078370758,0.9998414301408485,0.0001787237770311012
1386.6898524221947,1386.6898524221947,1.0001730317116968,0.0001787575786883438
1386.6967970072897,1386.6967970072897,0.9998260548579051,0.00017871785380907924
1386.7037415923846,1386.7037415923846,1.0000639469637729,0.00017873900895621391
1386.7106861774105,1386.7106861774105,0.9998165409612447,0.00017873374963892506
1386.7176307624363,1386.7176307624363,1.00015644824666,0.00017875703896599616
1386.7245753473912,1386.7245753473912,1.000083455506326,0.00017874896385297205
1386.7315199323468,1386.7315199323468,0.9999720139999451,0.00017873865954374948
1386.7384645172565,1386.7384645172565,1.0000434385697772,0.00017875294240202305
1386.7454091021186,1386.7454091021186,0.9999188078407217,0.00017872989494747342
1386.7523536869344,1386.7523536869344,0.9999754572149563,0.0001787420010079479
1386.7592982717044,1386.7592982717044,0.9998642523059527,0.00017873899420530333
1386.7662428564738,1386.7662428564738,1.00036632616108,0.0001787805769810442
1386.7740207914146,1386.7740207914146,0.9995318625031364,0.00017870658978972497
1386.781520942896,1386.781520942896,0.9999380472358823,0.00017874219787377533
1386.7884655275495,1386.7884655275495,1.0002635188641347,0.0001787636456623024
1386.7954101121784,1386.7954101121784,1.0000859496564831,0.0001787477871087375
1386.8023546967615,1386.8023546967615,1.0000532345239914,0.00017874680843181596
1386.8092992813215,1386.8092992813215,1.0000758478770009,0.00017876647292079797
1386.816243865835,1386.816243865835,1.00007814201156,0.0001787570986314248
1386.8231884503243,1386.8231884503243,0.9999140670650577,0.00017875949749189437
1386.830133034768,1386.830133034768,1.0000319939740814,0.00017877490358010894
1386.8370776191884,1386.8370776191884,0.9998597934474424,0.0001787612777433245
1386.8440222035615,1386.8440222035615,0.9996898911120908,0.00017873928906347712
1386.8509667879118,1386.8509667879118,1.0001630243833097,0.00017878739637364492
1386.8579113722394,1386.8579113722394,1.000022618517025,0.00017878706940837826
1386.8648559564958,1386.8648559564958,1.0000538430159653,0.00017878774904127548
1386.8718005407763,1386.8718005407763,1.0000475771665887,0.00017879585219918664
1386.8787451249639,1386.8787451249639,1.0000132639895651,0.00017879001392579315
1386.8856897091512,1386.8856897091512,1.0000449473683228,0.0001788139687262177
1386.8926342932912,1386.8926342932912,0.9999700813329329,0.00017879569340769076
1386.899578877409,1386.899578877409,1.0000684875312449,0.00017880152122560854
1386.9065234614568,1386.9065234614568,1.0000848040035684,0.0001788100625758013
1386.9134680455045,1386.9134680455045,0.9997185406227235,0.00017877928298251492
1386.9204126295049,1386.9204126295049,0.99985309859017,0.00017880653178099646
1386.9273572134832,1386.9273572134832,0.999894495793703,0.0001787994050303921
1386.934301797438,1386.934301797438,1.0000609104500096,0.00017880699792954734
1386.9412463813449,1386.9412463813449,1.0002019251544012,0.00017881969506863943
1386.9481909652068,1386.9481909652068,1.0001864879748728,0.00017881709513367248
1386.9551355490448,1386.9551355490448,1.0001421467575826,0.0001788115956691271
1386.9620801328358,1386.9620801328358,0.9997951746800439,0.00017878781797295643
1386.9690247165809,1386.9690247165809,0.9998933737502126,0.0001787893931060435
1386.9759693003261,1386.9759693003261,1.0001284844461622,0.00017881886145717707
1386.9843028007688,1386.9843028007688,0.9998305084496906,0.00017879834112276494
1386.9912473843735,1386.9912473843735,1.0001696675465699,0.00017880960758127329
1386.998191967979,1386.998191967979,0.9999493603483034,0.00017880851463716345
1387.0051365515849,1387.0051365515849,0.9999351607103535,0.00017881627115806512
1387.012081135189,1387.012081135189,1.0000074273810236,0.00017882829847602565
1387.019025718678,1387.019025718678,0.9998736610453719,0.00017882323357073596
1387.0259703021904,1387.0259703021904,1.0003922032712134,0.00017885788167841331
1387.0329148856094,1387.0329148856094,0.9998923205015041,0.00017881677656841666
1387.0398594690275,1387.0398594690275,0.9998195301683349,0.00017881072783979305
1387.046804052424,1387.046804052424,0.9998631621616418,0.00017881220520269035
1387.0537486357503,1387.0537486357503,1.000020921946319,0.0001788394070168081
1387.060693219052,1387.060693219052,1.0000833071850561,0.00017885016627540998
1387.0676378023543,1387.0676378023543,0.9999796234134657,0.00017883283756751559
1387.0745823856107,1387.0745823856107,1.0000014800962724,0.00017883973613424503
1387.0815269687969,1387.0815269687969,1.0002117414020328,0.00017885875843983166
1387.0884715519826,1387.0884715519826,1.0000718415355698,0.00017884529255201876
1387.0954161351224,1387.0954161351224,1.0001361883950894,0.00017886063818031836
1387.1023607182156,1387.1023607182156,0.9994045317108633,0.00017879769900656375
1387.1093053013078,1387.1093053013078,1.0001569514737325,0.00017887947924932537
1387.116249884378,1387.116249884378,1.0002610968072516,0.0001788760583740291
1387.1231944673316,1387.1231944673316,0.9999933432731585,0.00017882510484785687
1387.1301390503081,1387.1301390503081,0.9998937994308255,0.00017885373363783145
1387.1370836332376,1387.1370836332376,0.9998781605842126,0.00017884339639860365
1387.1440282161443,1387.1440282161443,1.0000009982185467,0.00017886115510600415
1387.1509727990053,1387.1509727990053,0.9998957676824588,0.0001788431388868502
1387.1579173818413,1387.1579173818413,0.9999116992797932,0.00017885259236774428
1387.1648619646317,1387.1648619646317,1.0002171763172152,0.00017889124809282946
1387.1718065473758,1387.1718065473758,1.0002442847452255,0.00017887383697057934
1387.1787511300965,1387.1787511300965,0.9999112305009332,0.00017885581663426987
1387.185695712816,1387.185695712816,1.0002092979031176,0.00017887893695347286
1387.1926402954673,1387.1926402954673,0.9996465070528444,0.00017883952915566907
1387.1995848780946,1387.1995848780946,0.9997982726602093,0.00017886674582094783
1387.2065294606984,1387.2065294606984,1.0000483404121956,0.00017888947704856572
1387.2134740432325,1387.2134740432325,1.0000908543339033,0.00017888434552165055
1387.220418625767,1387.220418625767,1.0001540295795759,0.0001788998047393125
1387.2273632082083,1387.2273632082083,1.000158686553125,0.00017890202889770816
1387.2343077906487,1387.2343077906487,1.0002113452624695,0.0001789240042874172
1387.2412523730898,1387.2412523730898,0.9998289604310957,0.00017888810671776823
1387.2481969555315,1387.2481969555315,0.9999810357872153,0.0001788915504190224
1387.2551415378562,1387.2551415378562,0.9995999663024546,0.0001788710614365288
1387.262086120157,1387.262086120157,0.9999207230665726,0.0001788827187348229
1387.2690307024586,1387.2690307024586,1.0001356651817233,0.00017891228315844391
1387.2759752847137,1387.2759752847137,0.9997886246580336,0.00017888179028698823
1387.2829198668978,1387.2829198668978,1.0001518530365827,0.00017890484410279024
1387.2898644491063,1387.2898644491063,0.9999199346507972,0.00017888622174022477
1387.296809031245,1387.296809031245,1.000332602502596,0.000178929938815569
1387.3037536133368,1387.3037536133368,1.000214697052239,0.0001788777521301663
1387.3123648950975,1387.3123648950975,1.0000347464040011,0.00017890001452011635
1387.3204206102637,1387.3204206102637,0.9997728053131091,0.00017887286721641592
1387.3273651922632,1387.3273651922632,0.9999308548364999,0.00017888043188745442
1387.335698690586,1387.335698690586,1.000067539414729,0.00017889651449788944
1387.3426432725385,1387.3426432725385,0.9999891679699602,0.00017888211485507223
1387.3504212042212,1387.3504212042212,0.999669701869696,0.0001788729322561772
1387.3579213526282,1387.3579213526282,1.000199867892756,0.00017891264898627538
1387.364865934394,1387.364865934394,1.0000101503694012,0.00017889437707950225
1387.3718105161836,1387.3718105161836,1.0001123094597382,0.0001789173433577775
1387.3787550979264,1387.3787550979264,1.0000277737247942,0.00017891229427413922
1387.3856996796212,1387.3856996796212,1.0000486752099729,0.00017890554358842165
1387.3926442612947,1387.3926442612947,0.9999339677947787,0.00017891975127758519
1387.3995888429208,1387.3995888429208,0.9997882684409504,0.00017889392838649445
1387.4065334245001,1387.4065334245001,0.9999711880947796,0.00017892149226483438
1387.4134780060795,1387.4134780060795,1.00004797113569,0.00017891838957056978
1387.420422587613,1387.420422587613,1.0002524042025835,0.00017893561568731192
1387.427367169123,1387.427367169123,0.9998670084979668,0.00017889518253773654
1387.4343117505855,1387.4343117505855,0.9998292510745032,0.00017889791786297423
1387.441256332002,1387.441256332002,0.9999299551163083,0.000178906185951517
1387.448200913396,1387.448200913396,1.0002074961226195,0.0001789339321894656
1387.4551454947427,1387.4551454947427,1.0001179239420486,0.00017892398739757098
1387.462090076089,1387.462090076089,0.9999663563653096,0.00017890502486108225
1387.4690346573664,1387.4690346573664,1.0002211888041599,0.00017892850695354028
1387.4759792386435,1387.4759792386435,0.9996993136350316,0.00017888717517386426
1387.4829238198267,1387.4829238198267,1.0000744049680972,0.00017889456260962244
1387.4898684010336,1387.4898684010336,1.0002058887265932,0.00017891179510602363
1387.4968129821714,1387.4968129821714,0.9996912360877666,0.00017888990919654406
1387.5037575632855,1387.5037575632855,1.0000508525534058,0.00017891046681473471
1387.5107021443753,1387.5107021443753,0.9998803964421323,0.00017889248153091258
1387.5176467254196,1387.5176467254196,1.0000849412147919,0.00017890736007947612
1387.524591306441,1387.524591306441,1.0000660808921746,0.0001789247703143271
1387.5315358874152,1387.5315358874152,0.9999014569585573,0.0001789024658660799
1387.5384804683658,1387.5384804683658,1.000088790889754,0.00017890129041267367
1387.54542504927,1387.54542504927,0.9997468195545849,0.00017890660218159023
1387.5523696301516,1387.5523696301516,1.000163152514264,0.00017893195753210836
1387.559314210986,1387.559314210986,1.0002061648742822,0.0001789335759731429
1387.566258791797,1387.566258791797,1.0000895455640422,0.00017892855551670362
1387.573203372562,1387.573203372562,0.9998868763793345,0.00017890508453299913
1387.580147953257,1387.580147953257,0.999904185998693,0.0001789116536473059
1387.5870925339511,1387.5870925339511,1.0002109726008122,0.0001789409796283415
1387.5940371146462,1387.5940371146462,0.9999925076247553,0.00017893768210636108
1387.600981695318,1387.600981695318,0.999694888807397,0.0001789140997724458
1387.6079262758965,1387.6079262758965,0.9998983752821481,0.00017892355200469116
1387.6148708564742,1387.6148708564742,1.000250729873688,0.00017896203329497616
1387.6218154370065,1387.6218154370065,1.0000652612554632,0.00017893173503814863
1387.6287600174924,1387.6287600174924,1.0001975853481433,0.00017893897785527908
1387.6357045979541,1387.6357045979541,0.9997612828405422,0.00017892432809106813
1387.642649178369,1387.642649178369,0.9997344059243206,0.00017891416835797008
1387.649593758785,1387.649593758785,1.0000801707022524,0.00017895052404515516
1387.656538339131,1387.656538339131,0.9998361144963133,0.00017890458021630086
1387.6634829194522,1387.6634829194522,0.9999559697883089,0.00017891975524845805
1387.6704274997517,1387.6704274997517,1.000273334196072,0.00017894435821325943
1387.6773720800043,1387.6773720800043,1.0002339438603447,0.00017894310222289013
1387.6843166602107,1387.6843166602107,0.9999543732370562,0.00017891263493396655
1387.6912612404155,1387.6912612404155,1.000045877553906,0.00017893307461113437
1387.6982058205285,1387.6982058205285,0.9999342671469579,0.0001789297921297158
1387.7051504006417,1387.7051504006417,1.0000483967339817,0.00017893449568985722
1387.7120949807545,1387.7120949807545,0.9997975417319218,0.00017890160921716904
