time,time,flux,flux_err
1325.2980201685548,1325.2980201685548,0.999855219118121,0.0013233492490732006
1325.3063536003422,1325.3063536003422,1.000006144911749,0.0013245727019748838
1325.3146870324017,1325.3146870324017,1.0002297735071635,0.001326307027058515
1325.322326012053,1325.322326012053,1.0007536332360822,0.0012114735965742672
1325.3292705392423,1325.3292705392423,0.9985895654122141,0.001212310152732848
1325.336215066618,1325.336215066618,1.0009673975797928,0.0012143612628820054
1325.343159594157,1325.343159594157,0.9993162683574278,0.0012163298523846034
1325.3501041219283,1325.3501041219283,0.9996715228373567,0.0012181692179628356
1325.3570486498397,1325.3570486498397,1.0006829609578969,0.0012202203743250273
1325.3639931780071,1325.3639931780071,0.9982524696103339,0.0012217919876180037
1325.3709377062908,1325.3709377062908,1.000876800795782,0.0012237902127360748
1325.3778822347842,1325.3778822347842,0.9990874574622637,0.0012262124943226928
1325.3848267634637,1325.3848267634637,0.9999990110571932,0.0012274078885965477
1325.3917712923062,1325.3917712923062,1.0001319377656281,0.0012296784473064394
1325.398715821335,1325.398715821335,0.9996088376167496,0.0012312561975042307
1325.4056603505271,1325.4056603505271,1.0001978745744893,0.0012334803949162645
1325.4126048799048,1325.4126048799048,0.9998262732404122,0.00123433766716748
1325.419549409446,1325.419549409446,0.9999886431471762,0.0012358808178178499
1325.4264939391499,1325.4264939391499,0.9996749845929818,0.0012373583605448022
1325.4334384690403,1325.4334384690403,0.9989009972508397,0.0012387566866063214
1325.4403829990936,1325.4403829990936,0.9991052900900625,0.001240644291143261
1325.4473275292864,1325.4473275292864,1.0025879530288138,0.0012419439972222292
1325.454272059619,1325.454272059619,1.0017589949409405,0.001243587405720636
1325.4612165901613,1325.4612165901613,1.0011102279967452,0.0012452487731904722
1325.468161120843,1325.468161120843,0.998712167910855,0.0012457797665208809
1325.4751056516416,1325.4751056516416,0.9992205705598313,0.001247073277179552
1325.482050182626,1325.482050182626,0.9979276905198331,0.0012490017174742562
1325.4889947137506,1325.4889947137506,1.0000835195028832,0.0012512760777615944
1325.4959392450378,1325.4959392450378,1.000272237282921,0.0012536364290227455
1325.502883776488,1325.502883776488,0.9993546531721617,0.0012561239603348989
1325.5098283080547,1325.5098283080547,1.0011584314468431,0.0012581402503280795
1325.5167728397378,1325.5167728397378,1.0016538712064256,0.0012600306597068925
1325.5237173715839,1325.5237173715839,1.0004017024140555,0.0012613175044207717
1325.5306619035696,1325.5306619035696,1.0002042663276607,0.0012627430625167212
1325.537606435718,1325.537606435718,0.9977535180750907,0.0012637683421817616
1325.544550967937,1325.544550967937,0.9974050497744293,0.0012655146369361942
1325.5514955003416,1325.5514955003416,1.0000244066410497,0.0012679152005046052
1325.55844003284,1325.55844003284,1.0018084061319783,0.0012700853311384244
1325.5653845654774,1325.5653845654774,1.0009638375831642,0.001271628894909524
1325.5723290982548,1325.5723290982548,1.0018918538424797,0.0012744201717413044
1325.5792736311723,1325.5792736311723,0.9992604330400715,0.001275552826556101
1325.5862181641821,1325.5862181641821,1.000969792078121,0.001277850797606884
1325.5931626973554,1325.5931626973554,0.999444786804375,0.0012790137869884764
1325.600107230645,1325.600107230645,1.0019087921357162,0.0012812705199354917
1325.6070517640044,1325.6070517640044,0.9991897135230042,0.0012824931973214868
1325.6139962975271,1325.6139962975271,1.0004784426561404,0.0012837157399474832
1325.6209408311424,1325.6209408311424,0.9992719570869486,0.00128463299520692
1325.6278853648746,1325.6278853648746,0.9989297226336854,0.0012853654507696956
1325.634829898723,1325.634829898723,0.998653150733214,0.001286288150122794
1325.6417744326877,1325.6417744326877,1.0006294670451823,0.0012875479047275915
1325.6487189667923,1325.6487189667923,1.0007240059206857,0.001287585201247997
1325.6556635009667,1325.6556635009667,1.000848975291599,0.001287285280334134
1325.6626080352576,1325.6626080352576,1.002144084283854,0.0012887495105119843
1325.669552569711,1325.669552569711,1.0009368991621883,0.0012893263126036063
1325.6764971041882,1325.6764971041882,0.9997931035743989,0.0012892723252169484
1325.6834416387817,1325.6834416387817,0.9995328613746274,0.0012902194191512458
1325.6903861734684,1325.6903861734684,1.0006387960094159,0.0012918851554175595
1325.6973307082949,1325.6973307082949,0.9980399361607344,0.0012922581728504973
1325.7042752431912,1325.7042752431912,1.0006804956079496,0.0012944131741710134
1325.7112197782033,1325.7112197782033,1.00016601030269,0.0012954622383547676
1325.7181643133092,1325.7181643133092,0.998860193166653,0.001297104607607616
1325.725108848508,1325.725108848508,0.9994286466762429,0.0012981428020955286
1325.732053383823,1325.732053383823,1.0019768070674073,0.0013007655182067808
1325.7389979192085,1325.7389979192085,0.9987864375407065,0.0013005666629973059
1325.7459424546862,1325.7459424546862,1.001278540998686,0.0013026184255574373
1325.7528869902578,1325.7528869902578,0.998145356337993,0.0013036194512434656
1325.7598315259456,1325.7598315259456,1.0003782780830184,0.0013045363558498902
1325.7667760616564,1325.7667760616564,0.9993090444954218,0.0013064512518386946
1325.7737205975075,1325.7737205975075,0.9986931784105838,0.0013074144319985819
1325.7806651334279,1325.7806651334279,1.0003722498899283,0.0013091544702197645
1325.7876096694185,1325.7876096694185,1.0005813023781402,0.0013105488368281904
1325.7945542055254,1325.7945542055254,1.0008362515502185,0.0013121526838193402
1325.8014987416557,1325.8014987416557,1.0045227028257628,0.0013143672719787215
1325.8084432779256,1325.8084432779256,1.0009331657757063,0.0013149126433730292
1325.815387814265,1325.815387814265,0.9991935116120709,0.0013159884514161062
1325.8223323506747,1325.8223323506747,1.0005616650793836,0.0013164109404866869
1325.829276887154,1325.829276887154,0.9980787874843386,0.0013171152927036257
1325.83622142375,1325.83622142375,0.9979316477014593,0.0013176693631215728
1325.8431659603925,1325.8431659603925,0.9988049142592601,0.0013187360235500914
1325.8501104970808,1325.8501104970808,1.0000254027200897,0.0013189219303883924
1325.8570550338868,1325.8570550338868,0.9999913902736685,0.0013185677172826672
1325.8639995707617,1325.8639995707617,0.9988525440871323,0.0013184148367744182
1325.870944107707,1325.870944107707,1.0016262746386544,0.0013175481052938556
1325.877888644722,1325.877888644722,0.9979602179292704,0.001315538095079824
1325.8848331817833,1325.8848331817833,1.0017418796356332,0.001315549002801217
1325.891777718961,1325.891777718961,1.0011961611817746,0.0013141102371116201
1325.8987222561625,1325.8987222561625,0.9990912368064837,0.0013138610639324942
1325.9056667934797,1325.9056667934797,1.0001658426837212,0.0013129172335929475
1325.9126113307743,1325.9126113307743,1.000604122125506,0.0013128563701174684
1325.9195558682545,1325.9195558682545,0.9998058197512389,0.001312497268640279
1325.9265004057122,1325.9265004057122,0.9994844959334994,0.0013122329290181582
1325.9334449432856,1325.9334449432856,0.9998693060894274,0.0013123353280862055
1325.940389480883,1325.940389480883,1.0011519955477608,0.0013122286476399535
1325.9473340185498,1325.9473340185498,1.0003910663701194,0.0013121536384471891
1325.9542785563099,1325.9542785563099,0.9984589266150572,0.001312136383234858
1325.9620564386264,1325.9620564386264,0.9991466623394436,0.0013115125152767452
1325.96955653954,1325.96955653954,0.9988417740987569,0.001312385401364999
1325.9765010774165,1325.9765010774165,1.0005519500405353,0.0013121370170971365
1325.9834456154322,1325.9834456154322,0.9998844359847986,0.0013126273851651665
1325.990390153495,1325.990390153495,1.0018006105730586,0.0013139083612944147
1325.9973346916045,1325.9973346916045,1.001418631539958,0.001314745445346262
1326.0042792297597,1326.0042792297597,0.9982827560606026,0.0013153935283206982
1326.0112237679625,1326.0112237679625,1.0010944834878384,0.0013172200872844041
1326.0181683062347,1326.0181683062347,0.9996127862866784,0.00131849160669927
1326.0251128445536,1326.0251128445536,1.0004541349213196,0.0013204298037342666
1326.032057382942,1326.032057382942,0.9994833312269014,0.0013216905331100799
1326.0390019213537,1326.0390019213537,0.9999904056928945,0.001320892871971132
1326.0459464598125,1326.0459464598125,0.9993032639945625,0.0013216277558917079
1326.0528909983407,1326.0528909983407,0.9990582213009491,0.0013224028559396925
1326.0598355369389,1326.0598355369389,1.0007335921706673,0.0013237933300923278
1326.0667800755837,1326.0667800755837,0.9989386817496175,0.0013242334465576769
1326.0737246142512,1326.0737246142512,1.0004603467244177,0.0013245750455269027
1326.0806691529665,1326.0806691529665,1.0031983209352324,0.0013264252308111198
1326.0876136917736,1326.0876136917736,1.0007428822650055,0.0013262513581553275
1326.0945582306051,1326.0945582306051,1.0018265485877185,0.0013271381051178002
1326.1015027694593,1326.1015027694593,0.9992734790164339,0.001326966039490817
1326.1084473083833,1326.1084473083833,0.9976704345787943,0.0013267803186330143
1326.1153918473308,1326.1153918473308,0.9982834208577571,0.0013274618288061208
1326.1223363863478,1326.1223363863478,0.9999270490573015,0.0013278734482574152
1326.129280925412,1326.129280925412,1.0010742555028131,0.001328774727213409
1326.1362254644523,1326.1362254644523,0.9989890861616668,0.0013283464930084153
1326.1431700036094,1326.1431700036094,1.000609618123692,0.001328505878346892
1326.150114542836,1326.150114542836,1.0009684100064262,0.0013288593086781871
1326.1570590820395,1326.1570590820395,1.0015616199858355,0.0013295558935693963
1326.1640036212898,1326.1640036212898,0.9993605573278492,0.0013289342029391756
1326.1709481606326,1326.1709481606326,1.0008066764719223,0.0013292575265439741
1326.177892699953,1326.177892699953,0.9978625462645093,0.0013286193484983327
1326.1848372393426,1326.1848372393426,1.00146276159276,0.0013292328585177225
1326.1917817787785,1326.1917817787785,0.9985982667177492,0.0013299843303190115
1326.1987263182389,1326.1987263182389,1.0000674233927398,0.0013300456793890613
1326.2056708577215,1326.2056708577215,1.000721198672375,0.0013304400885551517
1326.212615397298,1326.212615397298,1.0004618000604963,0.001330080612024349
1326.2195599368738,1326.2195599368738,1.0001522314681799,0.0013311419310801805
1326.226504476473,1326.226504476473,1.0016568607465552,0.0013308153695025667
1326.2334490161654,1326.2334490161654,0.9995594438288918,0.0013310584199302288
1326.2403935557877,1326.2403935557877,0.999555748105936,0.0013307701319365164
1326.2473380955507,1326.2473380955507,0.9993441005914694,0.001331251599870615
1326.2542826353124,1326.2542826353124,1.001388225616425,0.0013317616675222743
1326.2612271750986,1326.2612271750986,1.0002164639082127,0.0013319903898147305
1326.2681717149305,1326.2681717149305,0.997835389062284,0.0013322240539900625
1326.2751162547859,1326.2751162547859,1.000862218200021,0.0013322028867053318
1326.2820607946883,1326.2820607946883,1.0013645067320591,0.0013333741822987336
1326.2890053346132,1326.2890053346132,1.0006614404312106,0.0013327422046467338
1326.2959498745618,1326.2959498745618,1.0004604464061333,0.0013335237652662485
1326.3028944145801,1326.3028944145801,0.9984811599176903,0.0013344693876015733
1326.3098389545753,1326.3098389545753,0.9988059703635912,0.0013344795996819883
1326.316783494664,1326.316783494664,0.9998742042890927,0.0013355246141642566
1326.3237280347284,1326.3237280347284,1.0003805794599732,0.001336594909350247
1326.330672574864,1326.330672574864,1.0011098564917091,0.0013369896608067772
1326.3376171149987,1326.3376171149987,0.9998221633030735,0.0013383013419205184
1326.3451172184039,1326.3451172184039,0.9994387770118088,0.0013395728426109118
1326.3542840114803,1326.3542840114803,1.0002873863121784,0.0013402809135502646
1326.3612285517083,1326.3612285517083,0.9994032362635934,0.001341357211597417
1326.3681730920064,1326.3681730920064,1.0017622352844628,0.0013428301434634088
1326.375117632304,1326.375117632304,0.9996494130879816,0.001343741252976436
1326.3820621726252,1326.3820621726252,1.0005840253980067,0.001344584310888799
1326.3890067130162,1326.3890067130162,0.9998299982194115,0.0013453572591213957
1326.3959512533838,1326.3959512533838,0.9984296997938469,0.0013461275356225397
1326.4028957937978,1326.4028957937978,0.9987989544140978,0.0013475880739907532
1326.409840334236,1326.409840334236,1.0012164929173784,0.0013488956379433792
1326.4167848747197,1326.4167848747197,0.9999729127818521,0.0013492093314973331
1326.4237294152038,1326.4237294152038,1.0000762032476769,0.001350314451070931
1326.430673955711,1326.430673955711,0.9989866801765576,0.0013513728423106685
1326.4376184962416,1326.4376184962416,1.0019794937324655,0.0013528196948173234
1326.444563036819,1326.444563036819,1.000021816087789,0.001353211077907169
1326.4515075774195,1326.4515075774195,1.0013058025694392,0.0013544361018427889
1326.45845211802,1326.45845211802,0.9987192693311201,0.0013550045074285874
1326.465396658667,1326.465396658667,0.9991612179597414,0.0013555898498140752
1326.472341199314,1326.472341199314,0.9993584188063618,0.0013567424724201236
1326.4792857400082,1326.4792857400082,1.000154599943139,0.0013573947115826704
1326.4862302807246,1326.4862302807246,0.998861947637095,0.0013588881769824213
1326.4931748214653,1326.4931748214653,1.0001329327536375,0.0013594750977152527
1326.5001193622052,1326.5001193622052,1.0018331138030692,0.0013607298045748835
1326.5070639029686,1326.5070639029686,1.0005421426193868,0.0013612105606657383
1326.5140084437555,1326.5140084437555,0.9993700040282085,0.0013626139777057002
1326.5209529846122,1326.5209529846122,1.0013844814226602,0.001363648876921124
1326.5278975254223,1326.5278975254223,0.999824877508423,0.0013646937862877998
1326.5348420662554,1326.5348420662554,0.999101895829892,0.0013668887269223228
1326.5417866071355,1326.5417866071355,1.0009118716785987,0.001368467190980246
1326.5487311480852,1326.5487311480852,0.9990606002936783,0.0013699618119534865
1326.5556756890117,1326.5556756890117,0.9997984368106767,0.0013711284068997575
1326.562620229938,1326.562620229938,1.0019572542336561,0.001372467426406126
1326.5695647708878,1326.5695647708878,1.0007479648502298,0.001372932340809148
1326.5765093118846,1326.5765093118846,1.0014390313663781,0.0013741148023072535
1326.5834538528804,1326.5834538528804,1.0002049101602009,0.0013746251213444696
1326.5903983939004,1326.5903983939004,1.0002217476195068,0.0013756173181586132
1326.597342934943,1326.597342934943,0.9993181142702149,0.0013761909575864212
1326.6042874759862,1326.6042874759862,0.999628627644071,0.0013771701315355134
1326.6112320170523,1326.6112320170523,0.9997148717073416,0.0013780440410589613
1326.6181765581416,1326.6181765581416,0.9988834619153547,0.001378253223659809
1326.6251210992546,1326.6251210992546,1.001161278314805,0.0013789669940428354
1326.6320656403902,1326.6320656403902,1.0009119919164964,0.0013788397145462932
1326.6390101815264,1326.6390101815264,1.0005743678518144,0.0013789552849863152
1326.6459547226857,1326.6459547226857,0.9987579303819938,0.0013791719013439491
1326.6528992638682,1326.6528992638682,1.0011403724370056,0.0013787751075609806
1326.659843805051,1326.659843805051,1.001364568618545,0.0013791751116145798
1326.66678834628,1326.66678834628,1.0002865737702618,0.0013778340952771847
1326.6737328875095,1326.6737328875095,0.998183342530389,0.0013768509468175924
1326.6806774287386,1326.6806774287386,0.9996347178332247,0.0013763162518421561
1326.6887330966015,1326.6887330966015,1.0011707898736142,0.0013766979199987613
1326.6959554195123,1326.6959554195123,1.000083132720287,0.001375601526383814
1326.7028999608347,1326.7028999608347,0.999365725502044,0.0013743228533271326
1326.7104000654042,1326.7104000654042,0.9972205364416539,0.0013740309858475872
1326.7181779517252,1326.7181779517252,1.0006030453703194,0.0013734044311203475
1326.7251224930474,1326.7251224930474,0.9998763214177933,0.0013729586240316992
1326.7320670344163,1326.7320670344163,1.0011265085198946,0.0013732446159850716
1326.7390115757855,1326.7390115757855,1.0008803056451618,0.0013725078665726182
1326.7459561171538,1326.7459561171538,0.9983820926154836,0.0013723716919085325
1326.7529006585694,1326.7529006585694,1.0000075338287813,0.00137242030165014
1326.7598451999615,1326.7598451999615,0.9999444279607642,0.0013720431241538466
1326.7667897414235,1326.7667897414235,1.0007373574617167,0.0013722787141595741
1326.773734282839,1326.773734282839,1.0013421500842996,0.0013729448602480812
1326.780678824231,1326.780678824231,0.9978080892653611,0.0013722690599809718
1326.787623365693,1326.787623365693,0.9991878198248729,0.0013727301606035948
1326.7945679072482,1326.7945679072482,0.9999586156939102,0.0013734606030554384
1326.8015124487338,1326.8015124487338,1.0002932762464076,0.0013746562251751606
1326.8084569901955,1326.8084569901955,1.0000311183540418,0.001373918652409191
1326.815401531727,1326.815401531727,1.0011098903206495,0.0013742506316836568
1326.8223460732358,1326.8223460732358,0.9976858917397523,0.00137420540805939
1326.829290614814,1326.829290614814,1.0002266280313707,0.0013748826182501488
1326.8362351563462,1326.8362351563462,1.0004115807580112,0.001374889988008861
1326.8431796979014,1326.8431796979014,1.0021267105296097,0.0013749737667802906
1326.8501242394796,1326.8501242394796,0.9995748526622001,0.0013744301728663593
1326.857068781058,1326.857068781058,1.0008265199809314,0.0013749108724056794
1326.86401332266,1326.86401332266,1.0024424151764535,0.0013748444590339793
1326.8709578642618,1326.8709578642618,0.9984858663880288,0.0013734941777273771
1326.8779024058863,1326.8779024058863,0.9986580178472447,0.001372970755015443
1326.8848469475117,1326.8848469475117,0.9988684164550807,0.0013708675860465373
1326.8917914891363,1326.8917914891363,1.000701321134331,0.001370558431535193
1326.8987360307847,1326.8987360307847,1.0011018409372556,0.0013687718379741325
1326.9056805724563,1326.9056805724563,0.9998322638304483,0.0013670615244790196
1326.9126251141279,1326.9126251141279,0.998037360619703,0.001364859821975708
1326.9195696557993,1326.9195696557993,1.0001563260868198,0.001363324449420274
1326.9265141974943,1326.9265141974943,0.9997973871780979,0.0013614662905718582
1326.933458739189,1326.933458739189,1.0040718781814018,0.0013598821504991671
1326.9404032809066,1326.9404032809066,0.9997405100798664,0.0013571776133102886
1326.947347822625,1326.947347822625,1.0029904866121222,0.001355907740374658
1326.9542923643664,1326.9542923643664,0.9994866330013096,0.0013536455993644063
1326.961236906108,1326.961236906108,0.9991755865668768,0.0013514182048751538
1326.968181447873,1326.968181447873,0.9992883194367537,0.001350078140604029
1326.9751259896136,1326.9751259896136,0.9985685676407003,0.001348074934143972
1326.982070531379,1326.982070531379,0.999164674323039,0.0013475028798422425
1326.98901507312,1326.98901507312,0.9996627515240286,0.0013466716818878641
1326.9959596149315,1326.9959596149315,1.0018185922538803,0.0013461032267277173
1327.0029041566959,1327.0029041566959,1.0016996002502057,0.001345914065897043
1327.0098486985073,1327.0098486985073,1.001091870301721,0.0013454187202382559
1327.0167932403185,1327.0167932403185,0.9971733558882276,0.0013448336497235453
1327.0237377821297,1327.0237377821297,1.001808974887879,0.0013450921303201865
1327.0306823239644,1327.0306823239644,0.9982602596545668,0.0013453626522285322
1327.037626865775,1327.037626865775,1.0004469083841934,0.001345510071840529
1327.0445714076334,1327.0445714076334,1.0006635107706328,0.0013460712494617823
1327.0515159494676,1327.0515159494676,0.9995000574564493,0.0013468098967214278
1327.059293836348,1327.059293836348,0.99892640913563,0.0013472131094272122
1327.066793941592,1327.066793941592,1.0013965969045215,0.0013474942244287432
1327.073738483427,1327.073738483427,1.0008264050032518,0.0013478434897643604
