time,time,flux,flux_err
1325.2990392196523,1325.2990392196523,0.9999835386845447,0.0002913646268428449
1325.307372723137,1325.307372723137,0.9999680909336902,0.000291419110781702
1325.3150117681762,1325.3150117681762,0.999932096727961,0.0002660975117088957
1325.321956354726,1325.321956354726,1.0003675611660672,0.0002661764275249304
1325.328900941415,1325.328900941415,0.9996582823817445,0.00026616689244539864
1325.3358455282353,1325.3358455282353,1.000326757393254,0.0002663009356613639
1325.3427901151954,1325.3427901151954,0.9996553801905119,0.00026632112947781104
1325.3497347022862,1325.3497347022862,1.0001996664072028,0.0002664638530551667
1325.3566792895053,1325.3566792895053,1.000128683907373,0.00026653756176775445
1325.3636238768554,1325.3636238768554,0.9998560064717076,0.0002665974116542332
1325.3705684643396,1325.3705684643396,0.9999115855274429,0.0002666735258638776
1325.377513051945,1325.377513051945,0.9998257684888584,0.0002667850546434791
1325.384457639671,1325.384457639671,1.0001067241248722,0.00026692076521095815
1325.3914022275271,1325.3914022275271,1.0003839491114495,0.00026706565189138335
1325.398346815497,1325.398346815497,0.9999619144978309,0.00026712544721200343
1325.4052914035924,1325.4052914035924,0.9999972116184134,0.00026722963576860536
1325.4122359918006,1325.4122359918006,0.9998074860932545,0.0002672944348364925
1325.4191805801286,1325.4191805801286,0.9999512072352111,0.00026741611092803475
1325.4261251685698,1325.4261251685698,0.9996701855424248,0.00026749106233654843
1325.4330697571188,1325.4330697571188,0.9999324348751679,0.0002676400084743183
1325.4400143457788,1325.4400143457788,0.9998204682297116,0.00026771610731749515
1325.4469589345576,1325.4469589345576,1.0005815943975764,0.0002679470184865139
1325.4539035234352,1325.4539035234352,1.0000338449385389,0.00026799216878257976
1325.4608481124267,1325.4608481124267,1.0001752652411238,0.00026812526293841217
1325.46779270152,1325.46779270152,1.000351328988549,0.0002682765858008652
1325.4747372907154,1325.4747372907154,0.9997637810620766,0.0002683245359537881
1325.481681880015,1325.481681880015,0.9999650861766044,0.00026851240317578
1325.4886264694114,1325.4886264694114,1.000511122210204,0.000268713663162273
1325.4955710589152,1325.4955710589152,0.9994145429214161,0.00026877740631914087
1325.5025156485058,1325.5025156485058,0.9994358744166542,0.0002689039452825965
1325.509460238196,1325.509460238196,1.000172609939963,0.00026917495877425623
1325.5164048279905,1325.5164048279905,1.0003817509825939,0.0002694073394072541
1325.523349417867,1325.523349417867,1.0002031415824568,0.0002695491027776171
1325.530294007836,1325.530294007836,1.0002549387615156,0.0002697191801002688
1325.5372385979015,1325.5372385979015,1.0004915788372346,0.00026990439894994416
1325.5441831880512,1325.5441831880512,0.9996231583462688,0.00026996207113983426
1325.5511277782912,1325.5511277782912,0.9996002144744199,0.00027011689881914865
1325.5580723686185,1325.5580723686185,0.9999671629088999,0.00027032123037368846
1325.565016959033,1325.565016959033,1.0000527651761755,0.0002704911234713169
1325.5719615495261,1325.5719615495261,0.9995457681128241,0.0002705647979729883
1325.5789061401072,1325.5789061401072,1.0001123783095536,0.0002708190174842463
1325.585850730769,1325.585850730769,1.0000606221155215,0.0002708971793689527
1325.5927953215064,1325.5927953215064,1.0005144519320006,0.00027107246505880963
1325.5997399123257,1325.5997399123257,0.9999114262984236,0.00027111006799790464
1325.6066845032233,1325.6066845032233,1.0001857620063705,0.0002712002659619382
1325.6136290942,1325.6136290942,0.9996469939111355,0.00027123209102319413
1325.6205736852487,1325.6205736852487,0.9997831565026699,0.00027133361149422517
1325.6275182763707,1325.6275182763707,1.000231893546975,0.00027139964834869485
1325.6344628675681,1325.6344628675681,1.0004582731821536,0.0002714976561831082
1325.6414074588415,1325.6414074588415,0.9999274416906653,0.00027147824635844224
1325.6483520501783,1325.6483520501783,1.0000165934788905,0.0002715426859684845
1325.6552966415916,1325.6552966415916,1.000107783359579,0.00027156121226442774
1325.6622412330682,1325.6622412330682,1.00005191754539,0.00027157733632600416
1325.669185824621,1325.669185824621,0.9997644965248673,0.0002715622268804558
1325.6761304162314,1325.6761304162314,1.0002105354055266,0.000271604589712927
1325.6830750079127,1325.6830750079127,1.0000128249810405,0.00027163982298931575
1325.6900195996573,1325.6900195996573,1.0000549438799933,0.0002716862125456773
1325.6969641914627,1325.6969641914627,0.9997930919522539,0.00027170512025458376
1325.7039087833327,1325.7039087833327,0.9997718788435705,0.0002717351676911836
1325.7108533752637,1325.7108533752637,0.9999972466369458,0.0002718634960707213
1325.7177979672556,1325.7177979672556,0.9999009576604718,0.0002719153504879716
1325.724742559306,1325.724742559306,1.0007007366180567,0.00027205817690505705
1325.7316871514142,1325.7316871514142,0.9998997981609108,0.0002720111267047433
1325.7386317435842,1325.7386317435842,0.9996793209198106,0.000272093183479378
1325.7455763358116,1325.7455763358116,1.0000382985362104,0.0002721897937547488
1325.7525209280916,1325.7525209280916,0.9997065483540146,0.00027221224812148275
1325.7594655204243,1325.7594655204243,1.0001759033728548,0.00027238265400324245
1325.766410112815,1325.766410112815,0.9999998036303615,0.00027246169570173287
1325.7733547052555,1325.7733547052555,0.9998073120643276,0.0002725041075280132
1325.7802992977536,1325.7802992977536,0.9999384689991496,0.0002726092103863116
1325.7872438902991,1325.7872438902991,1.000556932944161,0.0002727455441220342
1325.7941884828936,1325.7941884828936,0.999944842065817,0.0002727814704627053
1325.801133075543,1325.801133075543,0.9998626769753501,0.0002728119677480684
1325.8080776682398,1325.8080776682398,1.0000163054571052,0.00027290439787106913
1325.8150222609852,1325.8150222609852,1.0003227585739756,0.0002730014492003994
1325.8219668537754,1325.8219668537754,0.9998962945037831,0.0002729524093032454
1325.8289114466108,1325.8289114466108,0.9998742386931578,0.0002730360553975781
1325.8358560394936,1325.8358560394936,1.0004375680784792,0.0002731098968813844
1325.842800632423,1325.842800632423,1.0000263598570067,0.00027305974530519644
1325.8497452253982,1325.8497452253982,0.9998794155302895,0.00027302655686061643
1325.856689818412,1325.856689818412,0.999664262904924,0.00027298510749201616
1325.8636344114723,1325.8636344114723,0.9997313364046138,0.00027292267804145375
1325.8705790045733,1325.8705790045733,1.0002982561691964,0.0002729052309914149
1325.877523597715,1325.877523597715,1.0003553178686753,0.0002728271418010964
1325.884468190903,1325.884468190903,1.0001676255843521,0.00027273924676194056
1325.8914127841235,1325.8914127841235,0.9998574742690692,0.00027262805467644725
1325.8983573773844,1325.8983573773844,1.0000678057809806,0.0002725907356322648
1325.9053019706917,1325.9053019706917,1.0000639493870853,0.0002725263984212585
1325.9122465640282,1325.9122465640282,0.9998400747032269,0.00027243914022561375
1325.9191911574028,1325.9191911574028,0.9999043090123786,0.00027237248886568925
1325.9261357508153,1325.9261357508153,0.9999053114042626,0.0002723429130662461
1325.933080344268,1325.933080344268,0.9998855543145483,0.000272328807632137
1325.9400249377536,1325.9400249377536,1.0002367505577534,0.0002723413272422147
1325.9469695312705,1325.9469695312705,1.0005957057395911,0.0002723519114386573
1325.9539141248224,1325.9539141248224,0.999656608241018,0.00027224152905777686
1325.9614142858973,1325.9614142858973,0.9998347706111954,0.0002722015231798542
1325.9691922307575,1325.9691922307575,1.0000500241443215,0.00027225666628843297
1325.9761368244174,1325.9761368244174,0.9999130430092318,0.00027223487655038533
1325.9830814181028,1325.9830814181028,1.0000026806413727,0.00027227745773854924
1325.9900260118295,1325.9900260118295,1.0000810795939192,0.00027230094655397984
1325.9969706055795,1325.9969706055795,0.9996780369069669,0.0002722875994841375
1326.0039151993617,1326.0039151993617,1.0001500803743013,0.0002723651802522536
1326.0108597931726,1326.0108597931726,0.9997666752744843,0.0002723946456115045
1326.0178043870098,1326.0178043870098,1.000307156484509,0.00027250238544176036
1326.024748980882,1326.024748980882,1.0002779785247122,0.0002726095796265004
1326.0316935747808,1326.0316935747808,1.000051791582911,0.00027257350431710535
1326.0386381687017,1326.0386381687017,0.9999440163493398,0.00027254886927553725
1326.0455827626502,1326.0455827626502,0.9999639463966824,0.0002725521637706741
1326.0525273566323,1326.0525273566323,1.0002452711939278,0.00027256286021478304
1326.0594719506298,1326.0594719506298,1.0001237085600507,0.00027258503852593835
1326.0664165446562,1326.0664165446562,1.0003426380733091,0.0002726327210387955
1326.0733611387086,1326.0733611387086,0.99964205770122,0.00027256685062900627
1326.080305732788,1326.080305732788,0.9998997559678958,0.0002726076517196161
1326.0872503268868,1326.0872503268868,1.0002506842289072,0.0002726342079636955
1326.0941949210096,1326.0941949210096,0.9995636905308729,0.00027260008469796187
1326.1011395151581,1326.1011395151581,0.9998107290025455,0.0002726031943609698
1326.108084109327,1326.108084109327,1.000336057626479,0.0002726690905927735
1326.1150287035193,1326.1150287035193,1.000169659224609,0.00027266815611854734
1326.1219732977315,1326.1219732977315,0.999627872105493,0.00027261044008825946
1326.128917891968,1326.128917891968,1.0000819989457572,0.00027266304787003744
1326.1358624862241,1326.1358624862241,0.9999612332809361,0.00027265698077840573
1326.1428070804952,1326.1428070804952,1.00049324188558,0.00027268004462359055
1326.1497516747954,1326.1497516747954,0.9996809418801383,0.0002725988839855142
1326.1566962691063,1326.1566962691063,0.9997701157030218,0.0002725962613279025
1326.1636408634422,1326.1636408634422,1.000124003204693,0.0002726119789897011
1326.1705854577967,1326.1705854577967,0.9999042359705289,0.00027256865935328177
1326.1775300521638,1326.1775300521638,1.000066994255119,0.00027259881340806837
1326.184474646554,1326.184474646554,1.0000322715458516,0.0002725813456875371
1326.1914192409615,1326.1914192409615,1.0002685931009523,0.0002725665870920643
1326.19836383539,1326.19836383539,1.000299703461268,0.0002725974150074589
1326.2053084298263,1326.2053084298263,0.9999601334271417,0.0002725156051483702
1326.212253024284,1326.212253024284,0.9997909894571334,0.0002725181317053774
1326.2191976187553,1326.2191976187553,0.9996321382680291,0.0002724909999478715
1326.2261422132444,1326.2261422132444,1.0000509515496232,0.00027249039788222534
1326.2330868077484,1326.2330868077484,1.0002219334532347,0.00027255465982330585
1326.2400314022664,1326.2400314022664,1.0000856293892202,0.00027251372259651436
1326.2469759968023,1326.2469759968023,0.9999676728908902,0.0002724787178475524
1326.2539205913495,1326.2539205913495,1.0004012352485692,0.00027251648671932553
1326.2608651859089,1326.2608651859089,0.9997884307851486,0.00027245352919005406
1326.267809780485,1326.267809780485,1.000001718471251,0.00027243846613208704
1326.2747543750759,1326.2747543750759,1.0001953504659622,0.00027243237795526894
1326.2816989696792,1326.2816989696792,0.9996417744793543,0.00027235281949548635
1326.2886435642931,1326.2886435642931,1.000027234995293,0.0002723607031110584
1326.2955881589191,1326.2955881589191,0.9997403297508324,0.000272378794778958
1326.3025327535565,1326.3025327535565,1.0001611387381695,0.0002724017828028054
1326.309477348206,1326.309477348206,1.0002154417412623,0.00027238254408593185
1326.3164219428727,1326.3164219428727,0.9999306239235987,0.0002723667395418576
1326.3233665375449,1326.3233665375449,0.9998946661090642,0.00027237892587904605
1326.3303111322298,1326.3303111322298,1.0002872726112773,0.00027243060707573684
1326.337255726925,1326.337255726925,1.0003430637125514,0.0002724585614785663
1326.3442003216296,1326.3442003216296,0.9997845013707432,0.00027238347063295493
1326.3539227542376,1326.3539227542376,0.9996968857229618,0.00027245183133622604
1326.360867348962,1326.360867348962,0.9999601343220489,0.0002725298587575066
1326.367811943702,1326.367811943702,1.0000570457854268,0.0002725162311323944
1326.3747565384497,1326.3747565384497,1.0003265164645376,0.0002725741333073846
1326.3817011332042,1326.3817011332042,0.9997570330540512,0.0002725649678378132
1326.3886457279696,1326.3886457279696,0.9999901043309878,0.0002725696823717063
1326.395590322747,1326.395590322747,0.9998880339655349,0.0002725944970467791
1326.4025349175242,1326.4025349175242,0.999865758839994,0.0002726027594262062
1326.409479512319,1326.409479512319,1.000025413426084,0.00027263810321463325
1326.416424107114,1326.416424107114,0.9993585070930026,0.0002726011463286786
1326.4233687019143,1326.4233687019143,1.0005035871862566,0.00027272740684688957
1326.4303132967266,1326.4303132967266,1.0005513791237903,0.00027276489104175014
1326.4372578915443,1326.4372578915443,1.000227236538866,0.00027273076031688226
1326.4442024863686,1326.4442024863686,1.0005702250687765,0.0002728023158829457
1326.4511470812013,1326.4511470812013,0.9999841223416418,0.000272763024591284
1326.4580916760365,1326.4580916760365,0.9999006370571036,0.00027277169066013075
1326.465036270881,1326.465036270881,0.9998306750634545,0.00027281530771657475
1326.471980865728,1326.471980865728,0.9997852301982256,0.0002728310277022581
1326.478925460584,1326.478925460584,1.00005249576226,0.0002728701800288349
1326.4858700554396,1326.4858700554396,0.9997202782243073,0.00027287209515448635
1326.4928146503073,1326.4928146503073,0.9999229179433586,0.00027289670202565377
1326.499759245175,1326.499759245175,1.000198264174728,0.0002729429094610169
1326.5067038400507,1326.5067038400507,0.9999137537619516,0.00027293380759460246
1326.5136484349273,1326.5136484349273,1.0000076767939856,0.00027297556293132065
1326.520593029812,1326.520593029812,1.0000773616126042,0.00027301775251237226
1326.5275376246973,1326.5275376246973,0.9997190064984739,0.00027302017538108597
1326.534482219591,1326.534482219591,1.000434686785139,0.0002731302329409399
1326.5414268144818,1326.5414268144818,0.9999550431678731,0.0002731186049679342
1326.5483714093812,1326.5483714093812,1.0001905730158107,0.0002731981207223997
1326.5553160042778,1326.5553160042778,0.9998562464634364,0.0002731930912254878
1326.5622605991834,1326.5622605991834,0.9999798334313088,0.00027321584474566035
1326.5692051940914,1326.5692051940914,0.9999788292176583,0.0002731931910189123
1326.576149789,1326.576149789,0.9998330453195046,0.0002731969199105977
1326.5830943839107,1326.5830943839107,1.000093275449822,0.00027322866073564115
1326.590038978825,1326.590038978825,0.9997988425401243,0.000273220871655203
1326.596983573742,1326.596983573742,1.0000842009710145,0.00027328982520290445
1326.6039281686592,1326.6039281686592,0.9998074253579583,0.00027326607638980354
1326.610872763582,1326.610872763582,1.000254853546714,0.0002733347811613838
1326.6178173585017,1326.6178173585017,1.0001812687693907,0.0002733405792948138
1326.6247619534247,1326.6247619534247,1.0003070626117432,0.0002733959251774938
1326.6317065483472,1326.6317065483472,0.9997298411909725,0.0002733129919406312
1326.6386511432731,1326.6386511432731,1.0003130316334112,0.00027335144919880816
1326.6455957381986,1326.6455957381986,0.9995165527896381,0.000273253660488427
1326.6525403331275,1326.6525403331275,0.9998780164555182,0.00027326675085306775
1326.6594849280564,1326.6594849280564,0.9999429918789289,0.00027323742338958366
1326.6664295229846,1326.6664295229846,0.9999133163921543,0.0002732349476805893
1326.6733741179107,1326.6733741179107,1.0000175354767271,0.0002731701691716194
1326.6803187128392,1326.6803187128392,1.0001521871121286,0.0002731474794783548
1326.6880966591605,1326.6880966591605,1.0002400476025743,0.0002731299850185921
1326.6955968216814,1326.6955968216814,1.0002643809657907,0.0002730857285052865
1326.7025414166128,1326.7025414166128,1.0001787464887406,0.0002730105939734083
1326.7097637953364,1326.7097637953364,0.9995035260376864,0.00027287307322787274
1326.7178195254523,1326.7178195254523,0.9993712314850199,0.00027284118977520847
1326.7247641203783,1326.7247641203783,1.0005101525230877,0.00027289200532056913
1326.7317087153042,1326.7317087153042,1.0001375560664048,0.0002728137214796409
1326.738653310227,1326.738653310227,0.9998683685210782,0.0002727770902119958
1326.7455979051497,1326.7455979051497,1.000087395752423,0.00027273758216901645
1326.752542500072,1326.752542500072,1.0001259102103564,0.0002727551206754128
1326.7594870949924,1326.7594870949924,1.0003849858907976,0.0002727542227085974
1326.766431689912,1326.766431689912,0.999398220900488,0.00027259894784062384
1326.7733762848263,1326.7733762848263,0.9998400455722332,0.0002726377232207076
1326.7803208797434,1326.7803208797434,0.9998416715594516,0.00027264054972544886
1326.7872654746575,1326.7872654746575,1.0004787538448803,0.00027269407808797806
1326.7942100695686,1326.7942100695686,0.9998979624359963,0.0002726505491713079
1326.801154664477,1326.801154664477,1.0002329762862139,0.000272704083153401
1326.808099259385,1326.808099259385,0.9997960056446328,0.0002726625754872262
1326.8150438542873,1326.8150438542873,0.9998802690651933,0.0002726587844793627
1326.82198844919,1326.82198844919,1.0000620192607559,0.00027266929820937057
1326.8289330440894,1326.8289330440894,1.0003195089262922,0.00027268939191723673
1326.8358776389832,1326.8358776389832,0.9997263859577007,0.00027259815496463887
1326.842822233877,1326.842822233877,0.9998865957665085,0.0002726486854958152
1326.8497668287678,1326.8497668287678,1.0001821658532344,0.0002726558263299706
1326.8567114236555,1326.8567114236555,1.0001691770287728,0.0002726380334135719
1326.863656018538,1326.863656018538,0.9998593308124761,0.0002725301285131623
1326.8706006134169,1326.8706006134169,0.9996462278123588,0.00027248593020829797
1326.877545208296,1326.877545208296,0.9998869497095086,0.00027246538684437907
1326.8844898031634,1326.8844898031634,1.0002830264813842,0.0002724417329301678
1326.8914343980427,1326.8914343980427,1.0000948234717186,0.00027233557823807533
1326.8983789928986,1326.8983789928986,1.0003270453334774,0.00027226336392386426
1326.9053235877661,1326.9053235877661,0.9997204875297939,0.00027211029413940835
1326.9122681826248,1326.9122681826248,1.0004583223361503,0.0002721044272022662
1326.9192127774782,1326.9192127774782,0.9998427746148799,0.0002719545063644685
1326.9261573723277,1326.9261573723277,0.9999077835950804,0.0002718605040761005
1326.9331019671724,1326.9331019671724,1.0000356912413861,0.0002718007566721751
1326.9400465620133,1326.9400465620133,1.0001309506849345,0.0002717312058370544
1326.9469911568517,1326.9469911568517,0.9997913086661656,0.0002716207258548629
1326.9539357516817,1326.9539357516817,1.0001342272557685,0.0002715604090683912
1326.9608803465114,1326.9608803465114,1.0000805795746488,0.0002714784870468662
1326.9678249413325,1326.9678249413325,0.999930913389322,0.0002714024068648582
1326.9747695361502,1326.9747695361502,1.0000047586434948,0.000271347024802833
1326.9817141309627,1326.9817141309627,1.0000956292418823,0.00027124914767530286
1326.988658725769,1326.988658725769,0.9996994002036823,0.0002711750528931851
1326.9956033205758,1326.9956033205758,1.0001503196554724,0.0002711810151994756
1327.002547915373,1327.002547915373,1.0001779466914793,0.000271184219557072
1327.009492510165,1327.009492510165,0.9999283379738951,0.0002711153598820602
1327.016437104948,1327.016437104948,1.0009761161411983,0.00027120940714520607
1327.023381699731,1327.023381699731,1.000056733847975,0.00027112372282815645
1327.0303262945029,1327.0303262945029,0.9996001035319123,0.00027109137410205944
1327.037270889274,1327.037270889274,1.0002134590969136,0.0002711131710648472
1327.044215484037,1327.044215484037,0.999552200363451,0.0002710200170782076
1327.051160078797,1327.051160078797,1.0004303550841596,0.0002711828978913285
1327.0586602411313,1327.0586602411313,0.9997817387955286,0.00027108999476928937
1327.0664381872464,1327.0664381872464,1.0001666011275074,0.0002711436704514967
