time,time,flux,flux_err
1325.298270631269,1325.298270631269,1.0002237068786644,0.0005390755482901188
1325.3066040363099,1325.3066040363099,1.000052406252063,0.0005398250673364543
1325.3149374416232,1325.3149374416232,0.9993585543487749,0.0005401974409532617
1325.3232708472558,1325.3232708472558,1.000347352603042,0.0005409779619351469
1325.330909802654,1325.330909802654,1.0002891060752648,0.0004942176429125762
1325.3378543077595,1325.3378543077595,0.9995764163736863,0.000494663284619983
1325.3447988130515,1325.3447988130515,1.0011321461444473,0.000495285672653963
1325.3517433185527,1325.3517433185527,0.9994335234530851,0.0004953931467348271
1325.3586878242402,1325.3586878242402,0.999833654903186,0.0004959646047618762
1325.365632330091,1325.365632330091,0.9990139642147285,0.0004963402911901599
1325.3725768361505,1325.3725768361505,0.9994004224858448,0.0004967890870656799
1325.3795213423857,1325.3795213423857,1.0007285570259825,0.0004972580420834174
1325.386465848795,1325.386465848795,1.0002620994901543,0.0004976711461563644
1325.3934103553788,1325.3934103553788,1.0001107526636759,0.0004979794462441612
1325.4003548621374,1325.4003548621374,0.999768810091906,0.0004980672919261583
1325.407299369082,1325.407299369082,1.000001622605671,0.0004984042486709941
1325.4142438761785,1325.4142438761785,0.9994870716480694,0.0004985963848350913
1325.4211883834607,1325.4211883834607,1.0003416598545667,0.0004989563267133945
1325.4281328909062,1325.4281328909062,0.9997435843429558,0.0004990677555632434
1325.435077398503,1325.435077398503,1.0001646663620245,0.0004995164641638688
1325.442021906286,1325.442021906286,1.0005679315337204,0.0004997505826039734
1325.448966414197,1325.448966414197,1.0006705826710358,0.0005001166612497861
1325.4559109222944,1325.4559109222944,0.9998474493659314,0.0005002326703244122
1325.462855430543,1325.462855430543,1.0002253407785808,0.0005006410142523037
1325.4697999389432,1325.4697999389432,1.0000995332239382,0.0005009626206502332
1325.476744447506,1325.476744447506,0.9990775221746574,0.0005011918937013658
1325.4836889562089,1325.4836889562089,0.9997918050894581,0.0005017408228975322
1325.490633465063,1325.490633465063,1.000656078474324,0.0005022813760066937
1325.4975779740566,1325.4975779740566,1.000302277203537,0.000502521603225831
1325.5045224832133,1325.5045224832133,0.9991497889234854,0.0005028247429231221
1325.5114669924983,1325.5114669924983,0.9996831330468808,0.0005033469921979291
1325.5184115019342,1325.5184115019342,1.0000261095129623,0.0005039457305521266
1325.52535601151,1325.52535601151,1.0001658714214483,0.0005042846514141353
1325.5323005212254,1325.5323005212254,0.9997265337026594,0.0005046150135703116
1325.539245031069,1325.539245031069,1.0003413833789991,0.0005051632136641028
1325.5461895410526,1325.5461895410526,1.0001940110926701,0.0005054881372698941
1325.5531340511752,1325.5531340511752,1.0007205843139635,0.0005059858082640997
1325.5600785614497,1325.5600785614497,0.9998604250135863,0.0005062729966315196
1325.5670230718174,1325.5670230718174,0.999301687709077,0.0005065265912486524
1325.5739675823243,1325.5739675823243,1.0004018794077318,0.0005070801026940224
1325.5809120929596,1325.5809120929596,0.9997182846621481,0.0005073505915101721
1325.587856603734,1325.587856603734,0.9997274246186183,0.000507682054679179
1325.5948011146259,1325.5948011146259,1.000316847185022,0.0005081542079117976
1325.6017456256334,1325.6017456256334,0.9997896261404563,0.0005083061208028857
1325.6086901367692,1325.6086901367692,1.0004727064481347,0.0005086530411002276
1325.615634647998,1325.615634647998,0.9999328252420826,0.0005088339026296756
1325.6225791593668,1325.6225791593668,1.00015298144712,0.0005090590615927473
1325.6295236708518,1325.6295236708518,1.0004818280818268,0.0005091521584293902
1325.6364681824532,1325.6364681824532,0.9993966222891485,0.000509137081382261
1325.6434126941476,1325.6434126941476,0.9993974414657234,0.0005092681011830514
1325.6503572059937,1325.6503572059937,1.0002459652147357,0.0005095095798767234
1325.657301717921,1325.657301717921,0.9996044944683273,0.0005095423441267894
1325.6642462299649,1325.6642462299649,1.0001474248218223,0.0005097553806260155
1325.6711907421134,1325.6711907421134,1.000140362616857,0.0005097107687622837
1325.6781352543785,1325.6781352543785,0.9996661652483588,0.0005098334088367085
1325.6850797667485,1325.6850797667485,1.0004597051529298,0.0005100550908132609
1325.6920242792112,1325.6920242792112,0.9996985248444066,0.0005101606629176798
1325.698968791791,1325.698968791791,0.9992822711680145,0.0005101220918990183
1325.7059133044515,1325.7059133044515,0.9996802294508192,0.0005105518553983996
1325.7128578172287,1325.7128578172287,0.9999688168450312,0.0005107295870901994
1325.7198023300873,1325.7198023300873,1.000335151001447,0.0005111352782026983
1325.726746843051,1325.726746843051,1.0008813580820215,0.0005114824372431906
1325.733691356119,1325.733691356119,0.9999541965757549,0.00051151644213802
1325.7406358692688,1325.7406358692688,1.000045029295278,0.0005119408433884689
1325.7475803825232,1325.7475803825232,1.0004086261221343,0.0005123616289644812
1325.754524895871,1325.754524895871,0.999824633664218,0.0005126209636446005
1325.7614694093004,1325.7614694093004,0.9992476193832873,0.0005128020850729781
1325.7684139228227,1325.7684139228227,0.999895111619705,0.0005132490858833043
1325.7753584364496,1325.7753584364496,0.9991190796967626,0.000513434182269748
1325.7823029501349,1325.7823029501349,0.999521164479917,0.0005137784518989888
1325.7892474639134,1325.7892474639134,1.001220744020426,0.0005144018927492522
1325.7961919778081,1325.7961919778081,1.0005650892987468,0.0005146037834790189
1325.8031364917615,1325.8031364917615,1.000038653944604,0.0005148028300029564
1325.810081005819,1325.810081005819,1.0000371420760477,0.0005150595238592749
1325.8170255199352,1325.8170255199352,0.9998089515566078,0.0005151338831830752
1325.8239700341326,1325.8239700341326,1.000391015614956,0.0005152854227955008
1325.8309145484116,1325.8309145484116,0.9996975851584763,0.0005155352540443844
1325.8378590627606,1325.8378590627606,0.999651016502284,0.0005156948309406953
1325.8448035772258,1325.8448035772258,0.9996223176628452,0.0005156838615620118
1325.851748091749,1325.851748091749,1.0000633803354353,0.000515772247589423
1325.8586926063424,1325.8586926063424,1.000644281171145,0.0005157186607000268
1325.8656371210059,1325.8656371210059,1.0001107483309883,0.0005155670944398695
1325.872581635762,1325.872581635762,1.0005166385638613,0.0005154669678472947
1325.8795261505766,1325.8795261505766,0.9992848928252729,0.0005150231819079354
1325.8864706654726,1325.8864706654726,0.999458384016539,0.000514841990843623
1325.8934151804267,1325.8934151804267,1.0000246690115118,0.000514791844874712
1325.900359695474,1325.900359695474,0.9997344117896796,0.0005145055522479919
1325.9073042105797,1325.9073042105797,1.0002613844699362,0.000514364115800312
1325.9142487257432,1325.9142487257432,0.9998302208736118,0.0005141834930338076
1325.921193240977,1325.921193240977,1.0008049122539369,0.0005142544692161723
1325.9281377563038,1325.9281377563038,0.9995708750732402,0.000514016695566673
1325.935082271677,1325.935082271677,1.0003376638770642,0.0005139955858633632
1325.9420267871083,1325.9420267871083,0.9996801515521876,0.0005139267979428363
1325.9489713026335,1325.9489713026335,1.0005193116046258,0.0005138455251214851
1325.9559158181928,1325.9559158181928,0.9993565401676824,0.0005137942885661656
1325.963971456335,1325.963971456335,1.0000397550232196,0.0005139731828187147
1325.9711937526686,1325.9711937526686,1.0007752683718814,0.0005140272929322023
1325.9781382684373,1325.9781382684373,0.9998031885052869,0.0005139473640131
1325.9850827842415,1325.9850827842415,0.9997130201538283,0.0005140779112805121
1325.9920273001617,1325.9920273001617,1.0001222814560706,0.0005143407472510638
1325.9989718161057,1325.9989718161057,1.000153354400386,0.0005144563134502839
1326.0059163321075,1326.0059163321075,0.9996030419588321,0.0005147467499968398
1326.0128608481677,1326.0128608481677,0.9992891639769944,0.0005150124731464661
1326.0198053643096,1326.0198053643096,1.0008368810955905,0.0005156068584001102
1326.0267498804628,1326.0267498804628,1.0004690808369225,0.0005159596583684808
1326.0336943966975,1326.0336943966975,1.0000192278268276,0.0005159770084296256
1326.0406389129785,1326.0406389129785,0.9995736050648911,0.000515942762626491
1326.0475834293186,1326.0475834293186,0.9997270475144425,0.0005160068383073566
1326.0545279457158,1326.0545279457158,1.0002521037883338,0.0005163018293135741
1326.0614724621605,1326.0614724621605,0.9997353368451382,0.0005164906296857216
1326.068416978663,1326.068416978663,0.9996449175994307,0.0005165379512314088
1326.0753614952002,1326.0753614952002,1.0007402602783517,0.0005168530177185227
1326.0823060118196,1326.0823060118196,1.0001801888210902,0.0005168861453829641
1326.0892505284617,1326.0892505284617,0.9996810537639501,0.0005170259247185411
1326.0961950451856,1326.0961950451856,0.9999286122121893,0.0005171765403442572
1326.1031395619211,1326.1031395619211,0.9996318538233074,0.0005172293209280156
1326.1100840787142,1326.1100840787142,1.0002192625823694,0.0005174508325344466
1326.1170285955661,1326.1170285955661,1.0006067160226115,0.0005177162752247211
1326.1239731124526,1326.1239731124526,0.9999637530378347,0.0005175563852625737
1326.1309176293864,1326.1309176293864,0.9997447315728122,0.0005175558393627057
1326.1378621464005,1326.1378621464005,0.999623887115132,0.0005177252399508607
1326.144806663416,1326.144806663416,1.0006149808085314,0.0005180601911125251
1326.151751180477,1326.151751180477,0.9995011392757668,0.0005179038724646792
1326.158695697608,1326.158695697608,1.0001281548862486,0.000518003598722074
1326.1656402147628,1326.1656402147628,1.000049616563463,0.0005181449798181734
1326.1725847319635,1326.1725847319635,0.9999332828871508,0.0005181394088889302
1326.1795292492113,1326.1795292492113,1.0002316220413694,0.0005182530358309298
1326.1864737664937,1326.1864737664937,0.9997109382623615,0.0005182692097393754
1326.193418283846,1326.193418283846,1.0009954524383757,0.0005185291233375681
1326.2003628012103,1326.2003628012103,0.9991736268475503,0.0005183219811306535
1326.2073073186325,1326.2073073186325,1.000555921421159,0.0005186513510915976
1326.214251836078,1326.214251836078,1.0006248419159918,0.0005186892065041945
1326.22119635357,1326.22119635357,0.9997038005124275,0.0005186595641630639
1326.228140871097,1326.228140871097,0.9998886366457478,0.0005186730440219225
1326.235085388682,1326.235085388682,1.000134281148747,0.0005187595943623792
1326.2420299062785,1326.2420299062785,0.9992407353193329,0.0005187094834572752
1326.2489744239342,1326.2489744239342,0.9999192116243973,0.0005189249534037698
1326.2559189416122,1326.2559189416122,1.0004867229029681,0.0005192036975730462
1326.2628634593489,1326.2628634593489,1.000431102796325,0.0005192056472664929
1326.2698079770973,1326.2698079770973,1.0000445791773838,0.0005192284809809603
1326.2767524948802,1326.2767524948802,0.9999250686876471,0.0005192948141020889
1326.28369701271,1326.28369701271,0.9996153117643425,0.0005192014806124207
1326.2906415305629,1326.2906415305629,0.9998111383220758,0.0005194356826484527
1326.2975860484626,1326.2975860484626,1.000176934523674,0.0005195993876091142
1326.3045305663966,1326.3045305663966,0.9997040156983992,0.0005196641031266835
1326.3114750843663,1326.3114750843663,0.9999292883127129,0.0005198687697846548
1326.318419602359,1326.318419602359,1.0006339607052948,0.0005202782121966426
1326.3253641203978,1326.3253641203978,1.0003045449284336,0.0005203407138325455
1326.332308638449,1326.332308638449,1.0002811705994445,0.0005206391933404745
1326.3392531565464,1326.3392531565464,0.9997261930032006,0.0005206991205852996
1326.3473087975758,1326.3473087975758,0.9998329349270458,0.0005210872549673024
1326.3559200001057,1326.3559200001057,0.9992053473408531,0.0005213825804063181
1326.3628645182966,1326.3628645182966,0.999915076726832,0.0005217738403461971
1326.3698090365335,1326.3698090365335,0.9999832682634178,0.0005220371422877668
1326.376753554794,1326.376753554794,1.0000591249282198,0.0005224919485631463
1326.3836980730891,1326.3836980730891,1.001293772988078,0.0005227920288061841
1326.390642591396,1326.390642591396,1.0001462713582605,0.0005229564786663849
1326.39758710975,1326.39758710975,0.9993189239937947,0.0005230256134824918
1326.4045316281265,1326.4045316281265,0.9990294938144249,0.000523376527713289
1326.4114761465273,1326.4114761465273,1.000152975279408,0.0005238064680291473
1326.4184206649618,1326.4184206649618,1.000185095129956,0.0005241087117720804
1326.4253651834085,1326.4253651834085,1.0003464639072517,0.0005244414978852418
1326.4323097019133,1326.4323097019133,1.0001232211305642,0.0005247705700022252
1326.43925422043,1326.43925422043,1.0000605458950909,0.0005251233208097499
1326.4461987389582,1326.4461987389582,1.000281284954864,0.0005254548809274977
1326.4531432575327,1326.4531432575327,1.0000907555550893,0.0005257573238963413
1326.4600877761193,1326.4600877761193,0.9994375455723015,0.0005260225957663669
1326.4670322947404,1326.4670322947404,1.0001853713503817,0.0005263610294733949
1326.4739768133732,1326.4739768133732,1.00005305363992,0.0005267921378536609
1326.4809213320532,1326.4809213320532,1.000170456832286,0.0005271502664881521
1326.487865850744,1326.487865850744,0.9995685696952386,0.000527471475261125
1326.4948103694471,1326.4948103694471,1.000281765557666,0.000527921552769536
1326.5017548882074,1326.5017548882074,1.0000740160014225,0.0005282393693543433
1326.508699406969,1326.508699406969,0.9998728572552109,0.0005286806617143463
1326.5156439257414,1326.5156439257414,1.0002522904691928,0.0005290005193165328
1326.5225884445608,1326.5225884445608,0.9995687476549995,0.0005292785333153199
1326.5295329633916,1326.5295329633916,1.0000060928030896,0.000529827760954501
1326.5364774822453,1326.5364774822453,0.9996815882276255,0.000530172525000857
1326.5434220011234,1326.5434220011234,0.9998046906417697,0.0005306479398412775
1326.5503665200122,1326.5503665200122,1.0001061061807976,0.0005311756929191953
1326.5573110389364,1326.5573110389364,0.9998791690136913,0.0005314437198345066
1326.5642555578718,1326.5642555578718,0.9997048417399107,0.000531647119532101
1326.5712000768422,1326.5712000768422,1.0013671656326797,0.000532140577901723
1326.5781445958248,1326.5781445958248,1.0002467770283587,0.0005322791864131319
1326.5850891148416,1326.5850891148416,1.0014289608360307,0.0005328797875458831
1326.5920336338472,1326.5920336338472,0.9993830871509942,0.0005327220722732735
1326.5989781528992,1326.5989781528992,0.9999498189206566,0.0005332549516931026
1326.6059226719512,1326.6059226719512,1.0006841737960692,0.0005336624955967229
1326.6128671910617,1326.6128671910617,0.9995317871195908,0.0005338379435888432
1326.619811710148,1326.619811710148,0.9998290573590232,0.0005340624632138889
1326.6267562292703,1326.6267562292703,0.9996108700531956,0.000534354447516292
1326.633700748415,1326.633700748415,0.9995961934020594,0.0005344188164077291
1326.6406452675724,1326.6406452675724,1.0001057667004356,0.0005346610144538402
1326.6475897867526,1326.6475897867526,1.0004756890726256,0.0005347789048128144
1326.6545343059443,1326.6545343059443,1.000595199545633,0.0005348014127393625
1326.661478825171,1326.661478825171,0.9991033806232041,0.0005347437961332272
1326.668423344397,1326.668423344397,1.0001005266989922,0.0005345590697852184
1326.6753678636476,1326.6753678636476,0.9993576352001087,0.0005343666484275875
1326.6823123829088,1326.6823123829088,1.0013761590419659,0.0005345264425724499
1326.6906458060625,1326.6906458060625,1.0006216904168208,0.0005344380248133341
1326.697590325359,1326.697590325359,0.9999757073275688,0.0005342942865657499
1326.704534844702,1326.704534844702,0.9992836664695803,0.0005339887637762957
1326.7123127063664,1326.7123127063664,0.999803985233761,0.0005339807386940344
1326.7198127872573,1326.7198127872573,0.9998656287837356,0.0005339059038725498
1326.7267573066115,1326.7267573066115,0.9995660247106029,0.0005337811934319275
1326.7337018260012,1326.7337018260012,1.00033897505406,0.0005338998859020764
1326.7406463454145,1326.7406463454145,0.9999916912357067,0.0005337320656271535
1326.747590864827,1326.747590864827,0.9997937323689443,0.000533787358159761
1326.7545353842631,1326.7545353842631,1.0006633569041667,0.0005337865300473029
1326.761479903711,1326.761479903711,1.000960336250904,0.0005338697105625948
1326.7684244231707,1326.7684244231707,0.9999445686570786,0.0005337215577870469
1326.7753689426531,1326.7753689426531,0.9996603190016579,0.0005336882025750794
1326.7823134621478,1326.7823134621478,0.9998104343390013,0.0005337281410652007
1326.7892579816423,1326.7892579816423,1.0004179985364785,0.0005340178458585894
1326.7962025011716,1326.7962025011716,0.9990033820186011,0.0005338873014184396
1326.8031470206897,1326.8031470206897,1.0004169325016898,0.0005342250356970348
1326.8100915402533,1326.8100915402533,0.9998916760785136,0.0005343090617077063
1326.8170360598178,1326.8170360598178,0.9999365956015819,0.0005345868561254937
1326.823980579382,1326.823980579382,1.0005781716937812,0.0005347092954869932
1326.8309250989696,1326.8309250989696,1.0001984666932398,0.0005345823778096612
1326.8378696185805,1326.8378696185805,0.9997441205653883,0.0005347041036661217
1326.844814138168,1326.844814138168,1.0000378399142036,0.0005348195132610069
1326.851758657802,1326.851758657802,0.999919295517904,0.0005347322432303922
1326.8587031774362,1326.8587031774362,1.0006534908470348,0.0005346553028671684
1326.8656476971055,1326.8656476971055,0.9988516117240703,0.0005342420792695682
1326.8725922167628,1326.8725922167628,1.0008734270075486,0.000534338199441942
1326.8795367364432,1326.8795367364432,0.9987321451082222,0.0005337307174157709
1326.8864812561242,1326.8864812561242,0.9996337107280183,0.00053348275677416
1326.893425775816,1326.893425775816,0.9997225564602245,0.0005332246598034273
1326.9003702955324,1326.9003702955324,1.0000175483046336,0.0005327768157940704
1326.9073148152477,1326.9073148152477,1.000877095474508,0.0005324052711096328
1326.9142593349748,1326.9142593349748,0.9996554276224454,0.0005316496875425946
1326.9212038547255,1326.9212038547255,1.000416267323276,0.000531369781580418
1326.928148374476,1326.928148374476,1.0004422350753197,0.0005309423936246894
1326.935092894238,1326.935092894238,0.9996163933389562,0.0005303179180342689
1326.9420374140232,1326.9420374140232,1.000126720714976,0.0005298943998087754
1326.9489819337975,1326.9489819337975,0.999667266962404,0.0005293976398335115
1326.955926453606,1326.955926453606,0.9995502000967965,0.0005290568537457475
1326.9628709734036,1326.9628709734036,1.0005864584544555,0.0005288792629892929
1326.9698154932237,1326.9698154932237,1.000177957713209,0.0005285006967089055
1326.976760013044,1326.976760013044,0.9992842411714513,0.0005281481467675069
1326.9837045328763,1326.9837045328763,1.0000052069395273,0.0005280464107147219
1326.9906490527314,1326.9906490527314,1.0007734558640982,0.0005280296594344822
1326.9975935725865,1326.9975935725865,0.9995849061715649,0.000527637411229588
1327.004538092442,1327.004538092442,1.0006621852212638,0.0005277373338937145
1327.0114826123204,1327.0114826123204,0.9994900384770264,0.0005276561970276295
1327.0184271321991,1327.0184271321991,0.9995117314419873,0.0005277019281561564
1327.0253716520895,1327.0253716520895,1.0012810653746156,0.0005279957508958874
1327.032316172003,1327.032316172003,0.9997052270274406,0.0005277866109326885
1327.0392606918813,1327.0392606918813,0.9993252115383321,0.0005276993095381071
1327.0462052118069,1327.0462052118069,1.0009694103844888,0.0005279945797104228
1327.0531497317318,1327.0531497317318,0.9995681095085885,0.0005280469691893822
1327.0612053748569,1327.0612053748569,1.0003023441182557,0.0005282777972142756
1327.0684276756253,1327.0684276756253,0.999862540763249,0.0005284604409439273
1327.0753721955505,1327.0753721955505,1.0001581275398759,0.0005286854033964647
