time,time,flux,flux_err
1354.111369687337,1354.111369687337,1.0031921,0.00036539495
1354.1127585980046,1354.1127585980046,1.0027515,0.00036539612
1354.1155364191052,1354.1155364191052,1.0019218,0.00036517266
1354.1169253297728,1354.1169253297728,1.003368,0.00036544373
1354.1183142403236,1354.1183142403236,1.0027436,0.00036540808
1354.1197031509905,1354.1197031509905,1.0028807,0.00036542598
1354.1210920616575,1354.1210920616575,1.0020695,0.0003653449
1354.1224809722087,1354.1224809722087,1.0032102,0.0003655008
1354.1238698828765,1354.1238698828765,1.002794,0.0003654573
1354.125258793427,1354.125258793427,1.0025563,0.0003653773
1354.1266477040942,1354.1266477040942,1.0028725,0.0003654601
1354.1280366146445,1354.1280366146445,1.0022773,0.0003654023
1354.1294255253117,1354.1294255253117,1.002404,0.00036542214
1354.1308144359793,1354.1308144359793,1.0016706,0.0003653027
1354.13220334653,1354.13220334653,1.002621,0.0003654509
1354.1335922571968,1354.1335922571968,1.0026846,0.00036541247
1354.1349811678647,1354.1349811678647,1.0024341,0.0003653718
1354.1363700784152,1354.1363700784152,1.0032971,0.00036551885
1354.1377589890828,1354.1377589890828,1.0024557,0.00036544199
1354.13914789975,1354.13914789975,1.003497,0.00036554394
1354.1405368102999,1354.1405368102999,1.0020635,0.00036538736
1354.1419257209675,1354.1419257209675,1.0028013,0.00036538736
1354.1433146316351,1354.1433146316351,1.0021635,0.00036538407
1354.1447035423023,1354.1447035423023,1.0027522,0.0003654446
1354.1460924528528,1354.1460924528528,1.0027523,0.00036540447
1354.1474813635198,1354.1474813635198,1.0026851,0.00036540168
1354.1488702741874,1354.1488702741874,1.0029259,0.00036544492
1354.1502591848553,1354.1502591848553,1.0026869,0.0003654321
1354.1516480955218,1354.1516480955218,1.0031246,0.0003654975
1354.153037006072,1354.153037006072,1.0029542,0.00036544236
1354.1544259167397,1354.1544259167397,1.0028058,0.000365458
1354.1558148274075,1354.1558148274075,1.0027254,0.00036543378
1354.1572037380745,1354.1572037380745,1.0025668,0.00036541867
1354.1585926487408,1354.1585926487408,1.0028288,0.00036544728
1354.1599815594084,1354.1599815594084,1.0020877,0.0003653256
1354.1613704700762,1354.1613704700762,1.0025005,0.00036540595
1354.1627593807432,1354.1627593807432,1.0019553,0.0003653146
1354.1641482914104,1354.1641482914104,1.0028148,0.00036543552
1354.1655372019607,1354.1655372019607,1.0023576,0.00036541536
1354.1669261126285,1354.1669261126285,1.0025908,0.00036545462
1354.1683150232964,1354.1683150232964,1.0022671,0.00036538235
1354.1697039339626,1354.1697039339626,1.0027567,0.00036544073
1354.1710928446296,1354.1710928446296,1.0030618,0.0003654788
1354.1724817552974,1354.1724817552974,1.0025549,0.00036542548
1354.1738706659642,1354.1738706659642,1.0028121,0.0003654332
1354.1752595766318,1354.1752595766318,1.0028301,0.0003654866
1354.176648487299,1354.176648487299,1.0024145,0.00036532604
1354.1780373980826,1354.1780373980826,1.0027809,0.00036546262
1354.1794263087502,1354.1794263087502,1.0028864,0.00036547382
1354.180815219417,1354.180815219417,1.002534,0.00036545223
1354.1822041300848,1354.1822041300848,1.0027237,0.0003654209
1354.1835930407517,1354.1835930407517,1.0021527,0.00036538194
1354.184981951418,1354.184981951418,1.0016961,0.00036528156
1354.1863708620858,1354.1863708620858,1.0029588,0.00036548628
1354.1877597727537,1354.1877597727537,1.0025134,0.00036536637
1354.1891486834204,1354.1891486834204,1.0023237,0.0003654124
1354.190537594204,1354.190537594204,1.0026788,0.00036542912
1354.191926504871,1354.191926504871,1.0024337,0.00036539935
1354.1933154155388,1354.1933154155388,1.0028757,0.0003654463
1354.1947043262064,1354.1947043262064,1.002982,0.0003655054
1354.1960932368727,1354.1960932368727,1.0026671,0.00036540267
1354.1974821475396,1354.1974821475396,1.0025704,0.00036542598
1354.198871058324,1354.198871058324,1.0022677,0.00036542196
1354.2002599689915,1354.2002599689915,1.001789,0.0003653132
1354.2016488796583,1354.2016488796583,1.0025688,0.00036547257
1354.2030377903247,1354.2030377903247,1.0027078,0.00036548203
1354.204426701109,1354.204426701109,1.0024793,0.00036535226
1354.2058156117766,1354.2058156117766,1.0025659,0.00036542185
1354.2072045224434,1354.2072045224434,1.0022886,0.00036536594
1354.208593433227,1354.208593433227,1.0028715,0.00036549216
1354.2099823438941,1354.2099823438941,1.0028931,0.00036547374
1354.2113712545618,1354.2113712545618,1.0021971,0.00036529347
1354.2127601652294,1354.2127601652294,1.0027139,0.00036540854
1354.214149076012,1354.214149076012,1.0025561,0.0003654338
1354.2155379866792,1354.2155379866792,1.0019481,0.00036532176
1354.2169268974633,1354.2169268974633,1.0023996,0.0003654021
1354.2183158081302,1354.2183158081302,1.0018244,0.00036527932
1354.219704718798,1354.219704718798,1.0029985,0.0003655039
1354.2210936295812,1354.2210936295812,1.0032899,0.00036549038
1354.2224825402484,1354.2224825402484,1.0027891,0.0003654407
1354.223871450916,1354.223871450916,1.0027167,0.00036536736
1354.2252603616996,1354.2252603616996,1.0025469,0.00036543474
1354.2266492723663,1354.2266492723663,1.0028614,0.00036542944
1354.22803818315,1354.22803818315,1.003017,0.00036551149
1354.2294270938169,1354.2294270938169,1.0023413,0.00036544353
1354.2308160046011,1354.2308160046011,1.0025653,0.00036536722
1354.2322049152688,1354.2322049152688,1.0028912,0.00036543628
1354.2335938260521,1354.2335938260521,1.0027522,0.00036538186
1354.234982736719,1354.234982736719,1.0026815,0.00036541792
1354.2363716475027,1354.2363716475027,1.0024861,0.00036537365
1354.2377605581703,1354.2377605581703,1.0028758,0.000365446
1354.2391494689543,1354.2391494689543,1.0023117,0.00036536006
1354.2405383796206,1354.2405383796206,1.0026608,0.00036542251
1354.2419272904042,1354.2419272904042,1.002518,0.0003653718
1354.2433162010718,1354.2433162010718,1.0029517,0.00036547298
1354.2447051118559,1354.2447051118559,1.0025475,0.0003654414
1354.246094022523,1354.246094022523,1.0018976,0.00036535613
1354.2474829333057,1354.2474829333057,1.0019029,0.00036531847
1354.2488718439733,1354.2488718439733,1.0025395,0.0003653956
1354.2502607547574,1354.2502607547574,1.0021559,0.0003653428
1354.251649665541,1354.251649665541,1.002776,0.00036547592
1354.2530385762077,1354.2530385762077,1.002807,0.00036541707
1354.2544274869913,1354.2544274869913,1.0018141,0.0003652494
1354.255816397659,1354.255816397659,1.0019058,0.00036538354
1354.257205308443,1354.257205308443,1.0025953,0.0003653686
1354.2585942192256,1354.2585942192256,1.0021465,0.00036534396
1354.2599831298928,1354.2599831298928,1.0027429,0.0003654306
1354.2613720406769,1354.2613720406769,1.0029378,0.00036547944
1354.2627609514605,1354.2627609514605,1.0022038,0.00036534033
1354.264149862128,1354.264149862128,1.002152,0.0003653159
1354.2655387729114,1354.2655387729114,1.0033655,0.00036554865
1354.2669276836948,1354.2669276836948,1.0026096,0.00036540374
1354.2683165943624,1354.2683165943624,1.0031437,0.00036543273
1354.269705505146,1354.269705505146,1.0034175,0.00036551754
1354.2710944159296,1354.2710944159296,1.0022597,0.00036536795
1354.2724833265963,1354.2724833265963,1.0022385,0.00036537455
1354.27387223738,1354.27387223738,1.002469,0.00036539862
1354.275261148164,1354.275261148164,1.0031297,0.00036549248
1354.276650058948,1354.276650058948,1.0028714,0.00036539647
1354.2780389696152,1354.2780389696152,1.0026889,0.000365407
1354.2794278803983,1354.2794278803983,1.0029371,0.00036550185
1354.280816791182,1354.280816791182,1.0023072,0.00036535316
1354.282205701966,1354.282205701966,1.0027783,0.00036545977
1354.2835946126331,1354.2835946126331,1.0018948,0.00036531934
1354.2849835234158,1354.2849835234158,1.0020975,0.00036534172
1354.2863724341998,1354.2863724341998,1.0026029,0.00036541617
1354.287761344984,1354.287761344984,1.002069,0.00036534286
1354.289150255768,1354.289150255768,1.0023702,0.00036540956
1354.290539166435,1354.290539166435,1.0030314,0.00036544394
1354.2919280772178,1354.2919280772178,1.0031813,0.000365508
1354.2933169880018,1354.2933169880018,1.0019982,0.00036532796
1354.2947058987859,1354.2947058987859,1.0031352,0.0003654734
1354.2960948095688,1354.2960948095688,1.0023197,0.0003653494
1354.2974837203521,1354.2974837203521,1.0025464,0.00036544184
1354.2988726310198,1354.2988726310198,1.002591,0.00036540552
1354.3002615418038,1354.3002615418038,1.0025469,0.00036545645
1354.301650452588,1354.301650452588,1.0031415,0.0003654889
1354.303039363371,1354.303039363371,1.0028932,0.00036546023
1354.3044282741541,1354.3044282741541,1.0029835,0.0003655259
1354.3058171849382,1354.3058171849382,1.0024313,0.00036541588
1354.3072060957218,1354.3072060957218,1.0030369,0.00036542924
1354.3085950065058,1354.3085950065058,1.001952,0.00036535793
1354.3099839172894,1354.3099839172894,1.0021962,0.0003653413
1354.3113728279563,1354.3113728279563,1.002436,0.00036540275
1354.3127617387406,1354.3127617387406,1.0025513,0.00036536698
1354.3141506495238,1354.3141506495238,1.0026587,0.00036545366
1354.3155395603073,1354.3155395603073,1.0022155,0.00036536477
1354.3169284710907,1354.3169284710907,1.0034275,0.0003655696
1354.318317381874,1354.318317381874,1.0021389,0.00036537854
1354.319706292658,1354.319706292658,1.0025386,0.00036536422
1354.3210952034422,1354.3210952034422,1.002549,0.00036541247
1354.3224841142257,1354.3224841142257,1.0023217,0.000365422
1354.3238730250093,1354.3238730250093,1.0028139,0.00036542743
1354.3252619357925,1354.3252619357925,1.0029995,0.00036548136
1354.3266508465765,1354.3266508465765,1.0027268,0.00036546102
1354.32803975736,1354.32803975736,1.00224,0.00036535284
1354.3294286681428,1354.3294286681428,1.0025328,0.00036544818
1354.3308175789268,1354.3308175789268,1.0024077,0.0003653568
1354.332206489711,1354.332206489711,1.0022854,0.00036534888
1354.3335954004954,1354.3335954004954,1.0030963,0.0003655121
1354.3349843112785,1354.3349843112785,1.0024165,0.0003653869
1354.3363732220612,1354.3363732220612,1.0026066,0.0003654335
1354.3377621328455,1354.3377621328455,1.0027987,0.00036544725
1354.3391510436297,1354.3391510436297,1.0022515,0.00036536218
1354.3405399544124,1354.3405399544124,1.0020782,0.0003653697
1354.3419288651955,1354.3419288651955,1.0025223,0.00036537618
1354.3433177759798,1354.3433177759798,1.0029086,0.00036547508
1354.344706686764,1354.344706686764,1.0026557,0.00036541276
1354.3460955975481,1354.3460955975481,1.0027725,0.00036540758
1354.3474845083308,1354.3474845083308,1.0025963,0.00036543922
1354.3488734191142,1354.3488734191142,1.0029922,0.00036547106
1354.3502623300149,1354.3502623300149,1.0029893,0.00036547374
1354.351651240798,1354.351651240798,1.0026908,0.0003654665
1354.3530401515816,1354.3530401515816,1.0023113,0.00036540776
1354.354429062365,1354.354429062365,1.0032622,0.00036555377
1354.3558179731492,1354.3558179731492,1.0024059,0.0003654023
1354.3572068839333,1354.3572068839333,1.0027283,0.00036542668
1354.3585957947166,1354.3585957947166,1.0021434,0.0003652874
1354.3599847055,1354.3599847055,1.0024289,0.00036542423
1354.3613736162836,1354.3613736162836,1.0018698,0.00036528328
1354.3627625270667,1354.3627625270667,1.002225,0.00036536233
1354.3641514379674,1354.3641514379674,1.0030463,0.00036548547
1354.3655403487517,1354.3655403487517,1.0023495,0.0003654162
1354.3669292595348,1354.3669292595348,1.0030017,0.00036549504
1354.3683181703184,1354.3683181703184,1.0028018,0.00036544743
1354.3697070811018,1354.3697070811018,1.0025829,0.0003654321
1354.371095991886,1354.371095991886,1.0017551,0.00036527574
1354.3724849026692,1354.3724849026692,1.0025116,0.00036541096
1354.3738738135683,1354.3738738135683,1.002466,0.00036538954
1354.3752627243525,1354.3752627243525,1.0022733,0.00036539472
1354.3766516351368,1354.3766516351368,1.0017501,0.00036527653
1354.3780405459208,1354.3780405459208,1.0018122,0.00036532307
1354.3794294567042,1354.3794294567042,1.002874,0.00036543692
1354.380818367487,1354.380818367487,1.0020908,0.0003653792
1354.3822072783876,1354.3822072783876,1.0027802,0.00036547318
1354.3835961891716,1354.3835961891716,1.0027102,0.00036543712
1354.3849850999543,1354.3849850999543,1.0022932,0.0003653782
1354.3863740107379,1354.3863740107379,1.0031161,0.00036546375
1354.387762921522,1354.387762921522,1.0021417,0.00036535354
1354.3891518324224,1354.3891518324224,1.0031791,0.00036550747
1354.3905407432064,1354.3905407432064,1.0021867,0.0003653719
1354.391929653989,1354.391929653989,1.00294,0.0003654197
1354.3933185647727,1354.3933185647727,1.0022376,0.00036539434
1354.3947074755567,1354.3947074755567,1.0021118,0.00036535668
1354.3960963864567,1354.3960963864567,1.0023056,0.00036542534
1354.3974852972399,1354.3974852972399,1.0025982,0.00036542432
1354.3988742080235,1354.3988742080235,1.0029306,0.00036545625
1354.4002631188075,1354.4002631188075,1.0020564,0.00036533363
1354.401652029708,1354.401652029708,1.0021116,0.00036535758
1354.4030409404916,1354.4030409404916,1.0025576,0.00036537118
1354.4044298512747,1354.4044298512747,1.0024147,0.00036537505
1354.4058187620583,1354.4058187620583,1.002047,0.00036541928
1354.4072076729583,1354.4072076729583,1.002768,0.00036540453
1354.4085965837423,1354.4085965837423,1.002693,0.00036545927
1354.4099854945264,1354.4099854945264,1.0021336,0.00036531602
1354.4113744053097,1354.4113744053097,1.0019562,0.00036538203
1354.4127633162095,1354.4127633162095,1.0024109,0.00036539335
1354.414152226993,1354.414152226993,1.0024028,0.0003654295
1354.4155411377772,1354.4155411377772,1.0021774,0.00036533983
1354.4169300485607,1354.4169300485607,1.0017582,0.0003652891
1354.4183189594598,1354.4183189594598,1.0027137,0.0003654375
1354.4197078702439,1354.4197078702439,1.0020504,0.00036532176
1354.421096781028,1354.421096781028,1.0023222,0.00036545447
1354.4224856919284,1354.4224856919284,1.002874,0.00036543858
1354.423874602712,1354.423874602712,1.0022012,0.0003653395
1354.4252635134947,1354.4252635134947,1.0023651,0.00036541204
1354.4266524243951,1354.4266524243951,1.0025558,0.00036543212
1354.4280413351792,1354.4280413351792,1.0026392,0.00036541672
1354.4294302459618,1354.4294302459618,1.0025064,0.00036543957
1354.4308191567454,1354.4308191567454,1.0026389,0.0003654242
1354.432208067646,1354.432208067646,1.002659,0.0003654348
1354.43359697843,1354.43359697843,1.0025425,0.00036548078
1354.434985889214,1354.434985889214,1.0018963,0.0003652937
1354.436374800113,1354.436374800113,1.0027122,0.0003654223
1354.4377637108967,1354.4377637108967,1.0023746,0.0003654369
1354.4391526216807,1354.4391526216807,1.0026127,0.0003654642
1354.4405415325807,1354.4405415325807,1.002682,0.00036543768
1354.441930443364,1354.441930443364,1.0024503,0.00036537083
1354.4433193541474,1354.4433193541474,1.0021619,0.00036536838
1354.444708265048,1354.444708265048,1.001875,0.00036535028
1354.446097175832,1354.446097175832,1.0025123,0.00036539722
1354.4474860866155,1354.4474860866155,1.0023801,0.00036538817
1354.4488749975155,1354.4488749975155,1.0020959,0.00036536469
1354.4502639082987,1354.4502639082987,1.0022414,0.00036539222
1354.4516528190823,1354.4516528190823,1.001733,0.00036532365
1354.4530417299827,1354.4530417299827,1.002136,0.0003653707
1354.4544306407668,1354.4544306407668,1.0024301,0.000365399
1354.4558195515503,1354.4558195515503,1.0022595,0.00036533774
1354.4572084624501,1354.4572084624501,1.0020459,0.0003653118
1354.4585973732335,1354.4585973732335,1.0027623,0.00036555063
1354.4599862840175,1354.4599862840175,1.0024678,0.00036540593
1354.4613751949175,1354.4613751949175,1.0025301,0.00036549484
1354.4627641057002,1354.4627641057002,1.0022403,0.00036540572
1354.4641530164843,1354.4641530164843,1.0023558,0.0003654046
1354.4655419273847,1354.4655419273847,1.0024612,0.0003653768
1354.4669308381688,1354.4669308381688,1.0025177,0.000365432
1354.4683197490688,1354.4683197490688,1.0017802,0.00036540022
1354.4697086598514,1354.4697086598514,1.0028015,0.0003654672
1354.4710975706355,1354.4710975706355,1.002593,0.00036544888
1354.472486481536,1354.472486481536,1.0025716,0.00036546635
1354.4738753923189,1354.4738753923189,1.0030105,0.00036547962
1354.4752643031022,1354.4752643031022,1.0026089,0.0003654238
1354.4766532140027,1354.4766532140027,1.0024023,0.00036540732
1354.478042124787,1354.478042124787,1.0023137,0.00036538832
1354.4794310356876,1354.4794310356876,1.0028588,0.00036550188
1354.4808199464703,1354.4808199464703,1.0026162,0.00036544233
1354.4822088572535,1354.4822088572535,1.0034429,0.00036556507
1354.4835977681541,1354.4835977681541,1.0023212,0.0003654544
1354.4849866789375,1354.4849866789375,1.0022545,0.0003652997
1354.486375589721,1354.486375589721,1.0027146,0.00036542854
1354.4877645006206,1354.4877645006206,1.0021483,0.0003654214
1354.489153411405,1354.489153411405,1.0027665,0.0003654143
1354.4905423223056,1354.4905423223056,1.0022955,0.00036541384
1354.4919312330887,1354.4919312330887,1.0022843,0.00036535144
1354.4933201438723,1354.4933201438723,1.0025526,0.00036544466
1354.494709054772,1354.494709054772,1.0024128,0.00036537967
1354.4960979655555,1354.4960979655555,1.002513,0.00036541696
1354.497486876456,1354.497486876456,1.0016295,0.00036532365
1354.4988757872402,1354.4988757872402,1.0024812,0.00036543942
1354.5002646980236,1354.5002646980236,1.002437,0.00036545857
1354.5016536089236,1354.5016536089236,1.0028967,0.00036548046
1354.5030425197067,1354.5030425197067,1.0028362,0.00036545965
1354.504431430491,1354.504431430491,1.0018181,0.0003653731
1354.5058203413907,1354.5058203413907,1.0020285,0.00036535726
1354.5072092521734,1354.5072092521734,1.0019866,0.00036533113
1354.5085981630739,1354.5085981630739,1.0023891,0.0003654066
1354.5099870738582,1354.5099870738582,1.0021487,0.0003654058
1354.5113759846424,1354.5113759846424,1.0022731,0.0003653831
1354.512764895542,1354.512764895542,1.0030408,0.00036548174
1354.5141538063247,1354.5141538063247,1.0018555,0.00036536434
1354.5155427172253,1354.5155427172253,1.0029737,0.0003655292
1354.5169316280096,1354.5169316280096,1.0025784,0.00036543186
1354.5183205387923,1354.5183205387923,1.0025783,0.00036547627
1354.519709449692,1354.519709449692,1.0028034,0.0003654437
1354.5210983604763,1354.5210983604763,1.0021472,0.00036542144
1354.5224872713768,1354.5224872713768,1.0017458,0.00036530476
1354.5238761821608,1354.5238761821608,1.0030068,0.00036552077
1354.52526509306,1354.52526509306,1.0021801,0.00036533576
1354.5266540038435,1354.5266540038435,1.001998,0.00036535584
1354.5280429146276,1354.5280429146276,1.0027936,0.00036552906
1354.5294318255271,1354.5294318255271,1.0012437,0.0003652523
1354.5308207363107,1354.5308207363107,1.0028585,0.0003654937
1354.5322096472107,1354.5322096472107,1.0020436,0.00036538974
1354.5335985579948,1354.5335985579948,1.0019805,0.00036533416
1354.5349874687788,1354.5349874687788,1.0017921,0.00036534228
1354.5363763796788,1354.5363763796788,1.0021833,0.00036534888
1354.537765290462,1354.537765290462,1.0029241,0.00036554455
1354.539154201362,1354.539154201362,1.0015535,0.00036535642
1354.5405431121453,1354.5405431121453,1.0031582,0.0003655299
1354.5419320229296,1354.5419320229296,1.0020764,0.00036537505
1354.54332093383,1354.54332093383,1.0032318,0.00036551012
1354.5447098446132,1354.5447098446132,1.0025239,0.00036547007
1354.5460987555132,1354.5460987555132,1.0019526,0.00036536093
1354.5474876662968,1354.5474876662968,1.0031631,0.000365532
1354.5488765770808,1354.5488765770808,1.0019172,0.00036539792
1354.5502654879804,1354.5502654879804,1.003615,0.00036560476
1354.5516543987633,1354.5516543987633,1.002091,0.00036538843
1354.553043309664,1354.553043309664,1.0024953,0.00036544353
1354.554432220448,1354.554432220448,1.0024241,0.00036547732
1354.555821131232,1354.555821131232,1.002397,0.0003654144
1354.557210042132,1354.557210042132,1.003172,0.00036554906
1354.5585989529147,1354.5585989529147,1.0021526,0.00036539062
1354.5599878638152,1354.5599878638152,1.0026653,0.0003654683
1354.5613767745992,1354.5613767745992,1.0023133,0.0003654158
1354.562765685382,1354.562765685382,1.0017422,0.000365405
1354.564154596282,1354.564154596282,1.0026841,0.0003655089
1354.565543507066,1354.565543507066,1.0018944,0.00036536457
