time,time,flux,flux_err
1354.1197222887001,1354.1197222887001,0.9983768812026566,0.0001224678207922475
1354.1285186204802,1354.1285186204802,1.0006401003991294,0.000122577275061044
1354.1361575397973,1354.1361575397973,1.0004807972951906,0.0001118912523471582
1354.143102011503,1354.143102011503,1.0010448035305077,0.00011191281470740429
1354.1500464829292,1354.1500464829292,1.0003960044116431,0.00011188151767426223
1354.1569909540763,1354.1569909540763,1.000394029561227,0.00011188254926132449
1354.163935425223,1354.163935425223,1.000354390967648,0.00011187996959966284
1354.1708798957181,1354.1708798957181,1.000072384447512,0.00011187148690933518
1354.1778243660265,1354.1778243660265,0.9998072462949118,0.00011185838040073882
1354.1847688360563,1354.1847688360563,0.9996502398692038,0.00011185007175782494
1354.1917133058992,1354.1917133058992,0.9993579602134537,0.00011185503230637289
1354.1986577754626,1354.1986577754626,0.9997550499758188,0.00011188599079165723
1354.2056022446538,1354.2056022446538,0.9998131072732341,0.0001118922257108696
1354.2125467137519,1354.2125467137519,1.0003862657915283,0.00011193412619753981
1354.219491182384,1354.219491182384,1.0002926309688573,0.00011193191942355199
1354.2264356511096,1354.2264356511096,1.0001234204401677,0.00011193170492696642
1354.2333801189966,1354.2333801189966,1.0000529210607894,0.00011193778744240173
1354.2403245870703,1354.2403245870703,1.0000269433820361,0.00011194302926732192
1354.2472690547713,1354.2472690547713,1.0002215119278184,0.00011195938415804086
1354.2542135222861,1354.2542135222861,0.9995187775243641,0.00011193276862220371
1354.261157989428,1354.261157989428,1.0002547133094937,0.00011197599800617678
1354.268102456384,1354.268102456384,1.0002494562064856,0.00011198601576448714
1354.2750469230605,1354.2750469230605,0.999654490357768,0.00011196736406986045
1354.281991389551,1354.281991389551,0.9999081675537624,0.00011198788618725362
1354.2889358555753,1354.2889358555753,0.9999561281723839,0.00011199691070413007
1354.2958803216002,1354.2958803216002,0.9997719809903245,0.00011199570468237423
1354.3028247874383,1354.3028247874383,1.0000603998860957,0.0001120109106461292
1354.309769252904,1354.309769252904,1.0003698305819981,0.00011203827223366637
1354.3167137180908,1354.3167137180908,1.0000246671128301,0.00011202599563175992
1354.3236581829974,1354.3236581829974,1.0001143378066122,0.00011203838394123102
1354.3306026479045,1354.3306026479045,0.9998295923626559,0.00011203353190421077
1354.3375471124393,1354.3375471124393,1.0002077064541008,0.00011205764146311162
1354.344491576694,1354.344491576694,0.9999000462404591,0.00011204377438520307
1354.3514360408567,1354.3514360408567,1.000117891019293,0.00011205631225348178
1354.3583805046455,1354.3583805046455,0.999941981256217,0.00011205598051516415
1354.3653249683418,1354.3653249683418,0.9995875217342982,0.00011204411285649121
1354.372269431666,1354.372269431666,0.9997410353827945,0.00011205932580582774
1354.379213894896,1354.379213894896,1.000072078244735,0.00011207635473248399
1354.3861583578478,1354.3861583578478,1.0004860938165465,0.00011210011747567357
1354.3931028206127,1354.3931028206127,0.9993009470442973,0.0001120534942986882
1354.400047283191,1354.400047283191,1.0008360580157432,0.00011213494718525108
1354.4069917453976,1354.4069917453976,1.0005054157146454,0.00011212069621474267
1354.4139362075107,1354.4139362075107,0.9996448435278129,0.00011208110790197694
1354.4208806694373,1354.4208806694373,0.999762518451339,0.00011209161472947209
1354.427825131085,1354.427825131085,0.999654249347061,0.00011208857596953338
1354.4347695927322,1354.4347695927322,1.000107880130349,0.00011211305002749247
1354.4417140538208,1354.4417140538208,0.9995488736682991,0.00011209149925637467
1354.4486585149093,1354.4486585149093,1.0001681414020118,0.00011212856108374684
1354.4556029757184,1354.4556029757184,1.0000332411086794,0.00011212993557239883
1354.4625474363415,1354.4625474363415,1.000300194241078,0.00011214445905364608
1354.4694918968712,1354.4694918968712,1.0007169173903683,0.00011216860233833992
1354.4764363571214,1354.4764363571214,0.9995078776174282,0.00011211642621933514
1354.483380817093,1354.483380817093,1.0000188502957765,0.00011214480874471859
1354.4903252769702,1354.4903252769702,0.9997858456985658,0.00011212921884581656
1354.497269736569,1354.497269736569,1.0000303796139351,0.00011215438851105335
1354.5042141960746,1354.5042141960746,0.9997361270187518,0.00011214375808383972
1354.511158655207,1354.511158655207,1.0004507632806037,0.00011217839747751773
1354.518103114247,1354.518103114247,0.9995352148293921,0.00011214374507768609
1354.5250475732867,1354.5250475732867,1.0003635801435697,0.00011219009676248935
1354.5319920319537,1354.5319920319537,1.0000805512390538,0.00011218331530741343
1354.5389364905282,1354.5389364905282,0.9996662207266992,0.00011215864318248911
1354.5458809488227,1354.5458809488227,1.0000312379578862,0.00011217532776491137
1354.5528254070239,1354.5528254070239,0.9998822598053538,0.00011216879520671145
1354.559769864853,1354.559769864853,1.0001135915147146,0.00011217253616047955
1354.566714322682,1354.566714322682,0.9998785939532986,0.00011215807562550146
1354.5736587803249,1354.5736587803249,0.9999422408949366,0.00011215772390342855
1354.580603237688,1354.580603237688,0.9996018831339402,0.00011213817715104099
1354.587547694865,1354.587547694865,1.0003343062046026,0.0001121794674823259
1354.5944921520422,1354.5944921520422,1.0001905525053172,0.00011217210581265856
1354.6014366087534,1354.6014366087534,1.0004728857499412,0.00011218812020538146
1354.6083810654648,1354.6083810654648,1.000407386401988,0.00011218653517675254
1354.6153255221761,1354.6153255221761,0.9999471227544934,0.00011216531645239691
1354.6222699784216,1354.6222699784216,0.9995922026393862,0.00011214875972103953
1354.6292144345746,1354.6292144345746,0.9997705853171828,0.0001121689498139458
1354.636158890634,1354.636158890634,1.0000085290318563,0.00011217741237839679
1354.6431033465071,1354.6431033465071,0.9996864610593846,0.0001121644155816977
1354.6500478021012,1354.6500478021012,1.0004473708033415,0.00011219749477365673
1354.6569922576948,1354.6569922576948,1.000084146103957,0.00011218645252623918
1354.6639367131024,1354.6639367131024,0.9995194079612103,0.00011215705221181784
1354.6708811682306,1354.6708811682306,0.9997420887577773,0.00011215982368773612
1354.6778256232653,1354.6778256232653,0.9996679284218251,0.00011215706240058194
1354.6847700781143,1354.6847700781143,0.9997186003861088,0.00011215686454305073
1354.69171453287,1354.69171453287,1.0006629829596698,0.00011219878331825729
1354.6986589873457,1354.6986589873457,1.000630122644667,0.00011220175901860054
1354.7056034417292,1354.7056034417292,1.0003155952779768,0.00011218368526591212
1354.7125478960193,1354.7125478960193,1.0000724425733427,0.00011217335375201986
1354.7194923500297,1354.7194923500297,0.9999247428755126,0.0001121669412066104
1354.726436803854,1354.726436803854,0.9995761811869995,0.00011215140391100797
1354.733381257678,1354.733381257678,1.0000242619589375,0.00011217174515653228
1354.7403257113162,1354.7403257113162,0.9994007167542313,0.00011215099291226596
1354.747270164675,1354.747270164675,0.9999029418986947,0.00011217894524526967
1354.7542146181265,1354.7542146181265,1.0006857827440474,0.00011222178637534893
1354.7611590711126,1354.7611590711126,1.0001728941668064,0.00011219821046253677
1354.768103524192,1354.768103524192,1.000188829402733,0.00011220301005904292
1354.7750479769918,1354.7750479769918,0.9996607708342401,0.00011217051325513993
1354.7819924296052,1354.7819924296052,0.9996734486719122,0.00011217297088209771
1354.788936882219,1354.788936882219,1.0002526444468818,0.00011220254801852839
1354.7958813346463,1354.7958813346463,1.0000226044792782,0.00011218596655445564
1354.802825786794,1354.802825786794,0.9998169158022534,0.00011217498837585291
1354.8097702388488,1354.8097702388488,0.9998082015460563,0.00011217122118565063
1354.8167146909036,1354.8167146909036,0.9997984684589092,0.00011217867874189099
1354.8236591427722,1354.8236591427722,1.0007712440977161,0.00011222572438460143
1354.8306035944545,1354.8306035944545,1.0001918575390207,0.00011220255310006833
1354.8375480459508,1354.8375480459508,1.0001344809206825,0.00011219624290198682
1354.8444924974465,1354.8444924974465,0.9995224202923506,0.0001121599510515118
1354.8514369485702,1354.8514369485702,1.000247617954229,0.00011217925523768102
1354.8583813996934,1354.8583813996934,0.9998535391171501,0.00011215999058421529
1354.8653258507236,1354.8653258507236,0.9993363506326851,0.00011212170172071239
1354.872270301568,1354.872270301568,0.9995084822248271,0.00011211661302845463
1354.8792147522256,1354.8792147522256,0.9996934779808209,0.00011211246507434182
1354.8861592027904,1354.8861592027904,1.0002271576219415,0.0001121299881717415
1354.8931036531687,1354.8931036531687,1.000361054083125,0.00011212415646520731
1354.9000481035473,1354.9000481035473,1.0011493472480317,0.00011215153291937744
1354.9069925536464,1354.9069925536464,0.9997547511632827,0.00011208268696245357
1354.9139370038383,1354.9139370038383,0.9998370849886671,0.00011207669163637059
1354.9208814535646,1354.9208814535646,0.999892171464527,0.0001120762895472034
1354.9278259032913,1354.9278259032913,1.0010509857437453,0.0001121376283397275
1354.9347703530177,1354.9347703530177,0.9995763981608163,0.00011207166551266968
1354.9431036923165,1354.9431036923165,0.9979132176278036,0.00011198697151370963
1354.950048141764,1354.950048141764,0.999923198390363,0.0001120998485556531
1354.9569925909316,1354.9569925909316,0.9997411936463776,0.00011211004065544954
1354.9639370400062,1354.9639370400062,0.9996156294658191,0.00011210905313181342
1354.9708814889877,1354.9708814889877,1.0001450479182712,0.00011212761950121323
1354.9778259377829,1354.9778259377829,1.0002042596379708,0.00011217327786754573
1354.984770386485,1354.984770386485,0.999415493397969,0.00011212471657046723
1354.9917148350937,1354.9917148350937,1.000810183740385,0.00011218939074409502
1354.9986592836094,1354.9986592836094,1.0002424897433735,0.00011217250398327778
1355.005603731846,1355.005603731846,0.9998604252211191,0.00011214766250766919
1355.0125481800821,1355.0125481800821,0.998766017895198,0.00011208222525877557
1355.0194926282256,1355.0194926282256,0.999980043244471,0.00011213426233215567
1355.0264370761822,1355.0264370761822,1.0001561502041985,0.00011213314684839588
1355.0333815239533,1355.0333815239533,0.9998734922389737,0.00011210738244625869
1355.040325971631,1355.040325971631,0.9997607391333506,0.00011210032009679675
1355.0472704194015,1355.0472704194015,1.0004553881806004,0.000112127312763299
1355.0542148668926,1355.0542148668926,0.9997106248749557,0.00011208581158631289
1355.0611593142908,1355.0611593142908,1.0012927518727566,0.00011216634397151362
1355.0681037613165,1355.0681037613165,1.0003078327852946,0.00011211609859531894
1355.0750482085284,1355.0750482085284,1.0001550812691857,0.00011211631003060268
1355.081992655461,1355.081992655461,1.00018167214387,0.0001121119511262004
1355.0889371023932,1355.0889371023932,0.9995942353734536,0.00011209545810102332
1355.0958815491397,1355.0958815491397,0.9997485036916913,0.00011211061408842248
1355.1028259957927,1355.1028259957927,0.9997833869763854,0.00011211996773580633
1355.1097704423528,1355.1097704423528,0.9998543517747887,0.00011213370698329201
1355.1167148887266,1355.1167148887266,0.9994260203253653,0.00011211814987433085
1355.1236593351937,1355.1236593351937,0.9998297609157396,0.00011214534788088698
1355.1306037811946,1355.1306037811946,1.000183864685515,0.00011216730723165177
1355.137548227382,1355.137548227382,1.000416819639629,0.00011217695995502039
1355.1444926732897,1355.1444926732897,0.999755567157977,0.00011214609652243767
1355.1514371191054,1355.1514371191054,1.0000928334728532,0.00011215387430747838
1355.15838156492,1355.15838156492,1.0001588130843342,0.00011216172138032036
1355.1653260105486,1355.1653260105486,1.0001211891851873,0.0001121592978894517
1355.172270455991,1355.172270455991,1.0000215130454955,0.00011215611388113913
1355.1792149014334,1355.1792149014334,1.000002599660953,0.00011215932170678673
1355.1861593466897,1355.1861593466897,0.9998433188495437,0.00011214795688698387
1355.193103792039,1355.193103792039,1.00044817812354,0.00011217477899799744
1355.2000482371086,1355.2000482371086,0.9992939624477643,0.00011212401201032706
1355.2069926819925,1355.2069926819925,1.0001092287785014,0.00011215861750024506
1355.2139371267826,1355.2139371267826,0.9998293612816628,0.00011213935933284289
1355.2208815715735,1355.2208815715735,1.0003733800316426,0.00011216307554458738
1355.227826016178,1355.227826016178,0.9997740449136113,0.00011214307792156441
1355.2347704607819,1355.2347704607819,0.9999941405323461,0.00011215381589514072
1355.2417149051998,1355.2417149051998,0.9999253276219495,0.0001121512134970687
1355.2486593495246,1355.2486593495246,1.0005924001887807,0.00011218190488286052
1355.255603793663,1355.255603793663,1.0001226372416898,0.00011216591179719815
1355.2625482378019,1355.2625482378019,0.9999861272257394,0.00011216407185182025
1355.2694926818472,1355.2694926818472,0.9999861079196778,0.00011216683790824516
1355.2764371257992,1355.2764371257992,0.9992637071717787,0.00011213956735051517
1355.2833815694719,1355.2833815694719,1.0005340438214247,0.000112199941712054
1355.2903260132382,1355.2903260132382,1.0000344931970164,0.0001121844289442753
1355.297270456725,1355.297270456725,1.0000991990252381,0.00011218538606653005
1355.3042149003045,1355.3042149003045,0.9994457805127999,0.00011216286324048185
1355.311159343605,1355.311159343605,0.9990195721926979,0.00011213963202943454
1355.3181037869056,1355.3181037869056,1.0008900234034903,0.00011223118355612022
1355.3250482301125,1355.3250482301125,1.0006753762671527,0.00011221744301478017
1355.3319926731335,1355.3319926731335,0.9997250779609974,0.00011218329461480416
1355.3397704492834,1355.3397704492834,1.0000465572835429,0.0001121999643032599
1355.3472704474445,1355.3472704474445,1.0005691996895396,0.00011221931402174115
1355.3542148901859,1355.3542148901859,0.999886394113855,0.00011218421748826143
1355.3611593329276,1355.3611593329276,0.9998138767234821,0.000112173952153514
1355.3681037755762,1355.3681037755762,0.9994411048061211,0.00011215059180378927
1355.375048217945,1355.375048217945,0.9995161663757519,0.00011213922916144568
1355.3819926603142,1355.3819926603142,0.9997072349000243,0.00011215190453169312
1355.38893710259,1355.38893710259,0.999706398960142,0.00011215103101815803
1355.3958815446795,1355.3958815446795,1.0006064905732737,0.0001121995150050752
1355.4039370974217,1355.4039370974217,1.0011993380507658,0.00011222986456156563
1355.4111593171276,1355.4111593171276,1.0002921186224303,0.00011218794444414241
1355.418103758938,1355.418103758938,1.0003711558500354,0.00011218996545805308
1355.425048200655,1355.425048200655,0.9999889483550367,0.00011217841144789532
1355.431992642279,1355.431992642279,0.9993227849161614,0.00011214080693846388
1355.4389370838103,1355.4389370838103,0.9997625812970494,0.00011216392227790235
1355.445881525341,1355.445881525341,0.9990205256558429,0.0001121282883465481
1355.4528259666854,1355.4528259666854,1.0000018590717246,0.00011218771688215499
1355.4597704080302,1355.4597704080302,0.9996752464259682,0.00011217428493060252
1355.4667148491883,1355.4667148491883,1.0004022826991528,0.00011221285708000177
1355.4736592902539,1355.4736592902539,1.0000769577942783,0.00011219598280533846
1355.480603731226,1355.480603731226,1.0005172667322024,0.0001122209226536234
1355.4875481721047,1355.4875481721047,1.0005688420785868,0.00011222824585978235
1355.4944926128906,1355.4944926128906,0.9998469227284733,0.00011218733444079564
1355.50143705349,1355.50143705349,1.0001587359879824,0.00011219834898837814
1355.5083814942755,1355.5083814942755,1.0002572804110497,0.00011220109701345416
1355.515325934782,1355.515325934782,0.9997019755942492,0.00011216918140798503
1355.5222703751956,1355.5222703751956,0.9991972299032831,0.00011215319599584115
1355.5292148155154,1355.5292148155154,0.9995467496626835,0.00011216028580495573
1355.536159255556,1355.536159255556,0.9995975819389317,0.00011217249253791099
1355.5431036957834,1355.5431036957834,1.0001811880742002,0.00011219155583115463
1355.550048135824,1355.550048135824,1.000635228633355,0.0001122352856175525
1355.5569925757716,1355.5569925757716,1.00072391043567,0.00011224413021965383
1355.5639370156262,1355.5639370156262,1.0003121116664278,0.00011222648598412236
1355.5708814554803,1355.5708814554803,1.0003106677600035,0.00011222887426729248
1355.5778258950554,1355.5778258950554,0.9996615503882722,0.00011220094912196948
1355.5847703347238,1355.5847703347238,0.999911296465233,0.00011221449697085616
1355.5917147742057,1355.5917147742057,0.9993837039395743,0.00011219406161634365
1355.5986592135946,1355.5986592135946,0.9995015847600689,0.00011221244985863197
1355.6056036527968,1355.6056036527968,1.0002033284496186,0.00011226272538672748
1355.6125480920928,1355.6125480920928,1.0002015078919577,0.0001122764756593416
1355.6194925312952,1355.6194925312952,1.0004389994741338,0.00011230237426750435
1355.6264369703115,1355.6264369703115,1.0015153522451314,0.00011237236074867743
1355.633381409235,1355.633381409235,1.0005029158108074,0.00011231899947275355
1355.6403258480648,1355.6403258480648,1.0000517048612,0.00011226778963129168
1355.6472702869876,1355.6472702869876,0.9993084598086123,0.00011218922016410703
1355.6542147256318,1355.6542147256318,0.9981531961639153,0.00011209178943177836
1355.6611591642754,1355.6611591642754,0.9983880310405866,0.00011204882712783407
1355.6681036027328,1355.6681036027328,0.9976267938749993,0.00011195717900990129
1355.6750480411906,1355.6750480411906,0.9989908413006662,0.00011199261867939074
1355.6819924795548,1355.6819924795548,0.998691633817851,0.00011192443163252444
1355.68893691764,1355.68893691764,1.0021476297801086,0.00011205773601486967
1355.6958813560043,1355.6958813560043,1.0045353367044623,0.0001121472030936353
1355.702825794089,1355.702825794089,1.0024820755179649,0.00011202402170582115
1355.7097702318947,1355.7097702318947,1.0003224043720624,0.00011190314688806031
1355.7167146699799,1355.7167146699799,1.0002035505862972,0.00011189286179688069
1355.7236591077851,1355.7236591077851,0.9994994535844979,0.00011187539402376949
1355.7306035454978,1355.7306035454978,0.9990628428428515,0.0001118931503952004
1355.7375479832103,1355.7375479832103,0.9994601238456582,0.00011195534514612175
1355.7444924207364,1355.7444924207364,0.9995250315627076,0.00011201342925151664
1355.7528257456931,1355.7528257456931,0.998837840032724,0.00011203985600882486
1355.759770183126,1355.759770183126,1.0005947989519317,0.00011217474329582261
1355.766714620373,1355.766714620373,0.9993516485361262,0.00011216168506615475
1355.7736590576199,1355.7736590576199,1.0001104892517008,0.00011222229582435965
1355.78060349468,1355.78060349468,0.999741155356924,0.00011223103494126607
1355.7875479318338,1355.7875479318338,1.0003358339669253,0.00011228209152797897
1355.7944923687082,1355.7944923687082,1.0000853426520082,0.000112283807437471
1355.8014368055824,1355.8014368055824,0.9998796100020162,0.00011230195388310484
1355.8083812423636,1355.8083812423636,0.9999538066564814,0.0001123208526400892
1355.8153256790515,1355.8153256790515,1.000070969254807,0.00011233845335208525
1355.8222701156467,1355.8222701156467,1.0001758065823285,0.00011235027766810196
1355.8292145522412,1355.8292145522412,0.9995957494074219,0.00011234816238443334
1355.8361589886495,1355.8361589886495,1.0006485532106881,0.00011240720292931674
1355.8431034250586,1355.8431034250586,0.9999145928376965,0.00011238898471461068
1355.8500478613737,1355.8500478613737,0.9997977615748581,0.00011240049920494181
1355.8569922975032,1355.8569922975032,1.0001957857790449,0.00011243195082377236
1355.8639367336323,1355.8639367336323,0.9997427668112744,0.00011242056560949526
1355.8708811697613,1355.8708811697613,1.0002263324131087,0.00011245196911255549
