time,time,flux,flux_err
1354.1159620575384,1354.1159620575384,1.0000335531857338,0.00023701669474256675
1354.1247585786875,1354.1247585786875,0.9998933408836456,0.00023702898340486798
1354.1330921251126,1354.1330921251126,1.0000272628663114,0.00023705563337926328
1354.1407312094057,1354.1407312094057,1.0003002618699028,0.00021640675319177863
1354.1476758314736,1354.1476758314736,0.9995930062898685,0.00021634327731118812
1354.1546204534948,1354.1546204534948,1.0001252839800663,0.00021640625492872124
1354.1615650755855,1354.1615650755855,0.9999906168818853,0.00021638514219408464
1354.1685096976532,1354.1685096976532,1.0000084055626042,0.0002163864050490503
1354.1754543197444,1354.1754543197444,1.0001905627031824,0.00021640666584440117
1354.1823989418356,1354.1823989418356,1.0001435989767244,0.0002163941878859671
1354.1893435639497,1354.1893435639497,0.9997846181636154,0.00021636873764288702
1354.196288186064,1354.196288186064,0.9999660433766417,0.0002163877396069096
1354.203232808155,1354.203232808155,0.9999622715078079,0.00021637874168308488
1354.2101774302691,1354.2101774302691,1.0000020029382906,0.0002163712139086308
1354.2171220524065,1354.2171220524065,1.0000659603000803,0.00021639010036009847
1354.224066674521,1354.224066674521,0.9999373655147247,0.00021636467684298084
1354.2310112966586,1354.2310112966586,0.9998378789163169,0.00021636147936385692
1354.237955918773,1354.237955918773,1.0000360800532726,0.00021637977705055164
1354.2449005409103,1354.2449005409103,1.0001898035102985,0.00021637743284542906
1354.2518451630247,1354.2518451630247,0.9998924903784658,0.00021634851666123728
1354.258789785139,1354.258789785139,1.0002108574840458,0.0002163761044329076
1354.2657344072534,1354.2657344072534,0.9998284840985345,0.00021632536008561474
1354.2726790293673,1354.2726790293673,0.9995198747874037,0.00021631185959108528
1354.279623651505,1354.279623651505,1.0004169501017375,0.00021639465604596117
1354.286568273619,1354.286568273619,1.0001479029998914,0.00021638000240924298
1354.2935128957101,1354.2935128957101,1.0002156887438913,0.00021636355227435525
1354.3004575178013,1354.3004575178013,0.9996277317576023,0.00021630590997746916
1354.3074021399154,1354.3074021399154,1.0001804826813354,0.00021634881586467077
1354.31434676196,1354.31434676196,0.9996945403054788,0.00021631380932089599
1354.3212913840975,1354.3212913840975,1.0001505110803062,0.00021634745712707592
1354.3282360061185,1354.3282360061185,0.9999793130775991,0.00021633370781267564
1354.3351806282096,1354.3351806282096,1.0000547591596571,0.00021632257203116792
1354.3421252502771,1354.3421252502771,1.0002347940363294,0.0002163642430537651
1354.3490698722985,1354.3490698722985,1.0000983978104419,0.00021635707274612236
1354.3560144943197,1354.3560144943197,1.0000232217982052,0.00021633334613448642
1354.3629591163408,1354.3629591163408,0.9995579357802047,0.00021628830111480917
1354.369903738362,1354.369903738362,0.9999840529868749,0.00021631523122828426
1354.376848360383,1354.376848360383,0.9998521753250825,0.00021629496203007232
1354.3837929823108,1354.3837929823108,1.0001498513886546,0.0002163293370098914
1354.390737604309,1354.390737604309,0.9998740057428467,0.00021631130314295
1354.3976822262368,1354.3976822262368,0.9999227871417574,0.00021631296980258516
1354.4046268481882,1354.4046268481882,1.0002392346305042,0.00021633806375756455
1354.4115714701163,1354.4115714701163,1.0003223626937066,0.00021634908893536077
1354.4185160920208,1354.4185160920208,1.0002618586641712,0.00021634503099659768
1354.4254607139023,1354.4254607139023,1.0000008224834853,0.0002163067792419056
1354.4324053357836,1354.4324053357836,0.9995776846555131,0.00021630570176846818
1354.4393499576418,1354.4393499576418,1.0000486076213744,0.00021632623618630473
1354.446294579477,1354.446294579477,0.9999058579957033,0.00021630052931135936
1354.4532392012884,1354.4532392012884,0.9996090767970666,0.00021629302851032908
1354.4601838231,1354.4601838231,0.9999500197191498,0.00021631761998568968
1354.4671284448882,1354.4671284448882,1.0001907629569993,0.00021634712147877987
1354.474073066653,1354.474073066653,0.9999909130917075,0.0002163284443674459
1354.4810176883952,1354.4810176883952,1.000429566014386,0.00021636809825911898
1354.4879623101135,1354.4879623101135,0.999861653894628,0.00021631602673186646
1354.4949069318086,1354.4949069318086,0.9998897934326887,0.00021629675796965502
1354.5018515534807,1354.5018515534807,1.000260933419409,0.00021633397732834166
1354.5087961751292,1354.5087961751292,0.9998400766454344,0.00021629612868578037
1354.5157407967777,1354.5157407967777,0.9998177150290198,0.0002162862960588039
1354.52268541838,1354.52268541838,0.9999995219312148,0.00021630086409855646
1354.5296300399818,1354.5296300399818,1.000213610150655,0.0002163311302396219
1354.5365746615375,1354.5365746615375,1.0001229168982573,0.0002163259680933088
1354.5435192830696,1354.5435192830696,0.9998218322084196,0.0002163033432706968
1354.550463904625,1354.550463904625,0.9997046524726393,0.00021629505294600031
1354.5574085260644,1354.5574085260644,1.0002804506452114,0.00021633992072653182
1354.5643531475962,1354.5643531475962,0.9999093355246327,0.00021628656490113086
1354.5712977690587,1354.5712977690587,1.0000614190979984,0.00021631764924593126
1354.5782423903813,1354.5782423903813,0.9999882804088911,0.00021629718730922348
1354.5851870118206,1354.5851870118206,1.0000016936096183,0.00021629628823289552
1354.5921316331664,1354.5921316331664,1.0000937713590967,0.00021629698504512293
1354.5990762545123,1354.5990762545123,0.9999211275249815,0.00021627631909769954
1354.6060208758113,1354.6060208758113,1.0000161384685184,0.00021628022315136374
1354.6129654971344,1354.6129654971344,1.0000611308957275,0.00021630734724429812
1354.6199101184102,1354.6199101184102,1.0000373259915507,0.0002162755921861714
1354.6268547395468,1354.6268547395468,0.9999516197059952,0.00021629006862916583
1354.6337993608229,1354.6337993608229,0.9999289486409685,0.00021628785656573925
1354.640743981959,1354.640743981959,1.0000425119287601,0.0002162932856749181
1354.6476886030955,1354.6476886030955,1.0000904476666768,0.000216311456276549
1354.654633224232,1354.654633224232,0.9998769823620963,0.0002162888301841304
1354.661577845322,1354.661577845322,0.9998843676578979,0.00021627966801361504
1354.6685224663654,1354.6685224663654,1.0001297492160244,0.00021630658092733267
1354.6754670873618,1354.6754670873618,0.9998631702484774,0.0002162902778402672
1354.6824117083584,1354.6824117083584,0.9998375239701003,0.00021628122294636634
1354.6893563293552,1354.6893563293552,1.0004501889016564,0.00021633863453527158
1354.6963009503052,1354.6963009503052,1.0002680815888163,0.00021633508852650333
1354.7032455711624,1354.7032455711624,0.9997549391412622,0.00021627593301257902
1354.7101901920194,1354.7101901920194,0.9999382148475693,0.00021630698861357646
1354.7171348128763,1354.7171348128763,0.9999194968869105,0.00021630594441590583
1354.7240794337336,1354.7240794337336,0.9997934403270019,0.00021628932278636729
1354.7310240544043,1354.7310240544043,1.0001208479212544,0.00021632544003657452
1354.7379686752147,1354.7379686752147,0.9996926369122002,0.00021627062354534856
1354.7449132958852,1354.7449132958852,1.000332107779317,0.00021633546967609186
1354.7518579166026,1354.7518579166026,0.9997049307198089,0.0002162691248740203
1354.7588025372268,1354.7588025372268,1.000448545102135,0.00021633582654976505
1354.765747157851,1354.765747157851,0.9999102729729608,0.00021628874516353816
1354.7726917784285,1354.7726917784285,1.0002445096218036,0.00021632986429771962
1354.7796363989594,1354.7796363989594,0.9997272633999209,0.00021625966474484376
1354.786581019444,1354.786581019444,0.9999798757786923,0.0002162956517900337
1354.7935256399749,1354.7935256399749,1.0000305910853762,0.0002162959221194484
1354.8004702603664,1354.8004702603664,0.9998996070683541,0.00021628669827053687
1354.8074148808043,1354.8074148808043,1.000058942577121,0.00021631069894024053
1354.8143595011493,1354.8143595011493,0.9998954240644752,0.0002162905976578942
1354.8213041214935,1354.8213041214935,1.000057329490523,0.00021630727967787626
1354.8282487417453,1354.8282487417453,1.0000571163078973,0.00021631099789218522
1354.8351933620438,1354.8351933620438,1.0000292082396058,0.00021630578713536597
1354.8421379822953,1354.8421379822953,1.0001006166573219,0.0002163101110961172
1354.8490826025004,1354.8490826025004,0.9999186585321777,0.00021628137166613344
1354.8560272226587,1354.8560272226587,1.0002135743070395,0.00021630981517379777
1354.8629718428176,1354.8629718428176,0.9999528958849753,0.00021628786328303199
1354.869916462883,1354.869916462883,0.9997164311847297,0.0002162622081216871
1354.8768610829482,1354.8768610829482,0.9999757208568946,0.0002162789516587544
1354.8838057029202,1354.8838057029202,0.999808162660784,0.0002162686018915439
1354.890750322939,1354.890750322939,1.0000479773097501,0.0002163118596325264
1354.8976949429114,1354.8976949429114,1.0003645713915694,0.0002163219550851756
1354.9046395627906,1354.9046395627906,0.9997076434104366,0.00021625027296576848
1354.9115841826697,1354.9115841826697,1.000006377955993,0.00021628907326106243
1354.9185288025485,1354.9185288025485,1.0001625795506688,0.00021630333906191173
1354.9254734222882,1354.9254734222882,1.0001394260213021,0.0002162968135424756
1354.9326958267688,1354.9326958267688,1.000064935882173,0.0002162634175014219
1354.9407515857988,1354.9407515857988,1.0000142541470136,0.00021627103120242544
1354.947696205352,1354.947696205352,0.9995008094985038,0.00021622914951548183
1354.9546408249985,1354.9546408249985,1.0002017276747375,0.0002162957044704021
1354.9615854446906,1354.9615854446906,0.9997017022151923,0.00021624836284289605
1354.9685300641977,1354.9685300641977,1.0003973833335937,0.00021630172593816886
1354.9754746837505,1354.9754746837505,1.0000151022714243,0.00021629090470787907
1354.9824193032575,1354.9824193032575,1.0002815023686835,0.00021629090885886006
1354.9893639226707,1354.9893639226707,1.0000813463709382,0.00021628557269967342
1354.9963085421307,1354.9963085421307,0.9997553202380379,0.00021627154176283333
1355.003253161498,1355.003253161498,0.9997688737456201,0.00021626520939336822
1355.010197780818,1355.010197780818,0.999908759628281,0.00021626576903695252
1355.0171424001383,1355.0171424001383,1.0000696530733832,0.00021628958335592115
1355.0240870193654,1355.0240870193654,0.9997848633874679,0.00021625632368482564
1355.0310316385926,1355.0310316385926,1.0001165471975306,0.00021628650850161082
1355.0379762577734,1355.0379762577734,1.0002468051886326,0.00021629814399394187
1355.044920876861,1355.044920876861,1.000320035500132,0.00021631185809837527
1355.051865495995,1355.051865495995,0.9997556433328963,0.00021624544638620922
1355.0588101150825,1355.0588101150825,0.9999642738817895,0.00021628652207696087
1355.0657547341234,1355.0657547341234,0.9997904720318568,0.00021625520368983444
1355.0726993531175,1355.0726993531175,1.000009583321957,0.00021628130379866708
1355.0796439720189,1355.0796439720189,1.0001931500363563,0.00021630748780620407
1355.08658859092,1355.08658859092,1.0000450364845244,0.00021627725877713364
1355.0935332098213,1355.0935332098213,1.0001125054532858,0.00021628042152656282
1355.1004778286294,1355.1004778286294,0.999708353671549,0.00021624981434034785
1355.1074224474373,1355.1074224474373,1.0000867719183582,0.00021630072805978602
1355.114367066199,1355.114367066199,0.9996560850191859,0.00021624518247036128
1355.1213116848674,1355.1213116848674,1.000174006586911,0.00021629622283805995
1355.1282563035825,1355.1282563035825,1.0003085354187,0.00021631712451615102
1355.1352009221114,1355.1352009221114,0.9999401979879415,0.00021628400466861675
1355.1421455408258,1355.1421455408258,0.9995666161855352,0.00021625316242237987
1355.1490901594016,1355.1490901594016,1.000551535994751,0.00021635150273614643
1355.1560347778834,1355.1560347778834,0.9999825859599456,0.00021627209513616023
1355.1629793962259,1355.1629793962259,0.9998886777377166,0.00021626881223509167
1355.169924014755,1355.169924014755,0.9999392888855297,0.00021626552671254821
1355.176868633097,1355.176868633097,0.999891913837548,0.0002162770192808551
1355.1838132514392,1355.1838132514392,0.9999670397706693,0.0002162964204445108
1355.1907578697358,1355.1907578697358,0.9998711088728692,0.00021626281486579135
1355.1977024880314,1355.1977024880314,0.9999372203958853,0.00021625340007803712
1355.2046471062342,1355.2046471062342,1.0001738487607619,0.00021628835832537626
1355.2115917244369,1355.2115917244369,1.000062668202309,0.0002162717968677751
1355.2185363425929,1355.2185363425929,1.000114132979713,0.00021627474167736858
1355.2254809606561,1355.2254809606561,0.9996901619039198,0.00021622193684634936
1355.2324255787191,1355.2324255787191,1.0005513003373505,0.00021633094902557548
1355.2393701967355,1355.2393701967355,0.9998352339412839,0.00021627273873664645
1355.2463148146587,1355.2463148146587,1.00020792139602,0.00021629416150195508
1355.2532594326287,1355.2532594326287,0.9997662650069994,0.00021625966784853903
1355.2602040505521,1355.2602040505521,1.000053051396471,0.00021629094742160724
1355.2671486683823,1355.2671486683823,0.9999352837379364,0.00021626574066830237
1355.2740932862125,1355.2740932862125,0.999989164262694,0.00021626528811594315
1355.281037903996,1355.281037903996,1.0000128372691959,0.00021628073087050998
1355.2879825217333,1355.2879825217333,0.9995780336142644,0.0002162658098066533
1355.294927139377,1355.294927139377,1.0000315117276877,0.0002162706683826705
1355.3018717570676,1355.3018717570676,1.0000367591590196,0.00021628058190992547
1355.308816374665,1355.308816374665,1.000236500879519,0.00021628826398479998
1355.315760992216,1355.315760992216,1.0000305069012776,0.0002162818477426327
1355.322705609767,1355.322705609767,1.0001744344835348,0.00021629339207539033
1355.3296502271778,1355.3296502271778,1.0000840380310905,0.00021628635572454864
1355.337705983507,1355.337705983507,0.9996760497897312,0.00021625012990945746
1355.3449283856128,1355.3449283856128,1.0000875286598707,0.00021627381436346857
1355.3518730029307,1355.3518730029307,0.9996165788776024,0.00021623655923231065
1355.358817620109,1355.358817620109,1.0000843871866054,0.0002162803805082528
1355.3657622374735,1355.3657622374735,1.0002229421504794,0.0002163051033582266
1355.3727068546518,1355.3727068546518,0.9998536496036012,0.00021623182495719115
1355.3796514718301,1355.3796514718301,1.0002886321610305,0.0002163055539882515
1355.386596088962,1355.386596088962,0.9999635379558074,0.00021626281261692633
1355.3935407060935,1355.3935407060935,1.0001275117199941,0.0002162897180517052
1355.4018742465119,1355.4018742465119,1.0001047372459273,0.00021628254864762992
1355.4088188635037,1355.4088188635037,0.9998475954100643,0.0002162345007974039
1355.415763480496,1355.415763480496,1.0000806805231706,0.00021628550185485304
1355.4227080974415,1355.4227080974415,1.0001827128372693,0.00021629453983038608
1355.4296527142935,1355.4296527142935,0.9998266393495786,0.00021625110773842597
1355.436597331146,1355.436597331146,0.9999709278361125,0.00021626264024598548
1355.4435419479519,1355.4435419479519,0.9996545037551601,0.0002162342658545693
1355.450486564711,1355.450486564711,1.0002038754138218,0.00021628402398705368
1355.4574311813774,1355.4574311813774,1.000328269618437,0.0002163018351264843
1355.4643757980432,1355.4643757980432,0.9999041294050219,0.00021625388565911066
1355.4713204146628,1355.4713204146628,1.000073446206366,0.00021624296773672326
1355.4782650312359,1355.4782650312359,1.000480396456067,0.0002163013599072768
1355.4852096478085,1355.4852096478085,0.9996562292257541,0.000216218044205227
1355.4921542642885,1355.4921542642885,0.9995528823944593,0.000216216556413835
1355.499098880768,1355.499098880768,1.0001095557792414,0.00021626763780350637
1355.5060434971547,1355.5060434971547,0.9999808943219823,0.00021625218947819158
1355.5129881134949,1355.5129881134949,1.0000094400647197,0.00021625787875533442
1355.5199327298817,1355.5199327298817,0.9999360412314807,0.0002162416575316087
1355.5268773461285,1355.5268773461285,1.0002364452840011,0.0002162801241554086
1355.5338219623286,1355.5338219623286,1.000214141693243,0.00021627436932468284
1355.5407665785294,1355.5407665785294,0.9999098772489518,0.00021622068827708603
1355.5477111947296,1355.5477111947296,1.0002914231920577,0.00021629071772747725
1355.5546558108836,1355.5546558108836,0.9996625356862587,0.0002162117321180427
1355.5616004268977,1355.5616004268977,0.9999667512975272,0.00021626860975314043
1355.5685450429585,1355.5685450429585,0.9999565660600529,0.00021625600231342203
1355.575489658926,1355.575489658926,0.9997352747930309,0.00021625010078790336
1355.5824342748933,1355.5824342748933,0.9998083381635803,0.0002162225747551556
1355.5893788908145,1355.5893788908145,1.0001053576844547,0.0002162759283660891
1355.5963235066426,1355.5963235066426,1.0002334447947807,0.00021629419348522574
1355.6032681224701,1355.6032681224701,1.000111837414713,0.00021626142777908972
1355.6102127382514,1355.6102127382514,1.0000499096663742,0.000216254136202337
1355.6171573539864,1355.6171573539864,1.0000393595714512,0.0002162313979627405
1355.624101969674,1355.624101969674,0.9996012810461963,0.00021619827880093944
1355.6310465853626,1355.6310465853626,1.0003125131426358,0.00021624896039217867
1355.6379912009113,1355.6379912009113,1.0001563476057587,0.0002162634774025258
1355.6449358164596,1355.6449358164596,0.9995902845859058,0.0002161898603464722
1355.6518804320083,1355.6518804320083,0.9999115775250056,0.00021624073186204002
1355.6588250475102,1355.6588250475102,1.0000277904070907,0.00021624416639540872
1355.6657696629186,1355.6657696629186,1.000054548119253,0.0002162359492248381
1355.6727142782813,1355.6727142782813,1.0000457507177534,0.00021624961699350168
1355.6796588936431,1355.6796588936431,0.9996831135542907,0.0002162125636801164
1355.686603508959,1355.686603508959,1.0001106563840216,0.00021625731642119743
1355.6935481242283,1355.6935481242283,0.9997702642694695,0.0002162376290424538
1355.7004927394505,1355.7004927394505,1.0003470029101813,0.00021629187493568672
1355.7074373545802,1355.7074373545802,0.9999186280617156,0.0002162350925557925
1355.7143819698026,1355.7143819698026,1.0000715152698763,0.00021624496614911802
1355.7213265848384,1355.7213265848384,0.9996100255383432,0.00021620826188036056
1355.728271199875,1355.728271199875,1.0006143864785688,0.0002163087819188138
1355.735215814911,1355.735215814911,0.9998601428870056,0.0002162270823521393
1355.7424382145023,1355.7424382145023,0.9997555768736381,0.00021622363343941467
1355.7504939677583,1355.7504939677583,1.00015083924353,0.00021625492630546252
1355.7574385826078,1355.7574385826078,1.0000069967052043,0.00021625416528783158
1355.764383197458,1355.764383197458,0.9998100548432893,0.00021621898449915227
1355.7713278122615,1355.7713278122615,1.0001320991208835,0.00021625824333465458
1355.7782724269716,1355.7782724269716,1.000097972511084,0.00021624974177345346
1355.7852170416822,1355.7852170416822,0.9999289507836664,0.00021621064215330692
1355.7921616563458,1355.7921616563458,0.9998776693667775,0.00021621924971649797
1355.7991062709164,1355.7991062709164,0.9998564382441973,0.00021622648601992393
1355.8060508855335,1355.8060508855335,0.9998203329648405,0.00021623150777027716
1355.8129955000109,1355.8129955000109,1.0006666234488546,0.0002162835282502501
1355.8199401145819,1355.8199401145819,1.0000041455667144,0.0002162428263377041
1355.8268847289662,1355.8268847289662,0.999876012985988,0.00021622984877215368
1355.8338293433503,1355.8338293433503,0.9996854557507664,0.00021621575855515105
1355.8407739577347,1355.8407739577347,1.0000448221911207,0.00021624056998892474
1355.8477185720724,1355.8477185720724,1.0003866477460477,0.00021629283750936303
1355.854663186317,1355.854663186317,0.9996089352088585,0.0002162060289559044
1355.8616078005152,1355.8616078005152,1.0001595502537046,0.00021629157311478533
1355.8685524147133,1355.8685524147133,1.0001894177564745,0.00021628176476661839
