time,time,flux,flux_err
1543.9228107275628,1543.9228107275628,1.0000334216962383,0.00040647668728000197
1543.9316071606038,1543.9316071606038,0.9999481653672317,0.00040578932538013504
1543.9426721475681,1543.9426721475681,1.0001859054754973,0.00036987959991782683
1543.950450046436,1543.950450046436,0.9993751072638926,0.00036921732545868124
1543.9590612917518,1543.9590612917518,1.000064304347862,0.00036887995801235024
1543.9665614086716,1543.9665614086716,1.0002490465364984,0.0003685746004870449
1543.973505961463,1543.973505961463,1.0007894146598832,0.00036838238073500054
1543.980450514348,1543.980450514348,0.9996642900319179,0.0003677886249667371
1543.9873950672786,1543.9873950672786,1.0000236566310834,0.00036753409587922625
1543.9943396202566,1543.9943396202566,0.9998543837381053,0.00036713776230607354
1544.0012841733273,1544.0012841733273,0.9997343208838017,0.00036662977280657415
1544.008228726398,1544.008228726398,0.9996021243336175,0.00036642328686903406
1544.015173279516,1544.015173279516,1.0007068561167436,0.00036618210253737437
1544.0221178327727,1544.0221178327727,1.0000466598699138,0.0003657063493958871
1544.0290623859833,1544.0290623859833,0.9995876556692336,0.00036525874176337764
1544.0360069393334,1544.0360069393334,0.999732201857455,0.0003649249914614309
1544.042951492684,1544.042951492684,1.000510045161819,0.00036474731718608676
1544.049896046081,1544.049896046081,0.9996772470329942,0.00036431279158187144
1544.056840599617,1544.056840599617,0.9999869454356759,0.0003639454042982769
1544.0637851531073,1544.0637851531073,1.0003717948810789,0.00036376264598468486
1544.0707297066438,1544.0707297066438,0.9999320551435856,0.0003632987257704965
1544.0776742602734,1544.0776742602734,1.0007573379087744,0.00036320425524506646
1544.0846188139033,1544.0846188139033,0.9996038765349979,0.00036275768595282005
1544.0915633676257,1544.0915633676257,1.0004336029931067,0.0003625236281847459
1544.098507921349,1544.098507921349,0.9990100617784108,0.00036210717417955323
1544.1054524750714,1544.1054524750714,0.9999657334926843,0.00036190113962455137
1544.112397028934,1544.112397028934,0.9998446951347034,0.00036169792629371075
1544.11934158275,1544.11934158275,1.0003480216058773,0.0003615129475661898
1544.1262861366588,1544.1262861366588,0.999767688947523,0.00036114115057127706
1544.1332306906145,1544.1332306906145,1.0005332153104542,0.0003610677261265354
1544.1401752445236,1544.1401752445236,0.9994153223551185,0.0003609089402801942
1544.1471197984793,1544.1471197984793,1.0007010586710372,0.00036071100477570695
1544.1551754812035,1544.1551754812035,0.9997549764662288,0.0003603267710566539
1544.1623978173864,1544.1623978173864,0.9998831259326156,0.00036010408099188614
1544.169342371482,1544.169342371482,1.000187436221527,0.00036017047083580637
1544.1762869256233,1544.1762869256233,1.0002048666326138,0.0003599136744696672
1544.1832314797657,1544.1832314797657,0.9997228613070895,0.00035989986336504206
1544.190176033954,1544.190176033954,0.9998238184168511,0.00035978057862957034
1544.1971205881423,1544.1971205881423,0.9998830497925073,0.0003595980009662896
1544.2040651423777,1544.2040651423777,1.0004591498271,0.00035953752685798296
1544.2110096966587,1544.2110096966587,0.9999980361068284,0.00035936725062990244
1544.2179542509407,1544.2179542509407,0.9993860762672879,0.0003592384773475357
1544.2248988052688,1544.2248988052688,0.999999623682912,0.000359560889216131
1544.231843359597,1544.231843359597,1.0008412674897886,0.0003593539876052287
1544.2387879139249,1544.2387879139249,0.9998785518394563,0.0003592347859568594
1544.2457324682998,1544.2457324682998,0.9999363902123705,0.0003590848060642933
1544.2526770227207,1544.2526770227207,0.9997490716412883,0.0003590738268897561
1544.2596215771423,1544.2596215771423,1.000321525777313,0.0003590811174955386
1544.2665661315168,1544.2665661315168,0.9999493053833366,0.0003587826613237988
1544.2735106860314,1544.2735106860314,1.0003026095276466,0.00035887588459614875
1544.2804552405457,1544.2804552405457,0.9998932580282565,0.0003587928977974086
1544.2873997950603,1544.2873997950603,1.0003578691009878,0.00035879595441231385
1544.2943443495744,1544.2943443495744,0.999925585245806,0.00035859245273776587
1544.3012889040892,1544.3012889040892,0.9989583381705167,0.00035836408429099607
1544.3082334586034,1544.3082334586034,0.9997459474735984,0.0003582411507823104
1544.315178013118,1544.315178013118,1.0001526000147472,0.00035830054700074156
1544.3221225676323,1544.3221225676323,0.9999371610446962,0.00035801242414795715
1544.3290671221464,1544.3290671221464,1.000089470021611,0.00035794426057981355
1544.336011676894,1544.336011676894,1.0003613321459746,0.000357977193173876
1544.3429562314082,1544.3429562314082,1.0001978451289633,0.00035798473943961224
1544.349900785969,1544.349900785969,1.0002124742722691,0.0003577683483512846
1544.35684534067,1544.35684534067,0.9996862734082465,0.0003574391029061938
1544.3637898952306,1544.3637898952306,1.0001330064124894,0.0003574601422328106
1544.3707344499314,1544.3707344499314,0.9993761932809576,0.00035721466495570694
1544.3776790044926,1544.3776790044926,1.0000980302472169,0.00035715557979938516
1544.3846235591932,1544.3846235591932,1.0004819699499792,0.00035706616155108345
1544.3915681138474,1544.3915681138474,1.000508764525649,0.00035696918426879364
1544.3985126684545,1544.3985126684545,0.9995819229908054,0.0003567643683885603
1544.4054572232021,1544.4054572232021,1.0002103106768865,0.00035685641542958127
1544.4124017778563,1544.4124017778563,1.0002244801046718,0.0003564947850518181
1544.4193463324636,1544.4193463324636,1.000057356684827,0.00035637201011578926
1544.426290887211,1544.426290887211,0.999730121184132,0.00035634874151083487
1544.433235441865,1544.433235441865,0.9995610468839035,0.0003562101049024363
1544.4401799965658,1544.4401799965658,1.0001985256566817,0.00035625364587861134
1544.44712455122,1544.44712455122,0.9997618873861626,0.0003561261612854135
1544.454069105967,1544.454069105967,1.0007791714809549,0.00035607432063970273
1544.4610136606211,1544.4610136606211,0.9996842769346458,0.00035579989595843707
1544.4679582152753,1544.4679582152753,1.000106892903828,0.00035580298547970734
1544.4749027699759,1544.4749027699759,1.0002121695689465,0.00035572665480301097
1544.481847324723,1544.481847324723,0.9998265077354102,0.00035570100685711285
1544.488791879377,1544.488791879377,0.999959289485513,0.00035584769653731135
1544.4957364340312,1544.4957364340312,1.0002607208636907,0.0003556434756137906
1544.502680988732,1544.502680988732,0.9993924643518708,0.0003555881717904882
1544.5096255434325,1544.5096255434325,0.9997585298468744,0.00035554641280880373
1544.5165700980865,1544.5165700980865,1.0005981629552805,0.0003556408958635472
1544.5235146527407,1544.5235146527407,1.0003249141064932,0.000355611002797268
1544.5304592074413,1544.5304592074413,0.9993492371677668,0.00035545299210153805
1544.5374037620954,1544.5374037620954,0.9999745144248605,0.0003555199450417378
1544.5443483167496,1544.5443483167496,1.0003447889978436,0.0003554098689652926
1544.5512928714038,1544.5512928714038,0.9998788158722876,0.00035534682875863364
1544.558237426011,1544.558237426011,1.0000931299462494,0.0003552888689558545
1544.5651819807122,1544.5651819807122,0.999709848842443,0.00035535503524806056
1544.5721265352727,1544.5721265352727,1.0001898330981582,0.00035514715979354677
1544.5790710899735,1544.5790710899735,1.0006489401849743,0.0003552807774188275
1544.5860156445344,1544.5860156445344,0.9999997148196973,0.0003551783423767799
1544.5929601991418,1544.5929601991418,1.0000501212493138,0.0003550974817873833
1544.599904753796,1544.599904753796,0.999759935011663,0.00035499592888847833
1544.60684930831,1544.60684930831,1.000251816395907,0.00035503554327542374
1544.6137938629176,1544.6137938629176,0.9997936669921856,0.000354988572809675
1544.6207384175723,1544.6207384175723,1.0002035737369475,0.00035503942744808276
1544.6276829720866,1544.6276829720866,0.9998501799485716,0.00035512070406677033
1544.634627526601,1544.634627526601,1.0005662680164886,0.00035508195469380967
1544.6429609920183,1544.6429609920183,0.9997293012373397,0.0003548534031733459
1544.6499055465326,1544.6499055465326,0.9999226109961136,0.00035497617083371264
1544.656850101047,1544.656850101047,0.9995033965962218,0.0003548321579008782
1544.6637946555613,1544.6637946555613,1.0000764632858277,0.0003549275824050402
1544.6707392100757,1544.6707392100757,1.0000492023015388,0.00035490897203750097
1544.6776837645898,1544.6776837645898,1.0000234386732187,0.00035487130246019495
1544.6846283190116,1544.6846283190116,1.0000350952906871,0.00035492774735168704
1544.6915728733861,1544.6915728733861,1.0000950194660636,0.000354918148590406
1544.6985174279005,1544.6985174279005,1.0001224040068446,0.00035492549684887126
1544.7054619822752,1544.7054619822752,1.0005620730753706,0.0003548839404573283
1544.7124065366966,1544.7124065366966,0.9999673333612209,0.00035480340616214406
1544.7193510910245,1544.7193510910245,0.9995789258994006,0.0003546648040246428
1544.7262956454458,1544.7262956454458,0.9995770752331378,0.0003546009992598967
1544.7332401997742,1544.7332401997742,0.9996862648005894,0.00035492238615169317
1544.7401847541023,1544.7401847541023,1.000008833601824,0.00035475897192339793
1544.7471293084304,1544.7471293084304,1.0002950788414442,0.000354845243085963
1544.7540738627583,1544.7540738627583,1.0000856489249372,0.00035474484094125483
1544.7610184170398,1544.7610184170398,1.0001584499240268,0.00035471061059142177
1544.767962971275,1544.767962971275,1.000006118217545,0.0003547019043426119
1544.7749075255565,1544.7749075255565,1.0001185871746854,0.00035475901738740956
1544.7818520797916,1544.7818520797916,0.999431669623949,0.0003547020925188393
1544.78879663398,1544.78879663398,1.0003391131207577,0.0003548157303053177
1544.7957411881682,1544.7957411881682,0.999923904527666,0.00035459643172826755
1544.802685742357,1544.802685742357,1.0000614678786586,0.00035454467194198603
1544.8096302964984,1544.8096302964984,1.0002372425589288,0.0003545719668168996
1544.816574850594,1544.816574850594,1.0000484834261347,0.0003545353300750431
1544.8235194047356,1544.8235194047356,1.0002025258268283,0.0003545290884090032
1544.830463958831,1544.830463958831,0.9994806030762163,0.0003545505258525733
1544.8374085128794,1544.8374085128794,1.000085552654502,0.00035458183427382686
1544.8443530669283,1544.8443530669283,1.000143633394495,0.0003545562069558574
1544.8512976209772,1544.8512976209772,0.9998426040563,0.00035466943047967144
1544.8582421749793,1544.8582421749793,1.0002209542349108,0.0003544466451359925
1544.8651867289816,1544.8651867289816,0.999461392552172,0.0003543725472675948
1544.8721312828907,1544.8721312828907,0.9999416765157776,0.00035451442645181684
1544.8790758368461,1544.8790758368461,1.0004763578103684,0.00035445530515795006
1544.8860203907552,1544.8860203907552,1.0000948596696386,0.00035444936442951126
1544.892964944711,1544.892964944711,0.9999783832892672,0.00035432186351240985
1544.8999094985268,1544.8999094985268,1.0000739495906252,0.0003543505943066771
1544.906854052389,1544.906854052389,0.9997824005621332,0.00035426867498878137
1544.9137986062049,1544.9137986062049,1.0000135940666124,0.0003543655488000255
1544.920743160021,1544.920743160021,0.9995899115212428,0.00035419106335393073
1544.9276877137436,1544.9276877137436,1.0003590973238974,0.00035432681496132734
1544.934632267513,1544.934632267513,1.0004994923703512,0.0003543161627087529
1544.9415768212355,1544.9415768212355,0.999934722873862,0.0003541397370020095
1544.9485213749588,1544.9485213749588,0.999510821178573,0.0003539658851641683
1544.9554659285882,1544.9554659285882,0.9999607107885977,0.00035398383864188076
1544.9624104822642,1544.9624104822642,0.99974987219728,0.0003540292660345205
1544.9693550358938,1544.9693550358938,1.0003003669363721,0.0003540695619204683
1544.9762995894773,1544.9762995894773,1.0001385401194844,0.00035410473847193675
1544.9832441430133,1544.9832441430133,1.0000588322988315,0.00035402257583513604
1544.9901886965501,1544.9901886965501,1.0003200423399379,0.00035399959633666887
1544.997133250133,1544.997133250133,0.9999095583818797,0.0003538725782465439
1545.0040778035768,1545.0040778035768,0.9998249669397792,0.00035389781239680525
1545.0110223570662,1545.0110223570662,0.9996598500026831,0.00035382355394502404
1545.0179669104166,1545.0179669104166,0.9997998258315104,0.00035392061493147903
1545.0249114639064,1545.0249114639064,1.0002393464897565,0.0003539064263258744
1545.0318560173498,1545.0318560173498,0.9997103152011478,0.00035384788019550303
1545.0388005706998,1545.0388005706998,0.9999842714268296,0.000353858747862252
1545.0457451239108,1545.0457451239108,1.0006294064099026,0.0003538838285408964
1545.0526896771676,1545.0526896771676,0.9998628039976065,0.0003538808633475203
1545.0596342305178,1545.0596342305178,1.0003052481642098,0.00035377668540160525
1545.066578783682,1545.066578783682,0.9998840316152758,0.0003538407563474427
1545.0735233369392,1545.0735233369392,1.0000819215471672,0.0003537572725628225
1545.080467890103,1545.080467890103,1.0000545028956878,0.00035369759510355876
1545.0874124432205,1545.0874124432205,0.9994543319373941,0.0003536228116900043
1545.0943569963842,1545.0943569963842,1.0001865818613123,0.00035364870200019465
1545.1013015494088,1545.1013015494088,0.9998255363988171,0.0003537216004695131
1545.1082461024794,1545.1082461024794,0.9995716619524654,0.00035363682577109565
1545.1151906555501,1545.1151906555501,1.0001321469951854,0.000353601233680425
1545.1221352084815,1545.1221352084815,1.000278789091666,0.00035354845570463865
1545.1290797614588,1545.1290797614588,1.0003384805424247,0.00035362913328433013
1545.1360243144368,1545.1360243144368,1.0002911151384868,0.00035371938224783934
1545.1429688673215,1545.1429688673215,0.9997527532684238,0.0003534745903172312
1545.1499134201592,1545.1499134201592,1.0000702005898305,0.00035363984488669136
1545.1568579730442,1545.1568579730442,0.9999225260816467,0.0003535478882988886
1545.1638025258355,1545.1638025258355,1.000177050044623,0.00035343225506244766
1545.1707470785798,1545.1707470785798,1.0000178746710984,0.0003533983161070875
1545.1776916313715,1545.1776916313715,0.999883015288756,0.00035353349650293534
1545.1846361840696,1545.1846361840696,0.9994821248001886,0.00035341848811703305
1545.1915807367218,1545.1915807367218,1.0002692765841081,0.00035342920226740903
1545.1985252893733,1545.1985252893733,0.999731412826028,0.0003532184225828874
1545.2054698420252,1545.2054698420252,1.0005278214719346,0.00035351472856317125
1545.2124143945837,1545.2124143945837,0.9993197486133372,0.0003531937872724759
1545.2193589471424,1545.2193589471424,1.0003599620987942,0.0003533093069101919
1545.2263034996543,1545.2263034996543,0.9999704781504842,0.000353236466922656
1545.2332480521197,1545.2332480521197,0.9995364472995527,0.000353267734350703
1545.2401926045386,1545.2401926045386,1.0003686799231875,0.0003532654077208717
1545.2471371569575,1545.2471371569575,1.0003062076424618,0.00035335834901455983
1545.2540817093766,1545.2540817093766,0.9996453297824266,0.0003531981476198231
1545.2610262616556,1545.2610262616556,1.000149731434854,0.0003531900615531975
1545.2679708140279,1545.2679708140279,1.0007238219476073,0.0003532690087399907
1545.2749153662141,1545.2749153662141,1.0002611721387695,0.0003532799792195554
1545.2818599185398,1545.2818599185398,0.9999581721210395,0.00035317398888910653
1545.2888044708193,1545.2888044708193,0.9999923475918029,0.0003531991061413642
1545.2957490229119,1545.2957490229119,0.9997607847554809,0.0003531191701402028
1545.3026935749583,1545.3026935749583,0.9995027034796552,0.00035316983917456216
1545.3096381271446,1545.3096381271446,0.9996117026087452,0.00035312720761411504
1545.3165826791908,1545.3165826791908,0.9998469422313928,0.00035306006204849073
1545.3235272312372,1545.3235272312372,1.0003032182338862,0.00035323683018453433
1545.3304717832368,1545.3304717832368,1.0001994754831958,0.0003532448915569969
1545.3374163351905,1545.3374163351905,1.0002896940632775,0.0003533862253458235
1545.3443608870966,1545.3443608870966,0.9995775217124063,0.00035307895900615703
1545.3513054390037,1545.3513054390037,1.0001157994131658,0.00035319443005814636
1545.3582499908168,1545.3582499908168,1.0002056814498492,0.0003531827963113035
1545.3651945426304,1545.3651945426304,0.9998268591247307,0.0003530423343246473
1545.3721390943974,1545.3721390943974,0.9997949263742683,0.0003530391070214384
1545.3790836461642,1545.3790836461642,1.0003073626158359,0.0003531751002708174
1545.3860281978848,1545.3860281978848,0.9996837040429651,0.0003530828777844869
1545.3929727495586,1545.3929727495586,1.000569461012226,0.00035317983061019425
1545.399917301186,1545.399917301186,1.0001278426815976,0.0003530222904585906
1545.406861852813,1545.406861852813,0.9993603756985859,0.00035291012860701974
1545.4138064043009,1545.4138064043009,0.9996353967469187,0.0003530410871608676
1545.420750955835,1545.420750955835,1.0002151167662165,0.0003530115993580557
1545.4276955073224,1545.4276955073224,0.9998286914818106,0.0003530607531299848
1545.434640058717,1545.434640058717,1.0000642718683175,0.00035304889701558964
1545.4415846101579,1545.4415846101579,1.000321052078665,0.00035296401767362145
1545.4485291615058,1545.4485291615058,1.0002555840343637,0.00035296416999801587
1545.455473712854,1545.455473712854,1.0002185832732622,0.0003529964300301037
1545.462418264155,1545.462418264155,1.0002117507885306,0.0003529692043384339
1545.4693628154096,1545.4693628154096,0.9996419852556905,0.0003529903567423342
1545.4763073665713,1545.4763073665713,0.99970127138577,0.00035296393275098883
1545.483251917826,1545.483251917826,0.9999379897781683,0.0003529591855168096
1545.4901964688477,1545.4901964688477,0.9998034306189669,0.00035287523047013343
1545.4971410201028,1545.4971410201028,0.9997433013472241,0.0003529647222104004
1545.5040855711245,1545.5040855711245,0.9997498228441847,0.00035297214177031815
1545.5110301221466,1545.5110301221466,1.0005412023471008,0.00035308614373115595
1545.517974673122,1545.517974673122,1.0001207559552188,0.0003530013405955325
1545.5249192239576,1545.5249192239576,1.0002214407194552,0.0003531959186867062
1545.5318637749328,1545.5318637749328,1.0005198700940021,0.0003531169402709121
1545.5388083257687,1545.5388083257687,1.0002587859300607,0.0003531990042394106
1545.545752876604,1545.545752876604,0.9993736688043349,0.0003529741262636412
1545.5526974273932,1545.5526974273932,0.9996008605253275,0.0003529452845926256
1545.559641978089,1545.559641978089,1.0006975315892865,0.00035305660507105546
1545.5665865288315,1545.5665865288315,0.9996379215650771,0.00035292533505684997
1545.573531079481,1545.573531079481,1.0001511756873895,0.0003530004474733597
1545.58047563013,1545.58047563013,1.0002092693606177,0.00035305215844465287
1545.5874201806869,1545.5874201806869,1.0000006311086378,0.0003529549127205693
1545.5943647312429,1545.5943647312429,1.000448844450339,0.0003529869439495046
1545.6013092817525,1545.6013092817525,0.999957886939729,0.0003530979204969632
1545.6082538322157,1545.6082538322157,1.0005371361669533,0.00035315182218328695
1545.6151983826323,1545.6151983826323,0.9999614682982342,0.0003529910661230779
1545.622142933002,1545.622142933002,0.9998384672936691,0.00035304290981288744
1545.6290874833255,1545.6290874833255,0.9997596707906455,0.0003529040251495575
1545.636032033649,1545.636032033649,0.9997847220671575,0.00035304462264489094
1545.6429765838793,1545.6429765838793,0.9999484540583344,0.00035300577791099374
1545.64992113411,1545.64992113411,0.999921352696313,0.0003530303859199158
1545.656865684247,1545.656865684247,0.9996991046581039,0.00035290845488355625
1545.6638102344302,1545.6638102344302,1.0000796151568676,0.00035311794561111633
1545.6707547844749,1545.6707547844749,1.000587548611199,0.00035313863167196595
1545.6776993345647,1545.6776993345647,1.0001859567001705,0.00035302816934611647
1545.6846438845623,1545.6846438845623,0.9997861826831544,0.0003530460346164993
