time,time,flux,flux_err
1385.954365653365,1385.954365653365,1.0000567305894534,0.0017614661090736162
1385.9626990890808,1385.9626990890808,1.0010036916398282,0.001762196241594322
1385.9703380717287,1385.9703380717287,0.9982281672726447,0.001607424875117439
1385.9772826013636,1385.9772826013636,0.9987729072513906,0.0016067862969468382
1385.984227130999,1385.984227130999,1.0038306650660143,0.001608010247608546
1385.9911716605875,1385.9911716605875,1.0007663660884571,0.0016070256305962115
1385.9981161900355,1385.9981161900355,0.9973252026285391,0.0016054270346511066
1386.0050607194848,1386.0050607194848,0.999296038555185,0.0016056195639999973
1386.012005248887,1386.012005248887,1.0000840694788196,0.0016059325838672974
1386.0189497781953,1386.0189497781953,0.9991586865778205,0.0016057781894473996
1386.025894307505,1386.025894307505,1.0006026487020532,0.0016058175775417096
1386.0328388367213,1386.0328388367213,0.9999741032646263,0.001605830648899367
1386.0397833659367,1386.0397833659367,0.9991850895643999,0.0016050471320311246
1386.0467278950596,1386.0467278950596,0.9999062750231967,0.0016063825597079965
1386.0536724241363,1386.0536724241363,1.0021972582065648,0.0016070711640259294
1386.0606169532123,1386.0606169532123,1.0008151157727974,0.001606161740694752
1386.0675614821484,1386.0675614821484,0.9988091933578833,0.0016049932438751842
1386.074506011039,1386.074506011039,1.000196621610204,0.0016050906035384928
1386.0814505399287,1386.0814505399287,0.9986895464251484,0.0016046584678691476
1386.088395068818,1386.088395068818,0.9977946885896707,0.0016048333730794174
1386.095339597569,1386.095339597569,0.9991310372262081,0.0016048881434120392
1386.102284126319,1386.102284126319,1.003496163927926,0.0016070768312661803
1386.1092286549758,1386.1092286549758,0.9996205907549731,0.0016053565554576782
1386.1161731835869,1386.1161731835869,1.0026088047330692,0.0016067862697588028
1386.1231177121977,1386.1231177121977,1.0027806556761205,0.001607284913293956
1386.1300622406677,1386.1300622406677,0.9989060302392507,0.0016053995654724575
1386.1370067691391,1386.1370067691391,0.9986476177127281,0.0016058901504571118
1386.143951297564,1386.143951297564,0.9989186182956967,0.001606069986118586
1386.1508958259408,1386.1508958259408,1.001217686735326,0.0016066126300677368
1386.1578403542721,1386.1578403542721,0.9994372763674839,0.00160671289412328
1386.164784882464,1386.164784882464,1.0011068396946778,0.0016076382750040527
1386.1717294107016,1386.1717294107016,0.9988542794793513,0.0016068184269037989
1386.178673938893,1386.178673938893,1.001304304138999,0.0016065123075924698
1386.1856184669919,1386.1856184669919,0.9988811032299383,0.0016058967355177308
1386.1925629950433,1386.1925629950433,0.9974365264120608,0.0016052491589177496
1386.1995075230484,1386.1995075230484,1.0000734880502304,0.0016060771505576952
1386.2064520510073,1386.2064520510073,0.9977540876518278,0.0016041922767362586
1386.2133965789199,1386.2133965789199,1.000221960940098,0.001605125509386836
1386.2203411067844,1386.2203411067844,1.0022834613948455,0.0016064572341999276
1386.2272856345107,1386.2272856345107,1.0008215668637916,0.0016045581815874893
1386.2342301622368,1386.2342301622368,1.0033462338428611,0.0016061641867670725
1386.241174689962,1386.241174689962,0.9984844832514351,0.0016041424007933493
1386.248119217688,1386.248119217688,0.9966574529993242,0.0016037287982285848
1386.2550637452746,1386.2550637452746,0.9989999090005657,0.0016043486083774394
1386.2620082728604,1386.2620082728604,0.9995012847118054,0.0016034004811685209
1386.2689528003066,1386.2689528003066,0.9996289055202008,0.0016037475894480064
1386.2758973278,1386.2758973278,0.9993511482775105,0.0016033458918042558
1386.2828418551533,1386.2828418551533,0.9989327270728765,0.001604086155633333
1386.289786382506,1386.289786382506,1.0026958042703902,0.0016054074036366641
1386.296730909813,1386.296730909813,1.0004616505873472,0.0016039425489853439
1386.3036754370737,1386.3036754370737,0.9991325452600277,0.0016037625541175688
1386.3106199642395,1386.3106199642395,1.0002556398885205,0.0016044257263591883
1386.3175644914072,1386.3175644914072,1.001945140677466,0.0016048063372500667
1386.3245090184814,1386.3245090184814,1.0009923584298772,0.0016047652618458173
1386.3314535455079,1386.3314535455079,0.9992595743144552,0.0016047626855133193
1386.3383980725357,1386.3383980725357,0.9975335455172022,0.0016047010887110813
1386.3453425994703,1386.3453425994703,0.9998754656360143,0.0016056694024248175
1386.352287126311,1386.352287126311,1.0013030866976105,0.0016068887947361214
1386.3592316531988,1386.3592316531988,1.0004640376876803,0.0016074042546582918
1386.3667317421184,1386.3667317421184,0.9971953232011174,0.0016060242076367903
1386.3745096120535,1386.3745096120535,1.0003441589903768,0.0016065675907626416
1386.381454138708,1386.381454138708,1.0008553303303718,0.001606897156731562
1386.3883986654098,1386.3883986654098,0.9988935770808576,0.0016058115150824278
1386.395343191972,1386.395343191972,1.000490631653744,0.001606721446990827
1386.402287718486,1386.402287718486,0.9988729391701037,0.0016061882425584604
1386.4092322448616,1386.4092322448616,1.0000545648725354,0.0016066089830332364
1386.4161767713308,1386.4161767713308,1.0021315648153593,0.0016071590581758347
1386.4231212977054,1386.4231212977054,1.0009937649323013,0.0016069183154712584
1386.4300658239881,1386.4300658239881,1.000886529276516,0.0016068611152490774
1386.4370103502706,1386.4370103502706,1.0012892825372854,0.0016066366680116758
1386.4439548765063,1386.4439548765063,0.9971340955545596,0.0016063661033711818
1386.450899402695,1386.450899402695,1.0012712460943205,0.0016075469408046018
1386.4578439287914,1386.4578439287914,0.9959647780004026,0.0016055498654498838
1386.4647884548408,1386.4647884548408,1.0009094041568802,0.0016070656274482606
1386.4717329808434,1386.4717329808434,1.0004216935115369,0.001607837619407999
1386.4786775068,1386.4786775068,0.999820284851398,0.0016076551577246065
1386.4856220327565,1386.4856220327565,1.0005891859482798,0.0016075334310581546
1386.4925665586188,1386.4925665586188,1.0006480207906687,0.0016076210033853708
1386.4995110844357,1386.4995110844357,0.9989636875065087,0.0016065111369325507
1386.5064556102063,1386.5064556102063,1.0013209750446501,0.0016072116848223673
1386.5134001359295,1386.5134001359295,1.0006432054603385,0.0016074436709151204
1386.5203446615594,1386.5203446615594,0.9986726942835572,0.0016060801935596444
1386.5272891871905,1386.5272891871905,0.9992653055827088,0.001606182876931174
1386.5342337127274,1386.5342337127274,1.0026072057396134,0.0016077737580276797
1386.5411782382641,1386.5411782382641,0.9987239154612819,0.0016061664975586098
1386.5481227637554,1386.5481227637554,0.9988733647816839,0.0016064140626225812
1386.5550672891534,1386.5550672891534,1.000437285732806,0.0016073266668965823
1386.562289595566,1386.562289595566,1.0005445059659734,0.0016070870280079895
1386.5703452447947,1386.5703452447947,0.9994862582084858,0.0016064363054073133
1386.5772897700995,1386.5772897700995,1.000848294069323,0.0016075513203900199
1386.5842342953104,1386.5842342953104,0.998798878939238,0.0016060094444136045
1386.591178820428,1386.591178820428,1.00144452029379,0.0016067045040776776
1386.5981233455464,1386.5981233455464,0.9976932551197617,0.001605244682180415
1386.6050678706183,1386.6050678706183,1.0011929439624663,0.0016065335753237347
1386.612012395596,1386.612012395596,0.9987603626573834,0.0016056703733604214
1386.6189569205283,1386.6189569205283,0.9991778590367403,0.0016056782393677853
1386.6259014454606,1386.6259014454606,1.0031031690192838,0.001607735520538695
1386.6328459702984,1386.6328459702984,1.001016796293102,0.0016073567730372183
1386.6397904950913,1386.6397904950913,1.0018555665387656,0.001607669701679212
1386.6467350197904,1386.6467350197904,0.9985448764712233,0.0016064410975155652
1386.6536795445356,1386.6536795445356,0.9981576752866014,0.001606424120083368
1386.6606240691417,1386.6606240691417,0.9983460786001082,0.001605514218645578
1386.6675685937475,1386.6675685937475,0.9996811564009572,0.0016061750956643487
1386.6745131182604,1386.6745131182604,0.9997808524525329,0.0016066217093972848
1386.6814576427728,1386.6814576427728,0.9998163140129117,0.0016063803588044685
1386.688402167239,1386.688402167239,1.0005709726293275,0.0016076053566218373
1386.6953466916593,1386.6953466916593,1.0011097023859592,0.0016067824334441826
1386.7022912159382,1386.7022912159382,1.0027667033485375,0.0016060134104789077
1386.709235740172,1386.709235740172,0.9992568781549032,0.0016061164886599355
1386.716180264406,1386.716180264406,0.9993186915160555,0.0016056375169483665
1386.723124788639,1386.723124788639,0.9991641667022954,0.0016053394910501887
1386.730069312872,1386.730069312872,0.9991019517636527,0.0016052169320557627
1386.7370138369195,1386.7370138369195,1.0022001974608579,0.0016066288792049518
1386.743958360967,1386.743958360967,0.9990467704097845,0.0016056055074013624
1386.7509028849668,1386.7509028849668,1.0002370569967256,0.0016058355334917316
1386.757847408921,1386.757847408921,0.9995487002928176,0.0016059361357124082
1386.7647919327821,1386.7647919327821,0.9974033589971016,0.001604501254354191
1386.7720142376122,1386.7720142376122,0.9996901207067799,0.0016053840293808383
1386.7800698852104,1386.7800698852104,1.0013077033683921,0.0016061007429789605
1386.7870144089318,1386.7870144089318,1.000506707187733,0.0016060033452976376
1386.7939589326065,1386.7939589326065,1.0019154166359219,0.0016068881827795618
1386.8009034562806,1386.8009034562806,1.0012940247875945,0.0016068280804649039
1386.8078479798157,1386.8078479798157,0.9999416326693054,0.0016067713293090296
1386.814792503351,1386.814792503351,0.9990521686150302,0.00160612767013633
1386.8217370268385,1386.8217370268385,0.9974283406664217,0.001605980612933365
1386.828681550281,1386.828681550281,0.9993953890111673,0.0016068728079292236
1386.835626073676,1386.835626073676,1.0018301323615546,0.001608056426738692
1386.842570596978,1386.842570596978,1.0008669690649927,0.0016079831777993932
1386.8495151202799,1386.8495151202799,0.999061081782634,0.0016071732474829397
1386.8564596434426,1386.8564596434426,1.000081285886632,0.0016075731003382554
1386.8634041667449,1386.8634041667449,0.9994879963219446,0.0016071886802503388
1386.8703486898135,1386.8703486898135,0.9999385094045895,0.0016077565395897155
1386.8772932128827,1386.8772932128827,0.9994800792173295,0.0016067631546904135
1386.8842377359526,1386.8842377359526,1.0000583897291861,0.001607385885399632
1386.891182258928,1386.891182258928,1.0010047684255234,0.00160745664736084
1386.8981267818576,1386.8981267818576,1.0016252507783125,0.0016084182952739202
1386.9050713046945,1386.9050713046945,0.9997676683980549,0.0016073111925700336
1386.9120158275775,1386.9120158275775,1.00031350278926,0.0016066091420036447
1386.91896035032,1386.91896035032,0.9976157505099057,0.0016059508336120105
1386.9259048730637,1386.9259048730637,1.0016727352650503,0.0016067173898333814
1386.9328493957141,1386.9328493957141,1.0010186070231226,0.0016063455885751913
1386.9397939184105,1386.9397939184105,1.001560769542919,0.0016063083255376926
1386.9467384409672,1386.9467384409672,0.9992001368030218,0.0016056927103849298
1386.9536829635247,1386.9536829635247,0.9984030194525328,0.0016062936092868393
1386.9606274859884,1386.9606274859884,0.9990146429563194,0.0016065104148873769
1386.9675720084053,1386.9675720084053,1.0021721958206546,0.0016064801998348847
1386.974516530823,1386.974516530823,1.0018480886426802,0.0016071263981765418
1386.982294395823,1386.982294395823,0.999824974982117,0.0016064293339711146
1386.9897944798988,1386.9897944798988,0.9981919625836545,0.00160534487630037
1386.9967390020834,1386.9967390020834,0.998105177277751,0.001606039919478101
1387.0036835242681,1387.0036835242681,1.0012550757341814,0.0016075035215643632
1387.0106280464056,1387.0106280464056,1.0024611529460306,0.0016084845958660777
1387.01757256845,1387.01757256845,0.9989366191674748,0.001605993606769204
1387.0245170905418,1387.0245170905418,1.0006182243843225,0.001607565553644766
1387.0314616124474,1387.0314616124474,0.9984697779334446,0.0016067417354093155
1387.0384061343518,1387.0384061343518,0.9995962144785743,0.0016075714728624538
1387.0453506562571,1387.0453506562571,1.0003133040685213,0.0016069797886231296
1387.0522951781627,1387.0522951781627,0.9988045451563214,0.0016071050637110056
1387.0592396998347,1387.0592396998347,1.001102112129206,0.00160743904866378
1387.0661842215995,1387.0661842215995,1.0021406336477003,0.0016081238164786787
1387.0731287432723,1387.0731287432723,0.9992026454724762,0.0016069407696194817
1387.0800732649448,1387.0800732649448,0.9992292072844737,0.0016071363122944105
1387.0870177864765,1387.0870177864765,1.0019501492075045,0.0016084278448473548
1387.0939623080562,1387.0939623080562,0.9985916822752703,0.0016059634203996528
1387.1009068294957,1387.1009068294957,0.9975336037567544,0.0016059247016395758
1387.1078513509353,1387.1078513509353,1.000514701386978,0.0016074631943538361
1387.1147958723275,1387.1147958723275,1.0004383466851863,0.001607233919715367
1387.121740393674,1387.121740393674,1.0041804680409605,0.0016092429170390219
1387.1286849149278,1387.1286849149278,1.0007856683309198,0.0016079233376931526
1387.1356294361801,1387.1356294361801,0.9995468386553785,0.0016071938932075845
1387.1425739573401,1387.1425739573401,0.999738041828714,0.0016072402586842088
1387.1495184784542,1387.1495184784542,0.9997650971555307,0.0016076007650598976
1387.1564629995673,1387.1564629995673,0.9993127098621534,0.0016084583387736278
1387.1634075205873,1387.1634075205873,0.9971965910880327,0.001606437614873992
1387.1703520415617,1387.1703520415617,1.0007736744388431,0.0016092501363789264
1387.1772965624891,1387.1772965624891,1.0020274360076458,0.0016095640813275978
1387.1842410834158,1387.1842410834158,1.002141228713487,0.0016093393169299593
1387.1911856041565,1387.1911856041565,0.9986647274798507,0.0016084035850030018
1387.198130124898,1387.198130124898,0.9981192303466205,0.0016078663197169614
1387.2050746456393,1387.2050746456393,1.0004836358560611,0.00160885277552966
1387.212019166379,1387.212019166379,0.9997942471808827,0.001608320487453582
1387.2189636871203,1387.2189636871203,0.9993493753412268,0.0016076577949477144
1387.225908207629,1387.225908207629,0.9993766998244753,0.0016076932305743308
1387.2328527281834,1387.2328527281834,0.9999560589913497,0.0016073381928189312
1387.2397972486913,1387.2397972486913,1.0016635354483459,0.001608136500566823
1387.2467417691064,1387.2467417691064,1.0001912281895957,0.0016070084426122858
1387.2536862895217,1387.2536862895217,1.00000625463286,0.001606292902587156
1387.260630809843,1387.260630809843,1.000272824843107,0.0016061234874185956
1387.2675753301185,1387.2675753301185,0.9991429789983519,0.0016053130746563685
1387.274519850394,1387.274519850394,1.0005845996158969,0.0016067380700203794
1387.2814643705758,1387.2814643705758,0.9998467976862155,0.00160601179861938
1387.2884088907576,1387.2884088907576,1.0006374186751708,0.0016056377451561937
1387.2953534108005,1387.2953534108005,1.0004733801039625,0.0016064121016069288
1387.3022979308432,1387.3022979308432,0.9985784563193508,0.0016054799439113704
1387.310075793234,1387.310075793234,1.0020407172426515,0.0016068579493186321
1387.3186869979286,1387.3186869979286,0.9996510853872567,0.0016061659844374642
1387.325909298615,1387.325909298615,0.9981883760129573,0.001605064684997281
1387.33368716082,1387.33368716082,0.9967649997932971,0.0016045109929688287
1387.341187242149,1387.341187242149,1.0026344918109307,0.001606594373435122
1387.3484095427425,1387.3484095427425,1.000557415259959,0.001605924906918008
1387.3564651854515,1387.3564651854515,0.9995201660154562,0.0016055433227064539
1387.3634097050276,1387.3634097050276,0.9999838191738043,0.0016059085055883386
1387.3703542246046,1387.3703542246046,0.9986130213762319,0.0016050643424636904
1387.3772987441819,1387.3772987441819,1.0036016530433485,0.0016072081961184797
1387.3842432636184,1387.3842432636184,0.9976346936568206,0.0016053839735599665
1387.3911877830553,1387.3911877830553,0.9996858675774174,0.0016060644618003162
1387.3981323023995,1387.3981323023995,0.9980215167699458,0.0016050766525721092
1387.4050768216973,1387.4050768216973,1.0008024283401291,0.0016069429765341934
1387.4120213409938,1387.4120213409938,0.9986078795708002,0.001606071570189927
1387.4189658601522,1387.4189658601522,1.000944930239201,0.0016071687789868043
1387.4259103793563,1387.4259103793563,1.0001220995559899,0.001606698597625688
1387.4328548984674,1387.4328548984674,1.0027046062531588,0.0016072773134186455
1387.4397994175317,1387.4397994175317,0.9999568347245582,0.0016061707015019543
1387.4467439365035,1387.4467439365035,0.9977369412039959,0.001605788211365353
1387.453688455522,1387.453688455522,0.9996714638002098,0.0016066021124085104
1387.460632974446,1387.460632974446,1.001901477739608,0.0016064927419528394
1387.4675774933244,1387.4675774933244,0.997670802449916,0.0016054806202472544
1387.47452201211,1387.47452201211,1.0008369432764395,0.0016068872511437239
1387.4814665309418,1387.4814665309418,0.997856976127512,0.0016053081241082256
1387.488411049633,1387.488411049633,1.0003253791560707,0.0016060846891051913
1387.4953555682791,1387.4953555682791,0.9996259582935053,0.0016062490264470582
1387.5023000869246,1387.5023000869246,1.0021121291508481,0.0016076811553801269
1387.5092446054769,1387.5092446054769,1.0005901533523238,0.001606614257441536
1387.5161891240755,1387.5161891240755,0.9980201039563141,0.0016055235770562233
1387.5231336424886,1387.5231336424886,0.998733626743272,0.0016053967398809033
1387.5300781609014,1387.5300781609014,0.9989561588769773,0.0016056304453106577
1387.5370226793136,1387.5370226793136,1.0024760581220835,0.001606332129206112
1387.5439671976328,1387.5439671976328,0.9995820495748555,0.0016058312865795637
1387.5509117159065,1387.5509117159065,1.002336530107593,0.0016070103462388554
1387.557856234133,1387.557856234133,0.9985025733489319,0.0016058496317201906
1387.5648007523118,1387.5648007523118,0.9987103974631134,0.0016059902586200796
1387.5717452704455,1387.5717452704455,0.9994010537048356,0.001606475443125176
1387.5786897885323,1387.5786897885323,1.0010149446183403,0.0016067153338042012
1387.5856343065727,1387.5856343065727,0.9987812823321136,0.0016062017659604342
1387.5925788245654,1387.5925788245654,1.0005892275803145,0.0016063185075793737
1387.5995233425128,1387.5995233425128,0.9993260205559755,0.0016055797354756617
1387.606467860367,1387.606467860367,1.0003609163119411,0.0016063897879438978
1387.613412378174,1387.613412378174,1.0015917012655813,0.0016063038024958852
1387.6203568960275,1387.6203568960275,1.0000229931593663,0.0016059539047180796
1387.6273014137425,1387.6273014137425,1.0000646042976,0.0016060563278725306
1387.6342459314103,1387.6342459314103,0.9996983899517549,0.001606435941665552
1387.6411904490772,1387.6411904490772,0.9995172764641016,0.0016061733942480398
1387.6481349666515,1387.6481349666515,1.0006219993199772,0.0016064797699544629
1387.6550794842265,1387.6550794842265,0.99972526420901,0.0016061918325171631
1387.6620240017078,1387.6620240017078,1.0021576746346355,0.0016071948119010919
1387.6689685191418,1387.6689685191418,0.9972014657302981,0.0016059418152917122
1387.6759130365767,1387.6759130365767,0.9996400061482837,0.0016062625819324087
1387.6828575538725,1387.6828575538725,0.9983732028050103,0.0016056004281018981
1387.6898020711203,1387.6898020711203,1.0000723415170274,0.0016065656890145348
1387.6967465883686,1387.6967465883686,1.0016567040957038,0.0016068909194156735
1387.7036911056173,1387.7036911056173,1.001131113047688,0.0016071499116830587
1387.7106356228196,1387.7106356228196,1.0012288885635487,0.0016077706265006434
1387.7175801398814,1387.7175801398814,1.0005792835549439,0.001607202502774658
1387.7245246569437,1387.7245246569437,1.0011276530211513,0.0016077988085558663
1387.7314691739596,1387.7314691739596,0.9987978859712993,0.001607503594698613
