time,time,flux,flux_err
1517.36729422088,1517.36729422088,0.9994131454707963,0.0019007695160963504
1517.3759054567136,1517.3759054567136,0.9982350083615653,0.001831798353269004
1517.3831277837512,1517.3831277837512,1.001427217138502,0.0017765462957674647
1517.3900723292168,1517.3900723292168,1.0002557049123908,0.0017256522305607828
1517.397016875148,1517.397016875148,1.0000632074955005,0.0016759474215588416
1517.4053503303394,1517.4053503303394,1.0011214042977712,0.0016218347226937817
1517.4122948768295,1517.4122948768295,1.0004020579071695,0.0015813599785821438
1517.4192394235988,1517.4192394235988,0.9985830290748374,0.0015449304198378584
1517.426183970461,1517.426183970461,1.0011096094739536,0.0015120850765106635
1517.433128517696,1517.433128517696,1.0004319825419696,0.001483175218576065
1517.4400730650239,1517.4400730650239,0.9991606354645237,0.0014570329845945101
1517.4470176127245,1517.4470176127245,0.9994551590636735,0.0014329277754251623
1517.4539621606116,1517.4539621606116,0.9988751818676171,0.0014102251831314887
1517.4609067086842,1517.4609067086842,1.0019342254549888,0.0013891461329183887
1517.4678512568507,1517.4678512568507,1.0018047832514438,0.0013697315980545958
1517.4747958054827,1517.4747958054827,0.997000192462796,0.0013507643555710988
1517.4817403541144,1517.4817403541144,0.9999721284587139,0.0013331128800210508
1517.4886849029328,1517.4886849029328,1.0019566294022473,0.0013161889006498453
1517.4956294520302,1517.4956294520302,1.0003379778948454,0.0013001260848680594
1517.5025740012204,1517.5025740012204,1.0004493134764472,0.001284272345221286
1517.5095185506912,1517.5095185506912,1.0008494299042792,0.0012700311026619042
1517.5164631001612,1517.5164631001612,0.9981162092269085,0.0012549781421981074
1517.5234076500035,1517.5234076500035,1.0020568404442114,0.001241010499522481
1517.5303521997532,1517.5303521997532,0.9987357996341885,0.001227254364197248
1517.537296749782,1517.537296749782,1.000123060871756,0.0012148994092255022
1517.5442412999037,1517.5442412999037,0.9994777552100675,0.0012023360312485814
1517.5511858502123,1517.5511858502123,1.0004626367169525,0.0011910387491926963
1517.5581304006137,1517.5581304006137,0.999672555683297,0.0011801768224296869
1517.5650749512015,1517.5650749512015,0.997860359618314,0.0011691200069695736
1517.572019501789,1517.572019501789,1.0008545696278746,0.0011586231222966083
1517.5789640526557,1517.5789640526557,1.00106682363779,0.0011487130149128823
1517.5859086036164,1517.5859086036164,1.001272975784456,0.001139265167091252
1517.5928531545765,1517.5928531545765,0.9998805605250141,0.0011299185254914506
1517.5997977055363,1517.5997977055363,0.9987194506764798,0.0011216029817866318
1517.6067422569627,1517.6067422569627,0.9993876507442817,0.001112908874146977
1517.6136868081087,1517.6136868081087,1.0012478663138271,0.0011053556564665718
1517.6206313595346,1517.6206313595346,1.000323395175468,0.0010972192251295855
1517.6275759110538,1517.6275759110538,0.9990027508615812,0.0010900067098898428
1517.6345204625727,1517.6345204625727,0.9995398893550534,0.0010828593296360561
1517.6414650142779,1517.6414650142779,0.9992377970022869,0.001075570829619997
1517.6484095659835,1517.6484095659835,1.0002080018433015,0.0010689082764065586
1517.6553541176884,1517.6553541176884,1.0000882567985954,0.0010614829470840766
1517.66229866958,1517.66229866958,1.0024762041124986,0.001054584329608763
1517.6692432215646,1517.6692432215646,1.0002277481204862,0.0010474806389206422
1517.676187773456,1517.676187773456,0.999199203921231,0.0010401512834087559
1517.683132325534,1517.683132325534,1.00018590044716,0.0010333680599344966
1517.6900768777045,1517.6900768777045,0.9990634354549559,0.0010262358563277217
1517.6970214297826,1517.6970214297826,0.9996784204648076,0.0010192136272451327
1517.7039659819534,1517.7039659819534,0.9992191690703638,0.0010122240705979632
1517.7109105341244,1517.7109105341244,0.9990451924155979,0.0010053062238245098
1517.7178550863882,1517.7178550863882,1.0031798105575511,0.0009987737291929615
1517.7247996387455,1517.7247996387455,1.0007529802377952,0.000991434698860501
1517.7317441911027,1517.7317441911027,0.9993130142605215,0.0009837148458478311
1517.73868874346,1517.73868874346,1.0007052053523713,0.0009767434941580638
1517.7456332958172,1517.7456332958172,1.0000938490640592,0.0009694563910361276
1517.7525778482673,1517.7525778482673,0.9983598796251465,0.0009619112827186991
1517.7595224007177,1517.7595224007177,0.9999981319463321,0.0009551041396995967
1517.766466953261,1517.766466953261,1.000612128097249,0.0009476867392283217
1517.7734115056185,1517.7734115056185,0.9994926904743717,0.0009400292962735747
1517.780356058162,1517.780356058162,0.9991568436832624,0.0009326866651557641
1517.7873006107052,1517.7873006107052,0.9991386308858301,0.0009256547100485605
1517.7942451633414,1517.7942451633414,1.0015142675959166,0.0009184916836250294
1517.801189715792,1517.801189715792,1.0002392427225966,0.0009110016865634294
1517.8081342683354,1517.8081342683354,0.9997472525328701,0.000903904973384572
1517.815078820879,1517.815078820879,0.9990546927391399,0.0008968362940220324
1517.8220233735155,1517.8220233735155,0.9992924640379328,0.0008899907661839833
1517.8289679260588,1517.8289679260588,1.0014625698686888,0.0008842626419045298
1517.8359124785093,1517.8359124785093,0.9999226989922233,0.0008781018584855098
1517.842857031239,1517.842857031239,0.998895629396778,0.0008718170136683088
1517.849801583689,1517.849801583689,1.0012395853575615,0.0008671155833912209
1517.8567461362327,1517.8567461362327,1.0006916158017958,0.0008614732604758446
1517.8636906887764,1517.8636906887764,0.999328334132365,0.0008559319913107562
1517.870635241226,1517.870635241226,1.0004290913797513,0.0008513460727347171
1517.8775797937699,1517.8775797937699,1.0004262851131194,0.0008467506840955449
1517.8845243463134,1517.8845243463134,1.0005659215349052,0.0008427119043714143
1517.8914688987632,1517.8914688987632,0.9996815138878533,0.000838834431354149
1517.8984134512139,1517.8984134512139,1.001461019546802,0.0008353776597441345
1517.905358003664,1517.905358003664,0.9988448579945098,0.0008320566267069829
1517.9123025560214,1517.9123025560214,0.9986391401071868,0.0008293745589707302
1517.9192471084716,1517.9192471084716,1.0009100609886405,0.0008273936474910032
1517.9261916608286,1517.9261916608286,0.9992844691665006,0.000824136480339409
1517.9331362131857,1517.9331362131857,1.0008196690018822,0.0008219009515184042
1517.9400807654501,1517.9400807654501,1.0002355163774008,0.0008195480305250335
1517.9481364461467,1517.9481364461467,0.9997586217099241,0.0008166756601159307
1517.9553587804496,1517.9553587804496,1.0001775121609693,0.0008145907116420403
1517.9623033326202,1517.9623033326202,0.9996411576146675,0.0008117954482454243
1517.969247884791,1517.969247884791,0.9995665588578927,0.0008097056504182976
1517.9761924370553,1517.9761924370553,0.9995165963656248,0.0008074567228454106
1517.9831369889466,1517.9831369889466,1.0001287672697856,0.0008051638374507456
1517.9900815411177,1517.9900815411177,1.0007710846532742,0.0008032739079770967
1517.9970260931957,1517.9970260931957,1.001182636988914,0.0008013565589995348
1518.0039706450868,1518.0039706450868,1.0012096541109998,0.0007989438501027001
1518.0109151970717,1518.0109151970717,0.9983446519738199,0.0007965276818982725
1518.0178597489635,1518.0178597489635,1.0001624775287357,0.0007950502009703573
1518.0248043008544,1518.0248043008544,0.9989117433893758,0.00079232958185577
1518.0317488526532,1518.0317488526532,1.0002692642146793,0.0007901544464990846
1518.0386934044514,1518.0386934044514,0.9994960953841137,0.0007881513895500339
1518.0456379561565,1518.0456379561565,1.0003414568378477,0.0007860078232322676
1518.0525825077689,1518.0525825077689,0.9998967908075371,0.0007834054153082581
1518.059527059381,1518.059527059381,1.0007209143544393,0.0007812773645057473
1518.0664716108995,1518.0664716108995,0.9997734691174358,0.0007786684226260183
1518.073416162419,1518.073416162419,0.9989341063843119,0.0007763945771605401
1518.0803607139378,1518.0803607139378,0.9994317589360724,0.0007739887364321
1518.0873052653635,1518.0873052653635,1.0016992197426258,0.0007716934795418972
1518.0942498166962,1518.0942498166962,1.0005996060114213,0.0007693850615479827
1518.101194368029,1518.101194368029,1.0004470116989215,0.0007675263357360625
1518.1081389191754,1518.1081389191754,1.0006928468760266,0.0007652416934230984
1518.1150834704147,1518.1150834704147,1.000021215285999,0.0007623708099209801
1518.1220280215614,1518.1220280215614,0.9993671385752354,0.0007602629596551913
1518.1289725725217,1518.1289725725217,0.9986316354876281,0.0007577550484919081
1518.135917123482,1518.135917123482,0.999446483570367,0.0007555039890595494
1518.1428616744417,1518.1428616744417,0.9998086286112347,0.0007535979199769312
1518.149806225402,1518.149806225402,1.0004078159609766,0.0007510316852621371
1518.1567507763625,1518.1567507763625,1.0003311829272121,0.0007485721427817087
1518.1636953268567,1518.1636953268567,1.0006326586197531,0.0007467864393857889
1518.1706398776307,1518.1706398776307,1.0003900930471512,0.0007439877426719508
1518.1775844283115,1518.1775844283115,0.9990794326320239,0.0007411347739648539
1518.184528978806,1518.184528978806,0.9994918057466101,0.0007390060473065947
1518.1914735293005,1518.1914735293005,1.0000914977304878,0.0007369696457390712
1518.1984180797022,1518.1984180797022,1.000485584437314,0.0007348532857603397
1518.205362630103,1518.205362630103,0.9997567842513831,0.0007330339113209847
1518.2123071803182,1518.2123071803182,0.9999807448707104,0.0007320678287571958
1518.2192517305334,1518.2192517305334,1.0001369296052451,0.0007303849723307534
1518.2261962806556,1518.2261962806556,1.0009499926079843,0.0007294780381715206
1518.2331408307778,1518.2331408307778,0.9992665406509589,0.0007287825225622579
1518.2400853808062,1518.2400853808062,1.0003521710145449,0.0007279217070770695
1518.2470299307422,1518.2470299307422,0.9993902522848901,0.0007271826658477043
1518.2539744805847,1518.2539744805847,1.0008938228340085,0.00072702386811751
1518.2609190304272,1518.2609190304272,0.9999656992602615,0.0007261286438031403
1518.2681413619355,1518.2681413619355,0.9994860763979172,0.0007246115483438575
1518.2761970395593,1518.2761970395593,0.9998414391918562,0.0007235899616602449
1518.2831415891226,1518.2831415891226,0.9990082031947181,0.0007228491995981715
1518.2900861386856,1518.2900861386856,0.9998412323832382,0.0007215885171897313
1518.2970306879697,1518.2970306879697,0.9988402592328717,0.0007201483712941075
1518.3039752373468,1518.3039752373468,1.000208734142984,0.0007186070097597964
1518.3109197865372,1518.3109197865372,1.0014434227218652,0.0007174104255095174
1518.3192532455473,1518.3192532455473,1.0008097068111779,0.0007154521853634706
1518.3261977946447,1518.3261977946447,1.00231902538385,0.00071398264786746
1518.3331423435561,1518.3331423435561,0.9990280220146248,0.0007111688256604242
1518.340086892374,1518.340086892374,0.9997712954332103,0.0007095002676102634
1518.3470314413785,1518.3470314413785,1.0000985819696355,0.0007077647187846164
1518.3539759901037,1518.3539759901037,0.9991057707171267,0.0007059676242744211
1518.3609205387356,1518.3609205387356,0.9994583793413643,0.0007045983547528634
1518.3678650873674,1518.3678650873674,0.9991217182366461,0.0007028988795018668
1518.3748096358133,1518.3748096358133,0.999632029109742,0.0007011941584501187
1518.3817541841654,1518.3817541841654,1.000689639763605,0.0006990595493535055
1518.388698732518,1518.388698732518,1.0007501642130718,0.0006965870103776263
1518.3956432807774,1518.3956432807774,0.9995687034104386,0.0006944076827946463
1518.4025878289433,1518.4025878289433,0.9998768588438315,0.0006920872795905481
1518.4095323770166,1518.4095323770166,1.0007555771622818,0.0006902642285715236
1518.4173102707393,1518.4173102707393,0.9994763913176087,0.0006878930158060023
1518.4248103825166,1518.4248103825166,1.0023999421431238,0.0006860656501165363
1518.4317549303103,1518.4317549303103,1.0001080188889084,0.0006831263124035509
1518.4386994780111,1518.4386994780111,0.9993831726866116,0.0006813028539926022
1518.4456440256179,1518.4456440256179,0.9999413039459262,0.000680096527660674
1518.4525885732257,1518.4525885732257,0.9987611059385058,0.0006783047861713046
1518.459533120647,1518.459533120647,0.9999946891002012,0.0006768059067908788
1518.467866577515,1518.467866577515,0.9999017825749024,0.0006752448523438807
1518.4748111247497,1518.4748111247497,1.000972883234222,0.0006750174395210942
1518.481755671985,1518.481755671985,1.00081986926945,0.000673325642894099
1518.4887002191265,1518.4887002191265,1.0005999966607737,0.0006726329750792244
1518.495644766082,1518.495644766082,0.9998683429903906,0.0006720489917537762
1518.5025893129443,1518.5025893129443,0.9994695128061106,0.0006708065236521632
1518.5095338598064,1518.5095338598064,0.9999327482162743,0.0006706299263471197
1518.516478406576,1518.516478406576,0.9993913636644841,0.0006701179559806712
1518.5234229532518,1518.5234229532518,0.9997076291121372,0.0006700819453853749
1518.5303674997417,1518.5303674997417,1.0008704081556978,0.0006705306181999419
1518.537312046045,1518.537312046045,0.999574385510909,0.0006702102210691677
1518.5442565928142,1518.5442565928142,1.0007415634646406,0.0006700715815151864
1518.5512011389321,1518.5512011389321,1.000224124136486,0.0006696765254522411
1518.558145684956,1518.558145684956,0.9993315316909932,0.0006693556868086894
1518.5650902312595,1518.5650902312595,0.9995562269804896,0.0006694112524159764
1518.5720347770975,1518.5720347770975,0.9996576681435763,0.0006696005648218578
1518.5789793231215,1518.5789793231215,0.9988496066908634,0.0006695386371123387
1518.5859238689595,1518.5859238689595,1.0012127507039483,0.0006696807885541031
1518.5928684147043,1518.5928684147043,1.0008303461195798,0.0006691326896670768
1518.5998129602624,1518.5998129602624,0.9995704902377247,0.0006698575884246855
1518.6067575058214,1518.6067575058214,0.9996293519042455,0.0006698521598316148
1518.6137020512865,1518.6137020512865,1.0006073451435404,0.0006698709620694063
1518.6206465966584,1518.6206465966584,0.9998957866381722,0.0006704950638483965
1518.6275911418447,1518.6275911418447,1.000992437591449,0.0006704451971020831
1518.6345356869374,1518.6345356869374,0.9994708190901631,0.0006703263398743092
1518.6414802321235,1518.6414802321235,0.9999764945180358,0.0006704035880520594
1518.6484247771234,1518.6484247771234,0.9993128921865704,0.0006704440654430614
1518.6553693220299,1518.6553693220299,0.999843505861497,0.0006707777147397163
1518.66231386675,1518.66231386675,1.0003807663742852,0.000670697388065844
1518.6692584115638,1518.6692584115638,1.0001159368060983,0.0006710555527192791
1518.6762029560975,1518.6762029560975,0.9992539601468753,0.0006715102428805009
1518.6831475005383,1518.6831475005383,0.9998211954669847,0.000671413847368171
1518.6900920449796,1518.6900920449796,1.0008833018304053,0.0006717852123922491
1518.697036589234,1518.697036589234,1.0003716915762064,0.0006715221927345055
1518.7039811335821,1518.7039811335821,0.9995612795046528,0.0006716722158023297
1518.710925677557,1518.710925677557,1.0001164709551476,0.0006720942718238804
1518.7178702215324,1518.7178702215324,0.999356464076417,0.0006719604411057062
1518.7248147655077,1518.7248147655077,1.0013404249916835,0.0006724861277889036
1518.7317593094826,1518.7317593094826,0.999663692352193,0.0006722509474875791
1518.7387038529928,1518.7387038529928,1.0000956839001953,0.0006724125475087881
1518.7456483966885,1518.7456483966885,0.9989981516033828,0.0006730204029130697
1518.752592940291,1518.752592940291,0.9999328036032447,0.0006730172398965673
1518.7595374837078,1518.7595374837078,1.0001287290202672,0.0006734212108891504
1518.766482027031,1518.766482027031,0.9997750056690681,0.0006727718963511477
1518.7734265702607,1518.7734265702607,1.000738238739063,0.0006734157365443311
1518.7803711133984,1518.7803711133984,1.0003574179809231,0.0006734829710976969
1518.7873156564422,1518.7873156564422,0.999898149370758,0.0006737486745989883
1518.7942601992993,1518.7942601992993,0.9991330886609141,0.0006741645572613882
1518.8012047421576,1518.8012047421576,1.0001793610192782,0.0006739155331427853
1518.8081492849217,1518.8081492849217,1.0005410935416064,0.0006746617118796474
1518.815093827593,1518.815093827593,0.9989010512262808,0.0006743106198860084
1518.8220383701714,1518.8220383701714,1.0001303591635573,0.0006746544152368592
1518.8289829125636,1518.8289829125636,1.000688762015788,0.00067477026203313
1518.8359274548625,1518.8359274548625,0.999863673596367,0.0006747579067187467
1518.8428719971612,1518.8428719971612,1.0000769109706806,0.0006748902694269493
1518.8498165392737,1518.8498165392737,0.9997913270802558,0.0006756606033797357
1518.8567610813866,1518.8567610813866,1.0000534354264443,0.0006751028438267636
1518.8637056231266,1518.8637056231266,1.000772401909802,0.0006758720599996158
1518.8706501652389,1518.8706501652389,0.9997032443992111,0.0006755470041521187
1518.877594706886,1518.877594706886,1.000318049122834,0.0006760687721965473
1518.8845392485327,1518.8845392485327,1.0002469810995498,0.0006764108574242344
1518.8914837900868,1518.8914837900868,0.9988990232889574,0.0006759382519895455
1518.8984283313612,1518.8984283313612,1.0001137477909092,0.0006764020853660682
1518.9053728728218,1518.9053728728218,0.9999497853879118,0.0006766738328948352
1518.9123174140032,1518.9123174140032,1.0001000867416323,0.0006764774259159468
1518.919261955184,1518.919261955184,1.0004684840845115,0.000676796647148218
1518.9262064961792,1518.9262064961792,1.0001744322196102,0.0006771543736603576
1518.933151037081,1518.933151037081,0.9988823797757129,0.0006773443175223955
1518.9400955778897,1518.9400955778897,1.0002747319511578,0.0006768773348059591
1518.9470401186056,1518.9470401186056,1.0003154321542085,0.0006771240876299831
1518.953984659321,1518.953984659321,0.9997226051667225,0.0006775852808350491
1518.9609291997576,1518.9609291997576,1.0000471697031565,0.0006769186905019765
1518.967873740287,1518.967873740287,1.0006357665654622,0.0006771269556037668
1518.9748182805365,1518.9748182805365,1.0001180116580943,0.0006771807488174149
1518.9817628206936,1518.9817628206936,0.9999183299983019,0.0006776430751059381
1518.9887073608506,1518.9887073608506,0.9993652430347856,0.0006771420885283415
1518.9956519008206,1518.9956519008206,1.0003211797029334,0.0006772523857978933
1519.0025964407919,1519.0025964407919,0.9998939068899244,0.0006775553136746835
1519.0095409805758,1519.0095409805758,1.000610952682094,0.0006776311992176459
1519.0164855202665,1519.0164855202665,0.9995036077588926,0.0006771696827768063
1519.0234300598652,1519.0234300598652,0.999306100659977,0.0006773602987981204
1519.0303745993697,1519.0303745993697,0.999850569531126,0.0006774853720818174
1519.0373191386884,1519.0373191386884,1.0009745123451896,0.0006784236092867861
1519.0442636780072,1519.0442636780072,1.0004998921665471,0.0006780257201515627
1519.0512082173254,1519.0512082173254,1.0000821462523126,0.0006776737308430333
1519.0581527561785,1519.0581527561785,1.000139053795523,0.0006777088012100275
1519.0650972952178,1519.0650972952178,0.998810041032313,0.0006774334497103966
1519.0720418340707,1519.0720418340707,0.9997520299078684,0.0006775806095035959
1519.0789863729237,1519.0789863729237,1.0002335232738004,0.0006773704811419248
1519.0859309114974,1519.0859309114974,0.9998256373986951,0.000677100104789209
1519.0928754501638,1519.0928754501638,0.9997672213936456,0.0006771488948943349
1519.0998199885514,1519.0998199885514,1.0001508505592636,0.0006774364689797831
1519.1067645268454,1519.1067645268454,1.0013567111255077,0.0006772250834949964
1519.1137090651396,1519.1137090651396,0.9990964382931274,0.0006770489212632894
1519.1206536032475,1519.1206536032475,0.9999791221396066,0.0006766549208087707
1519.127598141355,1519.127598141355,1.0003516625419913,0.000676925641692378
1519.1345426791838,1519.1345426791838,1.0006749421258314,0.0006768332818223317
1519.1414872171056,1519.1414872171056,0.9993585996271983,0.0006761222537679093
