time,time,flux,flux_err
1325.2999305821534,1325.2999305821534,1.000245334320609,0.000520576852079609
1325.308263938659,1325.308263938659,1.0001990297257108,0.0005212741626818949
1325.316597295359,1325.316597295359,1.0000918290688794,0.0005214810471591999
1325.3242362058616,1325.3242362058616,1.0001577364360563,0.0004763841847277455
1325.3311806700935,1325.3311806700935,0.9993605063465806,0.0004764347585312712
1325.338125134477,1325.338125134477,0.9998765335281382,0.00047694460427008805
1325.3450695989768,1325.3450695989768,0.9992028756726988,0.00047717306177623203
1325.3520140636163,1325.3520140636163,0.9992890666486968,0.00047753983503275043
1325.3589585284071,1325.3589585284071,1.0005965703621496,0.00047824192662295633
1325.3659029933146,1325.3659029933146,0.9995904287253202,0.0004785053273560951
1325.372847458361,1325.372847458361,1.0001337266134787,0.0004789866757751476
1325.3797919235246,1325.3797919235246,1.0006742899900918,0.00047954393911662125
1325.3867363888396,1325.3867363888396,1.0003028779469956,0.00047986615716212003
1325.3936808542705,1325.3936808542705,1.0000711162373679,0.0004802089336368177
1325.4006253198297,1325.4006253198297,1.0003730490248453,0.00048059217094218056
1325.4075697855174,1325.4075697855174,1.0002494599747616,0.00048094347257619335
1325.4145142513207,1325.4145142513207,0.9995496711114189,0.00048111781636210664
1325.4214587172642,1325.4214587172642,0.9995986564503212,0.00048148067570303254
1325.4284031833004,1325.4284031833004,0.9996394463312275,0.00048179420077142446
1325.4353476494766,1325.4353476494766,0.9998980458943466,0.00048212280059942663
1325.4422921158043,1325.4422921158043,1.0000234625600772,0.00048247341694208294
1325.4492365822014,1325.4492365822014,0.9998841076138099,0.00048274516805279464
1325.4561810487387,1325.4561810487387,1.0009628548978735,0.0004832650869453541
1325.463125515392,1325.463125515392,0.9996511392383359,0.0004831669318522983
1325.4700699821387,1325.4700699821387,0.9999232694936666,0.0004835443428725701
1325.4770144490135,1325.4770144490135,0.9997636361613553,0.0004838276985504302
1325.4839589159926,1325.4839589159926,1.0004906047514748,0.0004842855850071795
1325.4909033831004,1325.4909033831004,0.9996947736469632,0.0004844894366379483
1325.4978478503012,1325.4978478503012,0.999608137529058,0.00048479466548851405
1325.5047923176178,1325.5047923176178,0.9998860762129711,0.00048513111414240405
1325.5117367850519,1325.5117367850519,1.0001874891623097,0.00048556679784602654
1325.518681252578,1325.518681252578,1.0011760584183578,0.0004860030133283581
1325.5256257202211,1325.5256257202211,0.9993512390896013,0.0004861626611174862
1325.5325701879688,1325.5325701879688,0.9996881900956831,0.00048649706367449717
1325.5395146558099,1325.5395146558099,0.9991674351546708,0.00048669845328277095
1325.546459123744,1325.546459123744,1.0011000666324412,0.000487348272853459
1325.5534035918176,1325.5534035918176,1.0001313144347932,0.00048752898000214274
1325.5603480599498,1325.5603480599498,1.0000413469156297,0.0004877944369180382
1325.5672925281983,1325.5672925281983,0.9998179643994438,0.0004880559511259158
1325.5742369965278,1325.5742369965278,1.0001406920715332,0.0004884409514709381
1325.5811814649744,1325.5811814649744,0.9999257399459435,0.0004886201945024536
1325.5881259335135,1325.5881259335135,1.0001329832807215,0.0004888633681482975
1325.5950704021345,1325.5950704021345,0.9996642395992815,0.0004890831097030972
1325.60201487086,1325.60201487086,0.9998476334789934,0.0004890879215020342
1325.6089593396787,1325.6089593396787,0.9995743460593157,0.0004891896394071938
1325.6159038085793,1325.6159038085793,1.0001659660302642,0.000489419836088467
1325.6228482775846,1325.6228482775846,1.0000957324151463,0.0004893773932569194
1325.6297927466592,1325.6297927466592,1.00049549185138,0.000489383197343293
1325.6367372158506,1325.6367372158506,1.000219104129883,0.0004894109505503938
1325.6436816851233,1325.6436816851233,1.0003981647721216,0.0004893556343604207
1325.650626154443,1325.650626154443,0.9996848986473331,0.000489240899144274
1325.6575706238903,1325.6575706238903,1.0000244353476138,0.0004891181796379773
1325.6645150933844,1325.6645150933844,0.9995281200346886,0.000489001839384568
1325.6714595629946,1325.6714595629946,1.000377664139587,0.0004890113845899198
1325.6784040326868,1325.6784040326868,0.999968975813354,0.0004889554723815548
1325.6853485024371,1325.6853485024371,1.0007032595764203,0.0004890937602383182
1325.6922929722684,1325.6922929722684,0.9992124231585645,0.0004889278805287934
1325.6992374422166,1325.6992374422166,1.000552143837543,0.0004891675234238187
1325.7061819122114,1325.7061819122114,1.0005389865019345,0.0004892889698865023
1325.713126382287,1325.713126382287,0.9996256172662596,0.0004892317526250105
1325.720070852433,1325.720070852433,0.999967991109323,0.0004892783597895745
1325.7270153226723,1325.7270153226723,1.0002951542963996,0.0004895511980731367
1325.733959792981,1325.733959792981,0.9998498102959624,0.0004895539600518603
1325.7409042633717,1325.7409042633717,0.9997260108703712,0.0004896994951012296
1325.7478487338199,1325.7478487338199,0.9991427148934899,0.0004896202687147245
1325.7547932043387,1325.7547932043387,0.9993962275142412,0.0004898338183081188
1325.7617376749272,1325.7617376749272,1.0001499767192905,0.0004900605179659061
1325.7686821455968,1325.7686821455968,1.000442828992156,0.0004903115330910552
1325.775626616325,1325.775626616325,1.0004782807816957,0.0004904784946916977
1325.7825710871343,1325.7825710871343,1.000470721568675,0.000490582116000049
1325.7895155580138,1325.7895155580138,1.0005208169256956,0.0004906693932208422
1325.7964600289513,1325.7964600289513,1.000250338770521,0.0004907187655996489
1325.8034044999706,1325.8034044999706,0.9998185962545936,0.0004907133629468344
1325.8103489710247,1325.8103489710247,0.9993277195104477,0.0004907913276081001
1325.8172934421596,1325.8172934421596,0.9998203888872504,0.0004910197442174226
1325.8242379133653,1325.8242379133653,0.9996111780997167,0.0004909977619084353
1325.8311823846173,1325.8311823846173,0.999612272325946,0.0004910284073771881
1325.8381268559508,1325.8381268559508,1.0008266782977056,0.0004912902200105115
1325.8450713273423,1325.8450713273423,1.0006786948672817,0.000491166635493689
1325.8520157988034,1325.8520157988034,0.9997628679721366,0.0004909101058262784
1325.8589602702882,1325.8589602702882,0.9995192443040807,0.0004908503809058356
1325.8659047418662,1325.8659047418662,0.9997373184966987,0.0004907576969300491
1325.872849213491,1325.872849213491,1.0003478951488944,0.0004905379342637797
1325.8797936851734,1325.8797936851734,0.9997264528861864,0.0004902422637745446
1325.8867381569257,1325.8867381569257,0.9994795793773624,0.0004900165111985963
1325.8936826287131,1325.8936826287131,0.9996758586504043,0.0004899222049964706
1325.9006271005705,1325.9006271005705,1.0012473811231164,0.0004900185366982718
1325.9075715724741,1325.9075715724741,1.0004324701285476,0.0004896564480549369
1325.9145160444477,1325.9145160444477,0.9992047381309309,0.0004892639008188401
1325.921460516468,1325.921460516468,1.0004607809433728,0.0004894934064598544
1325.928404988535,1325.928404988535,0.999669567595374,0.0004891040869784165
1325.9353494606598,1325.9353494606598,1.0004791270115292,0.0004892074822676091
1325.9422939328201,1325.9422939328201,0.9989890384649787,0.0004888223808521428
1325.9492384050616,1325.9492384050616,0.9999878621755997,0.0004889318760044503
1325.9561828773378,1325.9561828773378,1.0005324817910939,0.0004889476039794613
1325.9639606863475,1325.9639606863475,1.0002643383118865,0.0004890204210356165
1325.9714607165158,1325.9714607165158,0.9996348094111525,0.0004887213126282963
1325.978405188955,1325.978405188955,1.0001746861089997,0.0004888587769725698
1325.9853496614408,1325.9853496614408,1.0001863188863034,0.0004888707743931256
1325.9922941339732,1325.9922941339732,1.0002085947001758,0.0004889367112505865
1325.999238606541,1325.999238606541,0.9995536305130013,0.0004888919465187516
1326.0061830791662,1326.0061830791662,0.9993971451734369,0.0004888688742806876
1326.0131275518386,1326.0131275518386,1.0001588890528663,0.0004892392955528904
1326.0200720245455,1326.0200720245455,1.0005912068909826,0.0004893613979245141
1326.027016497311,1326.027016497311,1.0001609245921919,0.0004894617631866256
1326.0339609700995,1326.0339609700995,0.9998043920747233,0.000489561715658623
1326.040905442946,1326.040905442946,0.999517110879129,0.0004895228695556053
1326.0478499158282,1326.0478499158282,0.9997074882607686,0.0004894651374323391
1326.054794388768,1326.054794388768,1.0002689111686265,0.0004895783787195538
1326.0617388617425,1326.0617388617425,1.0006985617945574,0.0004896635267980292
1326.068683334741,1326.068683334741,1.0000397662683378,0.0004894950634635341
1326.0756278077968,1326.0756278077968,1.0005491686762868,0.0004896119241185831
1326.0825722808888,1326.0825722808888,0.9994146176626277,0.0004894666033354072
1326.0895167540264,1326.0895167540264,0.9997299264914637,0.0004895186128025269
1326.0964612271994,1326.0964612271994,0.9994267506142129,0.0004895359983011066
1326.1034057004072,1326.1034057004072,0.9999839673814581,0.0004895447702357901
1326.1103501736377,1326.1103501736377,0.9998265797246033,0.0004896286949567202
1326.1172946469387,1326.1172946469387,1.0007295962302105,0.0004897458253514062
1326.1242391202625,1326.1242391202625,1.0005291665659708,0.0004896601073399846
1326.131183593622,1326.131183593622,1.0002887741470752,0.0004895768015156669
1326.1381280670037,1326.1381280670037,0.9990878639380011,0.0004892621063228879
1326.1450725404331,1326.1450725404331,1.000096876294533,0.0004894556488067513
1326.1520170138967,1326.1520170138967,1.0005558061508713,0.0004894761034750175
1326.1589614873951,1326.1589614873951,0.9995967114198802,0.000489267473134298
1326.1659059609408,1326.1659059609408,1.0006914310233093,0.0004893535926125623
1326.1728504344974,1326.1728504344974,0.9995673478100577,0.0004891849515387977
1326.179794908101,1326.179794908101,1.0002752790437104,0.0004892009131655872
1326.1867393817163,1326.1867393817163,1.0003344669333325,0.0004892105709704429
1326.1936838554006,1326.1936838554006,1.0006301158660171,0.0004892039245064817
1326.200628329098,1326.200628329098,0.9996604884087003,0.0004889828808307548
1326.2075728028176,1326.2075728028176,1.0001375669700803,0.0004890056224240605
1326.2145172765845,1326.2145172765845,0.9997161073223453,0.0004888645493435241
1326.221461750362,1326.221461750362,1.0000364028635844,0.0004888424620019774
1326.2284062241986,1326.2284062241986,1.0000483600972656,0.0004888489330231684
1326.2353506980467,1326.2353506980467,1.0000092172558728,0.0004887546935830256
1326.2422951719175,1326.2422951719175,0.9995345334898325,0.0004886717847437975
1326.2492396458476,1326.2492396458476,1.0005099191539029,0.0004887497495185925
1326.2561841197883,1326.2561841197883,1.0002824466854519,0.0004886518250076405
1326.2631285937296,1326.2631285937296,1.0002469625551362,0.0004886353589436819
1326.2700730677172,1326.2700730677172,0.9997615664137858,0.0004885192516580606
1326.2770175417513,1326.2770175417513,0.9998853386021889,0.0004883485561419772
1326.2839620157858,1326.2839620157858,0.99980762299067,0.0004884213640581421
1326.2909064898547,1326.2909064898547,0.9998545835959799,0.0004883288505451816
1326.297850963959,1326.297850963959,1.0002555761536658,0.0004882710336494159
1326.3047954380859,1326.3047954380859,0.999552250137641,0.0004882725786279355
1326.311739912237,1326.311739912237,1.0006159781243773,0.0004884258626174549
1326.3186843864223,1326.3186843864223,1.0002615403555057,0.0004883242950314169
1326.325628860596,1326.325628860596,0.9996082335879993,0.0004883485867874327
1326.3325733348288,1326.3325733348288,0.9996523686148133,0.0004883274130922665
1326.3395178090839,1326.3395178090839,1.0001972392199758,0.0004884650600895465
1326.3470178413013,1326.3470178413013,1.0006773504768645,0.0004885668624638775
1326.3561845473691,1326.3561845473691,0.9993980956562767,0.0004884377723858458
1326.3631290217058,1326.3631290217058,0.9998105497651484,0.0004885816093350913
1326.3700734960544,1326.3700734960544,1.0002829798715038,0.0004885894627085523
1326.3770179704263,1326.3770179704263,0.9996980079260182,0.000488643003538023
1326.3839624448215,1326.3839624448215,1.0002535632765586,0.0004888852765268783
1326.3909069192282,1326.3909069192282,1.000056693734655,0.0004887995232104659
1326.3978513936815,1326.3978513936815,1.0000509736370535,0.0004888105931203071
1326.404795868135,1326.404795868135,1.000090949541507,0.0004888904815783243
1326.411740342612,1326.411740342612,1.0000782107842798,0.0004889460186324392
1326.4186848171116,1326.4186848171116,0.9996406049772455,0.000488950093367813
1326.4256292916348,1326.4256292916348,1.0001448181345907,0.0004888491528671417
1326.4325737661577,1326.4325737661577,0.9996937607365016,0.000489066255851274
1326.4395182407275,1326.4395182407275,1.0003516503704308,0.0004890531003247851
1326.4464627152975,1326.4464627152975,0.9996050453514892,0.0004891256401718398
1326.4534071898902,1326.4534071898902,0.9999633504045381,0.0004891061206168165
1326.4603516645066,1326.4603516645066,1.0001539574907083,0.0004890984527808652
1326.4672961391345,1326.4672961391345,0.9999155183806632,0.0004890751148267558
1326.4742406137857,1326.4742406137857,1.0005562825711138,0.0004891967135437174
1326.481185088449,1326.481185088449,0.999895230902838,0.0004891129393021966
1326.4881295631462,1326.4881295631462,1.000037037688386,0.0004891904178285956
1326.4950740378329,1326.4950740378329,0.9999143997916559,0.0004891160165861496
1326.5020185125536,1326.5020185125536,0.9994441114702898,0.0004891574230702026
1326.5089629872866,1326.5089629872866,0.9994761849665155,0.0004891668439685664
1326.5159074620424,1326.5159074620424,1.0007211579026773,0.0004894554523911657
1326.5228519368102,1326.5228519368102,0.999629174420984,0.0004892374224667294
1326.5297964115778,1326.5297964115778,0.9992500306391939,0.0004893936501078361
1326.5367408863917,1326.5367408863917,1.0000091038724581,0.0004895284343455433
1326.5436853612064,1326.5436853612064,1.0002510597427676,0.0004897874332476898
1326.5506298360203,1326.5506298360203,1.0006589042709506,0.0004898596745167685
1326.5575743108693,1326.5575743108693,0.9999505213865355,0.0004898265666799437
1326.5645187857185,1326.5645187857185,1.000023247670645,0.0004898788659756483
1326.571463260591,1326.571463260591,1.000034804998649,0.0004898100216902699
1326.5784077354754,1326.5784077354754,0.9995662155000401,0.0004898134215049913
1326.5853522103705,1326.5853522103705,0.9997389080248128,0.0004898888075625964
1326.5922966852784,1326.5922966852784,1.000317366816043,0.0004899819729700417
1326.5992411602087,1326.5992411602087,1.0002049664214963,0.0004900501683164154
1326.6061856351396,1326.6061856351396,1.000509258261221,0.0004900454860288681
1326.6131301100936,1326.6131301100936,1.0001610392718194,0.0004900229423420294
1326.620074585047,1326.620074585047,0.9987143295339601,0.0004898387201604465
1326.6270190600248,1326.6270190600248,0.999902486208175,0.0004899634431448675
1326.633963535013,1326.633963535013,0.9988458722698164,0.0004897951728627438
1326.6409080100025,1326.6409080100025,1.0002729665130554,0.0004899910660042518
1326.6478524850143,1326.6478524850143,1.000599827515169,0.0004899738227727035
1326.654796960038,1326.654796960038,1.0000712707336477,0.0004898485521052406
1326.6617414350621,1326.6617414350621,1.0005172995861014,0.000489858999144134
1326.6686859101087,1326.6686859101087,1.0006806476650276,0.0004898351926660813
1326.6756303851562,1326.6756303851562,0.9997922926903356,0.0004895445434850031
1326.6825748602264,1326.6825748602264,0.9996754002296822,0.0004893922980040202
1326.6906304513018,1326.6906304513018,0.9998605289304516,0.0004892877391051837
1326.6978527053993,1326.6978527053993,0.9991394481553199,0.0004891079640688223
1326.7047971805048,1326.7047971805048,0.9996703802457656,0.0004890833852695816
1326.7122972136185,1326.7122972136185,1.0001304907241892,0.0004890506695089805
1326.7200750257366,1326.7200750257366,1.000112576969446,0.0004888948536558847
1326.7270195008418,1326.7270195008418,1.0000085251221928,0.0004887832759393485
1326.7339639759819,1326.7339639759819,1.0004647840908665,0.0004888500479542315
1326.7409084511107,1326.7409084511107,1.0006503816091867,0.0004886822027891984
1326.747852926274,1326.747852926274,0.9995310350041354,0.0004885325526398849
1326.7547974014255,1326.7547974014255,1.0004535753083812,0.000488620799660668
1326.7617418765892,1326.7617418765892,0.9995446072441767,0.0004884267830764539
1326.7686863517758,1326.7686863517758,0.9996444603778446,0.0004884333969831516
1326.775630826951,1326.775630826951,1.0002444540768576,0.0004884540286268507
1326.7825753021261,1326.7825753021261,1.0003985307497862,0.0004884529748936151
1326.7895197773364,1326.7895197773364,0.9993626053464869,0.0004883352762940808
1326.7964642525344,1326.7964642525344,1.000088637988301,0.000488432815182865
1326.8034087277447,1326.8034087277447,0.9994991433162264,0.0004883586801993218
1326.8103532029545,1326.8103532029545,1.0002808180736011,0.0004885442109145539
1326.8172976781875,1326.8172976781875,1.000295022882607,0.0004885602263493214
1326.8242421534094,1326.8242421534094,1.0006844550376819,0.0004885030786933523
1326.8311866286545,1326.8311866286545,1.000159935468948,0.0004885029437193888
1326.8381311038763,1326.8381311038763,0.9994518875392165,0.0004883017060787075
1326.8450755791328,1326.8450755791328,0.9995676378588276,0.0004883480267945412
1326.8520200543778,1326.8520200543778,1.000422882391617,0.0004883872878242423
1326.8589645296458,1326.8589645296458,1.0000782592236634,0.00048824732259849905
1326.8659090049146,1326.8659090049146,1.0000743006263213,0.000488107110887487
1326.8728534801826,1326.8728534801826,0.9992640441205995,0.00048779859327807246
1326.8797979554506,1326.8797979554506,1.0005068896342364,0.00048798494615919316
1326.8867424307307,1326.8867424307307,1.0005713106879028,0.0004878152545783374
1326.8936869060103,1326.8936869060103,1.0001758146711475,0.00048762531064445037
1326.900631381302,1326.900631381302,1.0001032144643212,0.00048733328681877994
1326.9075758565818,1326.9075758565818,0.9997987319322521,0.0004870640884411575
1326.9145203318851,1326.9145203318851,1.000289334520889,0.00048711567137092737
1326.9214648071882,1326.9214648071882,1.0003237563832308,0.0004867703568235818
1326.9284092824914,1326.9284092824914,0.99898877620202,0.00048645078205162553
1326.9353537578065,1326.9353537578065,1.0001485340564353,0.00048644098225628487
1326.9422982331093,1326.9422982331093,1.000299405391085,0.00048620119044496255
1326.9492427084242,1326.9492427084242,0.9994975225902912,0.00048597525747886693
1326.9561871837507,1326.9561871837507,1.0002193719635382,0.00048605344904125824
1326.9631316590658,1326.9631316590658,1.0005107194206144,0.00048590869346278027
1326.970076134392,1326.970076134392,0.9995211764284715,0.0004855217801413736
1326.977020609718,1326.977020609718,1.0000634876859826,0.0004855359717425797
1326.9839650850452,1326.9839650850452,1.0001990820662783,0.00048532933485177874
1326.990909560383,1326.990909560383,0.9997796407292027,0.00048516455900282564
1326.9978540357213,1326.9978540357213,1.0000122554786455,0.0004851290473111078
1327.0047985110475,1327.0047985110475,0.9993232154927162,0.0004849836052446669
1327.0117429863856,1327.0117429863856,0.9997488560496016,0.00048494359126717855
1327.0186874617352,1327.0186874617352,1.0007389865137417,0.00048524401974865797
1327.0256319370733,1327.0256319370733,1.000478467066979,0.0004851368930891719
1327.0325764124232,1327.0325764124232,1.000544143613274,0.0004850791702845179
1327.039520887761,1327.039520887761,1.0001292528336445,0.00048496782469661037
1327.046465363111,1327.046465363111,0.9987720117307439,0.0004846091781214568
1327.0534098384721,1327.0534098384721,0.9994907627815929,0.00048475533465532647
1327.061187650858,1327.061187650858,1.0003660133841221,0.0004849212801903768
1327.0686876842278,1327.0686876842278,1.0003702742385214,0.00048497382260501474
