time,time,flux,flux_err
1354.1169258281407,1354.1169258281407,1.0003475230043375,0.0010428043508458576
1354.1257222944193,1354.1257222944193,0.9991938295350992,0.0010422969512358202
1354.1340557888068,1354.1340557888068,1.0006566941679604,0.0010424553784238893
1354.1423892830783,1354.1423892830783,0.9997634075346665,0.0010417492495468261
1354.1500283195091,1354.1500283195091,0.999450485791774,0.0009508818132051915
1354.1569728979907,1354.1569728979907,1.000799020124321,0.0009513999706399857
1354.163917476426,1354.163917476426,1.0002383749198391,0.0009508267664241976
1354.1708620548147,1354.1708620548147,0.9993224996907799,0.0009503832772497766
1354.1778066331567,1354.1778066331567,0.999905602565968,0.0009506503127233205
1354.1847512114523,1354.1847512114523,1.0005055373314176,0.0009504666011113975
1354.1916957897479,1354.1916957897479,1.000760659989788,0.000950065655328012
1354.1986403679505,1354.1986403679505,0.9998562529451828,0.000949646857926794
1354.2055849461062,1354.2055849461062,0.9991775198058788,0.0009492636803185281
1354.2125295242154,1354.2125295242154,0.9992359397000701,0.0009492386804724392
1354.2194741022781,1354.2194741022781,0.9993004006808643,0.0009492646095089858
1354.2264186803409,1354.2264186803409,0.9993063618519512,0.0009488634847353294
1354.2333632583104,1354.2333632583104,1.0005483677198463,0.0009489346010456525
1354.240307836187,1354.240307836187,1.0031247310653295,0.0009497601743374701
1354.2472524141567,1354.2472524141567,1.0012560492247793,0.0009491343196180406
1354.2541969919864,1354.2541969919864,0.9983712821618989,0.0009484804313391602
1354.2611415697695,1354.2611415697695,1.0010900467663284,0.0009489864182102091
1354.2680861475533,1354.2680861475533,0.9987241497301402,0.0009484319117582087
1354.2750307251033,1354.2750307251033,1.000081949641747,0.0009489309863132057
1354.2819753027939,1354.2819753027939,1.000189265631181,0.0009493307983097119
1354.2889198803907,1354.2889198803907,1.0000539195569353,0.0009496574779392757
1354.2958644579408,1354.2958644579408,1.0006138090951995,0.0009499354734832305
1354.302809035445,1354.302809035445,1.0000036620042283,0.0009499492461170104
1354.309753612856,1354.309753612856,1.0000177453066086,0.0009505217516461688
1354.3166981902666,1354.3166981902666,1.0005179158243593,0.000950601369523365
1354.3236427675843,1354.3236427675843,0.9995137177529425,0.0009506990782330223
1354.3305873448553,1354.3305873448553,0.9996760664845625,0.0009509198278589637
1354.3375319221734,1354.3375319221734,1.0005386018786817,0.0009511590664761895
1354.3444764993044,1354.3444764993044,0.9994370795162997,0.0009514922460516318
1354.3514210764822,1354.3514210764822,0.9996457251430864,0.0009517763130947607
1354.3583656535207,1354.3583656535207,0.9996871088262426,0.0009515004510905688
1354.3653102306057,1354.3653102306057,0.9997147238691397,0.0009520588887382676
1354.3722548075505,1354.3722548075505,1.0002401537613972,0.0009520816458388782
1354.379199384496,1354.379199384496,0.9991814863739699,0.0009517283988914026
1354.3861439613943,1354.3861439613943,1.0003022205013001,0.0009520596783817795
1354.3930885382,1354.3930885382,0.9999133048435132,0.0009515911226487822
1354.4000331149587,1354.4000331149587,1.0007560633709656,0.0009517154675924625
1354.406977691764,1354.406977691764,1.000946036943208,0.0009519448811943186
1354.4139222684303,1354.4139222684303,1.0009165497555679,0.0009516292632771057
1354.420866845049,1354.420866845049,0.9988730768027295,0.0009514841403825438
1354.4278114216681,1354.4278114216681,0.9996795235655087,0.0009514070245690706
1354.4347559980545,1354.4347559980545,0.999338920496698,0.0009516388842393279
1354.4417005745804,1354.4417005745804,1.0007483654599714,0.0009514864765055309
1354.4486451510134,1354.4486451510134,0.9994804833703899,0.0009508284884228357
1354.4555897273535,1354.4555897273535,0.9983933329583499,0.0009508519599562568
1354.4625343036928,1354.4625343036928,1.0004155019991203,0.0009508484004390992
1354.4694788798931,1354.4694788798931,1.001417195658386,0.0009513854310187594
1354.4764234561394,1354.4764234561394,1.0004373711864556,0.0009506847742225523
1354.4833680322467,1354.4833680322467,1.000140612840298,0.0009502984340282259
1354.4903126084002,1354.4903126084002,0.9993933615771396,0.0009498131053883592
1354.497257184414,1354.497257184414,1.000863474820456,0.0009503009583552895
1354.5042017603814,1354.5042017603814,0.9995950144865171,0.000950205395379752
1354.5111463363485,1354.5111463363485,0.9984394536052307,0.0009493876766763221
1354.5180909122223,1354.5180909122223,1.0003935017961647,0.0009502166027440129
1354.5250354880502,1354.5250354880502,1.0008616302054403,0.0009502573342815559
1354.531980063831,1354.531980063831,1.000185109407611,0.00095003352015798
1354.5389246395189,1354.5389246395189,1.0005928642187247,0.0009501886095326841
1354.5458692152072,1354.5458692152072,0.9998877960805668,0.0009498014791595822
1354.552813790801,1354.552813790801,1.000073896961347,0.0009495442477511082
1354.55975836635,1354.55975836635,0.999637166863061,0.0009497974004485056
1354.5667029419442,1354.5667029419442,1.0003210909997047,0.000949945186390737
1354.5736475173992,1354.5736475173992,0.9982260143136694,0.0009495687097086633
1354.5805920927146,1354.5805920927146,0.9999521834048188,0.0009498180098753007
1354.5875366680764,1354.5875366680764,1.0015640090821518,0.0009501154308438279
1354.5944812433452,1354.5944812433452,0.9994687379496472,0.0009499888485893362
1354.6014258185676,1354.6014258185676,1.0002383868053546,0.0009501084948478928
1354.6083703937893,1354.6083703937893,1.0011309270647775,0.0009497826179733833
1354.615314968872,1354.615314968872,0.9991154182515632,0.0009494236482809401
1354.6222595439544,1354.6222595439544,0.9981535507831275,0.0009493123364511371
1354.6292041189904,1354.6292041189904,1.001112255682381,0.0009494786231409999
1354.6361486939336,1354.6361486939336,1.0008201803731684,0.0009492541278574082
1354.643093268876,1354.643093268876,0.999154915571577,0.0009483833781830456
1354.6500378437256,1354.6500378437256,1.0005613384286391,0.000948904278272505
1354.6569824184821,1354.6569824184821,1.0014646987815627,0.0009492218436462664
1354.6639269932389,1354.6639269932389,1.000318249043811,0.0009482913175401835
1354.670871567949,1354.670871567949,1.0002998992695806,0.0009489689079758138
1354.6778161425657,1354.6778161425657,1.0013000751628076,0.0009488361111201123
1354.6847607171355,1354.6847607171355,0.9971262658384628,0.0009476574510608694
1354.6917052917063,1354.6917052917063,1.0009907639141553,0.0009484016284357132
1354.6986498661365,1354.6986498661365,0.999448186317748,0.0009485150366391691
1354.7055944405672,1354.7055944405672,0.9990595594558058,0.0009485707198383477
1354.7125390148583,1354.7125390148583,1.0002698156199858,0.0009486851261205264
1354.719483589149,1354.719483589149,0.9998874539528566,0.0009486339174998544
1354.72642816344,1354.72642816344,1.0018943904776614,0.00094925916760032
1354.7333727377306,1354.7333727377306,0.9999297823262354,0.0009490854111699743
1354.7403173117887,1354.7403173117887,1.0008164806097892,0.000949647526620679
1354.7472618858933,1354.7472618858933,0.9993170333610422,0.0009495436682408417
1354.7542064599515,1354.7542064599515,1.0000641459335218,0.0009492397826525946
1354.7611510339161,1354.7611510339161,1.0005349003692667,0.0009498038809388411
1354.7680956078814,1354.7680956078814,0.9992704746837193,0.0009500274260222548
1354.7750401817061,1354.7750401817061,0.9985666912650417,0.0009503878134398309
1354.7819847555318,1354.7819847555318,1.0000172026768528,0.0009507245809644611
1354.7889293293103,1354.7889293293103,0.9993211825864439,0.0009508159511090813
1354.795873903042,1354.795873903042,1.0023677430467353,0.0009520330670778499
1354.802818476635,1354.802818476635,1.0005024846821717,0.0009506816952281774
1354.809763050227,1354.809763050227,0.9995105427001498,0.0009507445638755744
1354.8167076237728,1354.8167076237728,1.0005288697505303,0.0009512251422743301
1354.823652197272,1354.823652197272,0.999437028441973,0.0009504377856110358
1354.8305967706783,1354.8305967706783,0.9999905282185955,0.0009506675101672109
1354.837541344085,1354.837541344085,0.9996867289081207,0.0009510980652371846
1354.8444859173505,1354.8444859173505,1.0013117817998527,0.000950828857827501
1354.8514304906637,1354.8514304906637,1.0016024198683862,0.0009513468358553068
1354.8583750637904,1354.8583750637904,0.9994385557960005,0.0009514041369734748
1354.8653196369173,1354.8653196369173,0.9986469893364498,0.0009508037021716799
1354.872264210044,1354.872264210044,0.9986675768670935,0.0009510926475068931
1354.8792087831705,1354.8792087831705,0.999602052535612,0.0009508120161685769
1354.8861533561576,1354.8861533561576,0.9994894395838815,0.0009507144713878605
1354.8930979290983,1354.8930979290983,1.0003380691761001,0.0009509545017040612
1354.9000425019922,1354.9000425019922,1.0053557935769308,0.0009522619477472106
1354.906987074839,1354.906987074839,1.0008322228677886,0.0009512232894774806
1354.913931647547,1354.913931647547,1.0003834954811588,0.0009507269603550635
1354.920876220301,1354.920876220301,0.9996281728069383,0.0009506497077417438
1354.9278207929622,1354.9278207929622,0.9993694721966943,0.0009501064059726002
1354.9353209313804,1354.9353209313804,1.000166044293802,0.0009502216167467531
1354.9430988526303,1354.9430988526303,0.9997293896271351,0.0009500843528948321
1354.9500434251052,1354.9500434251052,0.9993907860750337,0.0009500165954142038
1354.9569879975334,1354.9569879975334,1.0005633985430618,0.0009498826891227767
1354.9639325698683,1354.9639325698683,1.0006065638383592,0.000950117161369463
1354.9708771422502,1354.9708771422502,0.9996193256267218,0.0009499438793803654
1354.9778217144922,1354.9778217144922,0.9998913462971963,0.0009496902769576569
1354.9847662867342,1354.9847662867342,1.0005351838236085,0.0009498531575860026
1354.991710858883,1354.991710858883,0.9990603008618878,0.0009494931311717754
1354.9986554309385,1354.9986554309385,1.000508099177203,0.000949762967237158
1355.0056000030406,1355.0056000030406,0.9991202787113075,0.0009492900868955913
1355.0125445750966,1355.0125445750966,1.0008022099586698,0.0009497526251563018
1355.0194891470123,1355.0194891470123,0.9998407546011837,0.00094950710515094
1355.0264337187891,1355.0264337187891,0.9999849149978598,0.0009494035231816476
1355.0333782907048,1355.0333782907048,1.0002306941300392,0.0009493248503151975
1355.0403228624812,1355.0403228624812,1.0012775311104654,0.0009494906243589123
1355.0472674341645,1355.0472674341645,0.9995350472839185,0.0009491245055761423
1355.0542120058476,1355.0542120058476,0.9992306203018491,0.0009487198694352013
1355.0611565774375,1355.0611565774375,0.9978128736644288,0.0009485330282307388
1355.0681011490278,1355.0681011490278,1.0015209457889902,0.0009491109956397748
1355.0750457205243,1355.0750457205243,0.9992912223511082,0.0009487208488724016
1355.0819902919748,1355.0819902919748,1.0012603302543186,0.0009489198665004114
1355.0889348633784,1355.0889348633784,0.9994227796032533,0.0009484803534833663
1355.0958794347357,1355.0958794347357,1.0011081392651606,0.0009489339797749713
1355.102824006,1355.102824006,0.9998189706191777,0.0009484097607185292
1355.1097685772172,1355.1097685772172,1.000113639146963,0.0009485816207197032
1355.1167131483885,1355.1167131483885,0.9997201339497271,0.000948263424107276
1355.123657719559,1355.123657719559,0.9995269709338588,0.0009482636570634244
1355.1306022905906,1355.1306022905906,1.0004139158974321,0.0009486883389649694
1355.137546861622,1355.137546861622,0.9999894962468749,0.0009485412076968059
1355.1444914326064,1355.1444914326064,0.9989072098270381,0.0009483957696555032
1355.1514360034514,1355.1514360034514,0.9994202667024279,0.0009485658209776119
1355.158380574436,1355.158380574436,1.001933423400672,0.000949619781815136
1355.1653251452346,1355.1653251452346,1.0006733898202458,0.0009488280751801598
1355.1722697158468,1355.1722697158468,0.9985232798665227,0.0009487898730766916
1355.1792142865986,1355.1792142865986,1.0016053235401678,0.0009497745362886601
1355.1861588572106,1355.1861588572106,0.9993650190117627,0.0009500920199721367
1355.1931034278232,1355.1931034278232,1.0006156710260692,0.0009505211537885014
1355.200047998342,1355.200047998342,1.000301396723184,0.0009502950667030068
1355.2069925687676,1355.2069925687676,0.9984737247304609,0.0009501209182957564
1355.2139371392404,1355.2139371392404,0.9994376022316149,0.000950258949338335
1355.2208817096196,1355.2208817096196,1.0003137206277277,0.0009508617375855507
1355.2278262799057,1355.2278262799057,0.9992589894985358,0.0009505792840173577
1355.2347708501457,1355.2347708501457,0.9997736144837445,0.0009511141104098132
1355.2417154203383,1355.2417154203383,1.0011141930571419,0.0009510388249025861
1355.2486599905315,1355.2486599905315,1.0005513475744472,0.0009510955297151495
1355.2556045606314,1355.2556045606314,1.0008370125912525,0.0009511692710673589
1355.2625491306849,1355.2625491306849,1.0005618974744226,0.0009509889354969607
1355.269493700645,1355.269493700645,0.9992415780509551,0.0009509704565984703
1355.2764382706052,1355.2764382706052,0.9989218276521452,0.0009508595273847867
1355.2833828404723,1355.2833828404723,0.999484837098587,0.0009507384986385941
1355.290327410293,1355.290327410293,0.9991228653526157,0.0009507102717704194
1355.2972719801132,1355.2972719801132,1.0012217062652993,0.0009512312983611714
1355.3042165497943,1355.3042165497943,1.000608165580336,0.0009513322268342714
1355.3111611194286,1355.3111611194286,0.9990403939276465,0.0009509240088082736
1355.3181056890626,1355.3181056890626,0.9991359010225122,0.0009508864562697133
1355.3250502586973,1355.3250502586973,1.0005903754876726,0.0009508406122974555
1355.331994828145,1355.331994828145,1.0007920033963635,0.0009505325248003896
1355.34032831152,1355.34032831152,1.0001492692853096,0.0009505802575121168
1355.3472728809215,1355.3472728809215,1.00017252390324,0.0009502040377814483
1355.3542174502297,1355.3542174502297,1.0004510994646156,0.0009505727826548147
1355.3611620195381,1355.3611620195381,0.9984177535080698,0.0009494785055310292
1355.368106588753,1355.368106588753,1.000907831269706,0.0009499294260573068
1355.3750511579217,1355.3750511579217,1.0003201346342538,0.000949998270876705
1355.3819957270905,1355.3819957270905,0.9995419919550252,0.0009495884968933641
1355.388940296119,1355.388940296119,1.0001216964827804,0.0009499504368524097
1355.3961626479336,1355.3961626479336,1.0001234161406913,0.000949939376470409
1355.4042183478712,1355.4042183478712,0.9995546421371765,0.000949881727381751
1355.411162916807,1355.411162916807,0.9999702329806596,0.0009498410705032365
1355.4181074856497,1355.4181074856497,0.999833436722987,0.0009498675115506203
1355.4250520543992,1355.4250520543992,1.0006134643348346,0.0009496575066353354
1355.4319966231953,1355.4319966231953,0.9990174848185586,0.000949122215407349
1355.4389411918517,1355.4389411918517,1.0002719922390753,0.0009496760441944999
1355.4458857605082,1355.4458857605082,1.0013968009447107,0.0009495821241821434
1355.4528303290244,1355.4528303290244,1.0010547889057821,0.0009498869047474164
1355.4597748975416,1355.4597748975416,0.9982054667901483,0.0009491843342725127
1355.4667194661047,1355.4667194661047,0.9998013287551532,0.0009492305339570836
1355.473664034435,1355.473664034435,1.000131534742702,0.0009497588445752263
1355.4806086029052,1355.4806086029052,0.9994316837005698,0.0009488820417815142
1355.487553171189,1355.487553171189,1.0003258857136579,0.0009494836495563727
1355.494497739473,1355.494497739473,0.9994082776535201,0.0009487976343439793
1355.5014423076636,1355.5014423076636,1.0006090535080787,0.0009493986167054211
1355.5083868758077,1355.5083868758077,1.0000966037495016,0.0009490214966691869
1355.5153314439517,1355.5153314439517,1.0007189652504256,0.0009488079792903971
1355.5222760120027,1355.5222760120027,0.9990190965034657,0.0009484833830898437
1355.5292205800074,1355.5292205800074,1.0001544828242797,0.0009487720864248612
1355.5361651479186,1355.5361651479186,1.000171277268279,0.0009485195410354156
1355.54310971583,1355.54310971583,1.0004855081058306,0.000948592280388229
1355.5500542836949,1355.5500542836949,0.9993543611869414,0.0009483923501033267
1355.5569988514665,1355.5569988514665,0.9982345386786676,0.0009483834708822438
1355.5639434191914,1355.5639434191914,1.000717016154519,0.0009487271648076793
1355.57088798687,1355.57088798687,1.000677511562008,0.0009488611838647599
1355.5778325545484,1355.5778325545484,1.0000828588162207,0.0009486830427595794
1355.5847771220874,1355.5847771220874,0.9983750887324364,0.0009480993451272034
1355.591721689626,1355.591721689626,1.0009632660233039,0.0009487600740471858
1355.5986662571183,1355.5986662571183,1.0000425445839982,0.0009484134185643893
1355.6056108244707,1355.6056108244707,0.9976005742653047,0.0009478628192006748
1355.6125553919633,1355.6125553919633,0.9996542125850478,0.0009482656852148547
1355.6194999592692,1355.6194999592692,0.9997581798385561,0.0009485011404749378
1355.626444526482,1355.626444526482,1.0006598586026079,0.0009485961830755192
1355.633389093648,1355.633389093648,1.033561353827373,0.0009568921815466683
1355.6403336608612,1355.6403336608612,1.0384634433077573,0.0009576049119628356
1355.6472782279338,1355.6472782279338,1.0186818659126162,0.0009510165640110311
1355.6542227950074,1355.6542227950074,1.005934518711631,0.0009469736235382369
1355.6611673620337,1355.6611673620337,1.002672823459943,0.0009464625336549183
1355.6681119289208,1355.6681119289208,1.0008114589133486,0.0009466729348909036
1355.6750564958543,1355.6750564958543,1.0000868029997265,0.0009469355316245659
1355.6820010626943,1355.6820010626943,0.9991598748354109,0.0009475563594037298
1355.688945629488,1355.688945629488,0.998229445348772,0.0009482066559399089
1355.695890196189,1355.695890196189,1.0002353116155567,0.0009489596998367442
1355.702834762936,1355.702834762936,0.9996465695068906,0.0009495018153499882
1355.70977932959,1355.70977932959,1.0006294905944806,0.0009499609278615865
1355.716723896198,1355.716723896198,0.9996768365055603,0.0009501795872405218
1355.7236684627119,1355.7236684627119,1.0011060495905084,0.000950843863511304
1355.73061302918,1355.73061302918,0.9988856352806239,0.0009505750682868364
1355.7375575956007,1355.7375575956007,0.9990989342960284,0.0009504916969445929
1355.7450577273132,1355.7450577273132,0.9998305631460562,0.0009503819116593971
1355.752835641532,1355.752835641532,0.9996052568931004,0.0009500959169727163
1355.7597802079065,1355.7597802079065,0.9996910424080754,0.0009498363286271217
1355.7667247740485,1355.7667247740485,0.9998120644964377,0.0009498654728049788
1355.7736693401905,1355.7736693401905,1.0003042488279457,0.0009499152300607904
1355.7806139063318,1355.7806139063318,1.0023003104621928,0.0009505644368417056
1355.7875584724272,1355.7875584724272,1.0014008001253196,0.0009498746241406435
1355.794503038383,1355.794503038383,1.0014590896411475,0.0009495756762350425
1355.8014476043386,1355.8014476043386,1.0002624285538397,0.0009495978040209701
1355.8083921702475,1355.8083921702475,1.0000624406535827,0.0009496161603652836
1355.8153367361099,1355.8153367361099,0.9993579129887922,0.0009496921478327699
1355.8222813019256,1355.8222813019256,0.9996913353446398,0.0009496428643106642
1355.8292258676488,1355.8292258676488,0.9999809595297033,0.0009493857559407187
1355.8361704333715,1355.8361704333715,0.9992142711540055,0.000949510997709376
1355.8431149990006,1355.8431149990006,0.9988180079098029,0.0009495484281880073
1355.8500595645373,1355.8500595645373,0.9996769198648071,0.0009494523749808718
1355.8570041301205,1355.8570041301205,1.0000677186445714,0.0009492728290335904
1355.8639486956101,1355.8639486956101,1.000928893299252,0.0009497529403587462
1355.8708932610539,1355.8708932610539,1.0007226968115153,0.0009498264754952553
1355.8778378264037,1355.8778378264037,1.0007913642323933,0.0009494361271440533
1355.8847823918009,1355.8847823918009,0.9996340028285251,0.0009491985879532998
1355.8917269570575,1355.8917269570575,1.0000096492844213,0.0009490073506140216
