time,time,flux,flux_err
1325.2996584952825,1325.2996584952825,1.00003440593483,0.00021809659661688093
1325.3079916506465,1325.3079916506465,1.0001490831239905,0.00021810501263569887
1325.3163248062876,1325.3163248062876,0.9998195299508886,0.00021806024388077583
1325.3246579622385,1325.3246579622385,0.9997217209543275,0.00021805723442906103
1325.3322966887595,1325.3322966887595,1.0004006837589274,0.0001991200311207014
1325.3392409858131,1325.3392409858131,1.0001463485514313,0.00019910814582652325
1325.3461852830653,1325.3461852830653,0.9998276001224552,0.0001990976734330239
1325.353129580509,1325.353129580509,0.9999435292927299,0.00019910689976899437
1325.3600738781504,1325.3600738781504,0.9999870435591305,0.00019916138745972766
1325.3670181759849,1325.3670181759849,1.0000133833993892,0.00019916955561711234
1325.3739624740106,1325.3739624740106,1.0001216767978667,0.00019919372029015523
1325.3809067722286,1325.3809067722286,0.9999420100126963,0.00019919677419699791
1325.3878510706386,1325.3878510706386,0.9999975694441657,0.0001992350629195391
1325.3947953692286,1325.3947953692286,1.000109480533308,0.0001992803365745555
1325.401739668,1325.401739668,0.9999381482388637,0.0001992856419714952
1325.4086839669628,1325.4086839669628,0.9998441016295161,0.00019929830009362032
1325.4156282661181,1325.4156282661181,1.0000827359430475,0.0001993566008283021
1325.422572565442,1325.422572565442,1.0001190566315148,0.00019938241566991912
1325.4295168649464,1325.4295168649464,0.9998803013120838,0.00019939085501653785
1325.4364611646429,1325.4364611646429,1.0001153390990687,0.0001994391074701471
1325.4434054645021,1325.4434054645021,0.9997291417255652,0.00019942998412463488
1325.4503497645478,1325.4503497645478,1.0001576363735079,0.0001994896185778063
1325.4572940647624,1325.4572940647624,0.9999484401235872,0.00019949933353911845
1325.4642383651574,1325.4642383651574,0.9999904720952573,0.00019951421302229298
1325.4711826657153,1325.4711826657153,1.0001045387008995,0.00019954634421735342
1325.4781269664595,1325.4781269664595,0.9999533250100889,0.00019956652197009956
1325.4850712673606,1325.4850712673606,1.0000184085880903,0.00019960307723614792
1325.492015568437,1325.492015568437,0.9999396398475879,0.00019962614252611851
1325.4989598696816,1325.4989598696816,0.9999284196938651,0.00019964953525775211
1325.5059041710895,1325.5059041710895,1.00007689012006,0.00019969367142843084
1325.5128484726483,1325.5128484726483,1.0001784984012203,0.00019972812784736392
1325.519792774388,1325.519792774388,0.9999614702740806,0.00019973259372186143
1325.526737076273,1325.526737076273,0.9999189888335704,0.0001997730784958783
1325.5336813783329,1325.5336813783329,1.0001680673678366,0.00019981356018985278
1325.5406256805436,1325.5406256805436,0.9996935504318041,0.0001998172410902812
1325.5475699829121,1325.5475699829121,1.000259795062829,0.0001998899654252696
1325.5545142854487,1325.5545142854487,1.000210739100528,0.0001999037870103916
1325.5614585881258,1325.5614585881258,0.9996406434689398,0.00019988429739050377
1325.5684028909538,1325.5684028909538,0.9998658783555466,0.0001999278322251958
1325.5753471939388,1325.5753471939388,0.9998421625656695,0.0001999542517509602
1325.5822914970934,1325.5822914970934,1.0000512844380882,0.0001999971960618406
1325.5892358003687,1325.5892358003687,1.0000529271411938,0.0002000025732830036
1325.5961801038084,1325.5961801038084,1.0000644971345456,0.00020001962739876243
1325.603124407387,1325.603124407387,1.000018831743884,0.00020003630538641633
1325.6100687111175,1325.6100687111175,1.000294928379385,0.00020008011368568613
1325.6170130149874,1325.6170130149874,1.000270160110049,0.00020008130702505394
1325.623957318997,1325.623957318997,0.9996508615506162,0.00020002760902353224
1325.6309016231696,1325.6309016231696,1.0000179023835187,0.00020007084042340012
1325.6378459274647,1325.6378459274647,0.9995716319206391,0.00020004151332961626
1325.644790231893,1325.644790231893,1.0003388890288778,0.00020010671965903573
1325.6517345364675,1325.6517345364675,0.9998164712532734,0.00020008196930128085
1325.6586788411814,1325.6586788411814,0.9998942933624633,0.00020008086182070052
1325.6656231460295,1325.6656231460295,1.000051616546433,0.00020010620650836637
1325.6725674510108,1325.6725674510108,1.0003199368603908,0.00020013182822284159
1325.679511756121,1325.679511756121,1.0000471446660535,0.00020012611805792134
1325.6864560613703,1325.6864560613703,1.0001051450483103,0.00020015139015078934
1325.6934003667416,1325.6934003667416,0.9998683869175847,0.00020013710072036708
1325.7003446722538,1325.7003446722538,0.9998518552831717,0.00020015847827690338
1325.7072889778929,1325.7072889778929,1.0001302686111682,0.00020020505721512718
1325.7142332836488,1325.7142332836488,0.9999341471921163,0.00020018209659459439
1325.7211775895441,1325.7211775895441,0.999722379894947,0.00020019558383906354
1325.7281218955563,1325.7281218955563,1.0000085924710396,0.00020023930209159767
1325.7350662016847,1325.7350662016847,1.000025053954068,0.0002002665495467374
1325.7420105079468,1325.7420105079468,0.9999842535802193,0.00020028941573556667
1325.7489548143312,1325.7489548143312,1.0000723705611456,0.00020031330000613515
1325.7558991208266,1325.7558991208266,1.0003002989164285,0.00020035231401054968
1325.7628434274498,1325.7628434274498,1.0000089107672219,0.00020038194554043506
1325.7697877341893,1325.7697877341893,1.0001856596838048,0.00020042318771774145
1325.7767320410396,1325.7767320410396,0.9997241976626885,0.0002004212573976634
1325.783676348006,1325.783676348006,1.000026237573398,0.00020047223401410347
1325.7906206551008,1325.7906206551008,0.9999571926525903,0.00020049932920949433
1325.7975649622942,1325.7975649622942,0.999887484072277,0.00020050418477776422
1325.8045092696161,1325.8045092696161,0.9999607016563802,0.0002005417428147523
1325.8114535770364,1325.8114535770364,1.0001280051401826,0.00020058275619508508
1325.818397884568,1325.818397884568,0.9999944133618897,0.0002005834536011164
1325.8253421922213,1325.8253421922213,0.9999118260959922,0.00020060500331757803
1325.8322864999677,1325.8322864999677,1.0000059140081254,0.00020063226279095543
1325.839230807831,1325.839230807831,0.9997679402706534,0.00020061435426177373
1325.8461751157986,1325.8461751157986,1.0000865351727302,0.00020065109628546483
1325.8531194238767,1325.8531194238767,1.0002674196017622,0.00020068128000619209
1325.8600637320544,1325.8600637320544,1.0002843270174238,0.00020066663280600858
1325.867008040348,1325.867008040348,0.9998604654070764,0.0002006458645601995
1325.8739523487293,1325.8739523487293,0.9996638036257371,0.00020061152629727476
1325.8808966572149,1325.8808966572149,0.9999882414928791,0.00020062515759396767
1325.8878409658055,1325.8878409658055,1.0002447899202107,0.0002006409646636352
1325.8947852744834,1325.8947852744834,0.9998732244746552,0.00020062194718057182
1325.9017295832718,1325.9017295832718,0.9997164663477631,0.00020058181248423904
1325.908673892165,1325.908673892165,1.0003141253476262,0.0002006323836979044
1325.9156182011457,1325.9156182011457,1.0002279588376273,0.00020061650698613618
1325.922562510225,1325.922562510225,1.000011165258594,0.0002006047772286035
1325.929506819398,1325.929506819398,0.9997355838122388,0.00020058093187323402
1325.9364511286635,1325.9364511286635,0.9999147309571639,0.00020059596840400052
1325.9433954380224,1325.9433954380224,0.9997622003080588,0.00020057144705824676
1325.950339747475,1325.950339747475,0.9999780749041605,0.0002005976515263523
1325.9572840570318,1325.9572840570318,1.0002902727911551,0.00020063670047899222
1325.9653394562142,1325.9653394562142,1.0001052489391322,0.0002006027299230875
1325.9725615383547,1325.9725615383547,0.9999655156133492,0.00020059550026902992
1325.979505848185,1325.979505848185,1.0000335386094874,0.00020061990681934636
1325.9864501581028,1325.9864501581028,0.9997061390622675,0.00020059497592019357
1325.993394468125,1325.993394468125,1.000352949293139,0.00020065812250511365
1326.0003387782176,1326.0003387782176,1.000132062129552,0.00020065280791787044
1326.0072830884087,1326.0072830884087,0.9999412217303838,0.00020066303775877737
1326.0142273986644,1326.0142273986644,0.9998088422544613,0.00020067614805589464
1326.0211717090187,1326.0211717090187,1.0002941018028295,0.00020074715884618207
1326.0281160194604,1326.0281160194604,0.9998569818565126,0.00020073518293848525
1326.0350603299835,1326.0350603299835,0.9996033466750621,0.00020070241434889678
1326.042004640576,1326.042004640576,1.000566121698482,0.000200798455646459
1326.0489489512624,1326.0489489512624,0.9997884538550086,0.0002007190241489763
1326.055893262018,1326.055893262018,0.9997096072144895,0.00020070816510341593
1326.0628375728672,1326.0628375728672,1.0000107283059525,0.00020075267244572102
1326.069781883786,1326.069781883786,0.9999072229532564,0.00020073949567266008
1326.0767261947863,1326.0767261947863,1.0001329751393908,0.00020075673761812675
1326.0836705058625,1326.0836705058625,0.9999125397207871,0.00020074282163137547
1326.0906148170202,1326.0906148170202,1.0003861694404772,0.00020080057270186984
1326.0975591282474,1326.0975591282474,1.000079655827737,0.0002007517816263447
1326.1045034395568,1326.1045034395568,1.000399613211647,0.00020078572574550708
1326.1114477509407,1326.1114477509407,0.9999962637128619,0.00020075315522540205
1326.1183920623896,1326.1183920623896,0.9999489696981037,0.00020072507298853553
1326.1253363739136,1326.1253363739136,0.9998612737244159,0.0002007019623506144
1326.1322806855198,1326.1322806855198,0.9998463024053464,0.0002007177361668392
1326.1392249971952,1326.1392249971952,0.9998158346991726,0.00020069254430751408
1326.146169308935,1326.146169308935,0.9999147464897234,0.0002007106011370868
1326.1531136207443,1326.1531136207443,1.0002526943611734,0.00020073884742724313
1326.1600579326293,1326.1600579326293,0.9999786681347352,0.00020070538946323607
1326.1670022445844,1326.1670022445844,1.000249083342219,0.0002007241839969166
1326.173946556609,1326.173946556609,1.0000582818235082,0.00020067283321496105
1326.1808908686983,1326.1808908686983,0.9999795341244097,0.00020067509616378447
1326.1878351808568,1326.1878351808568,1.0000206815675046,0.00020066168272535244
1326.1947794930797,1326.1947794930797,1.000102281394963,0.00020067947555219525
1326.2017238053722,1326.2017238053722,0.9998898164202329,0.0002006399030501526
1326.2086681177288,1326.2086681177288,0.999888547622624,0.00020064784771325322
1326.2156124301553,1326.2156124301553,0.999778681985134,0.00020063100984124807
1326.2225567426342,1326.2225567426342,0.9998663255357105,0.0002006308632572608
1326.229501055183,1326.229501055183,1.0005425798576189,0.00020069114619993645
1326.2364453677956,1326.2364453677956,0.9997500222780108,0.00020062224641525313
1326.2433896804778,1326.2433896804778,0.9998443302800085,0.00020062503163087016
1326.2503339932075,1326.2503339932075,1.0000737700135935,0.00020063582236499612
1326.2572783060064,1326.2572783060064,1.0000491787920016,0.0002006345517280786
1326.2642226188696,1326.2642226188696,0.99988798050117,0.00020060564922211224
1326.271166931785,1326.271166931785,1.000111148940174,0.00020061943672624056
1326.2781112447642,1326.2781112447642,1.0003026698685198,0.00020062589531041138
1326.2850555578077,1326.2850555578077,0.9998734841328926,0.00020059459908657726
1326.2919998709035,1326.2919998709035,1.0000266535333755,0.00020059918198305488
1326.298944184058,1326.298944184058,0.9996431607991095,0.0002005726224966781
1326.3058884972756,1326.3058884972756,1.0001631171353633,0.00020061586886376128
1326.3128328105408,1326.3128328105408,1.0002281119370173,0.0002006315142814556
1326.319777123875,1326.319777123875,0.9999316370296402,0.00020059405732986542
1326.3267214372559,1326.3267214372559,0.9997303982519898,0.0002005997326630418
1326.3336657506954,1326.3336657506954,1.0001328115977697,0.00020064701252435436
1326.340610064187,1326.340610064187,1.0000444995291258,0.00020064465113129554
1326.3486654679098,1326.3486654679098,0.9998381768367197,0.00020063025347559304
1326.3572764167939,1326.3572764167939,1.0000800986021465,0.00020066089000097073
1326.3642207304722,1326.3642207304722,1.000090784665638,0.00020068054719361207
1326.3711650442024,1326.3711650442024,0.9998889342704551,0.000200663849520783
1326.378109357985,1326.378109357985,1.0001812190322923,0.0002006986353999677
1326.3850536718144,1326.3850536718144,0.9998267633527387,0.00020067249005172033
1326.3919979857017,1326.3919979857017,1.0001950876878798,0.00020070115790862727
1326.398942299642,1326.398942299642,0.9999127496978563,0.00020071443893395594
1326.405886613628,1326.405886613628,1.0001111430942895,0.00020073607283835256
1326.4128309276616,1326.4128309276616,0.9998782970947919,0.0002007357354944685
1326.4197752417524,1326.4197752417524,0.9999225084085015,0.00020074889951867861
1326.426719555879,1326.426719555879,0.9997493274968503,0.0002007563833698527
1326.4336638700745,1326.4336638700745,1.000303758947788,0.00020082088894788838
1326.4406081843056,1326.4406081843056,0.9999091761559058,0.00020079570552625111
1326.4475524985949,1326.4475524985949,1.0002305452561355,0.0002008395775247558
1326.4544968129128,1326.4544968129128,1.0000195869519284,0.00020082956354307546
1326.4614411272894,1326.4614411272894,0.9999628313652018,0.00020083976993523345
1326.4683854417183,1326.4683854417183,0.9998693531465855,0.00020083070533704673
1326.475329756176,1326.475329756176,1.0000126472772781,0.00020087844157493283
1326.4822740706925,1326.4822740706925,0.9997653654003041,0.00020086760124195862
1326.489218385249,1326.489218385249,1.000329361112653,0.00020092500963784466
1326.4961626998524,1326.4961626998524,0.9997847993183155,0.0002008812843124899
1326.5031070144964,1326.5031070144964,1.0003178030626636,0.00020096735717536294
1326.5100513291934,1326.5100513291934,0.9997551199203972,0.00020091283043535522
1326.5169956439306,1326.5169956439306,0.9999724231865669,0.00020093892310282807
1326.5239399587028,1326.5239399587028,0.9999776609814077,0.00020096809618019395
1326.5308842735217,1326.5308842735217,0.9999626595180893,0.00020098435887357566
1326.5378285883928,1326.5378285883928,1.0000089085164776,0.0002009974733437051
1326.5447729032935,1326.5447729032935,1.0000534310623985,0.00020103887858318966
1326.5517172182401,1326.5517172182401,1.0003065157142152,0.00020107417011901743
1326.5586615332336,1326.5586615332336,0.999940333259779,0.00020104601040815792
1326.5656058482678,1326.5656058482678,1.0000837617371687,0.00020106111645363384
1326.572550163325,1326.572550163325,1.0000824905793686,0.00020107644198375562
1326.5794944784352,1326.5794944784352,0.999724157010015,0.00020104877967489095
1326.5864387935796,1326.5864387935796,0.9997378065382752,0.0002010777683472611
1326.5933831087773,1326.5933831087773,1.0000118831216072,0.00020110232668434747
1326.6003274240034,1326.6003274240034,1.000068442188431,0.00020113363447533746
1326.6072717392703,1326.6072717392703,1.0000957062414169,0.00020113530846064192
1326.6142160545842,1326.6142160545842,0.9999894636545916,0.00020113369858267157
1326.6211603699205,1326.6211603699205,0.9999526453806306,0.00020113649806865257
1326.6281046852987,1326.6281046852987,1.00012619889466,0.00020114490400700787
1326.6350490007167,1326.6350490007167,0.9999245481108245,0.00020113466288815192
1326.641993316176,1326.641993316176,1.0002558985024104,0.00020116026098388091
1326.648937631664,1326.648937631664,0.9997230206630852,0.00020112332850221636
1326.6558819471988,1326.6558819471988,0.9999027824543882,0.00020112682836836244
1326.662826262757,1326.662826262757,1.0003014509575567,0.00020113909366122518
1326.6697705783497,1326.6697705783497,0.9997083686120245,0.0002010859990147252
1326.6767148939896,1326.6767148939896,0.9999750334939688,0.00020111322650657285
1326.6836592096638,1326.6836592096638,1.0001802050121429,0.00020111179790788058
1326.6919923885082,1326.6919923885082,1.0002162466878521,0.00020109717177680032
1326.6989367042584,1326.6989367042584,0.9997183187865961,0.00020105344453004052
1326.7058810200374,1326.7058810200374,1.000213125374283,0.0002010497179754885
1326.713658653749,1326.713658653749,0.9999117771798941,0.0002010263349171437
1326.7211585148766,1326.7211585148766,0.9999633860983087,0.00020103708270040023
1326.728102830749,1326.728102830749,1.0000148252549246,0.00020101910409702842
1326.7350471466737,1326.7350471466737,0.9999306332357497,0.0002010058581877364
1326.7419914626275,1326.7419914626275,1.0003312948479617,0.00020102188762187938
1326.7489357786103,1326.7489357786103,0.9994119558477854,0.00020094457092879845
1326.7558800946283,1326.7558800946283,1.0001333564658315,0.00020100155645424753
1326.7628244106695,1326.7628244106695,1.0001405220727715,0.0002009800385768339
1326.7697687267514,1326.7697687267514,1.0004953982807798,0.00020100559885740196
1326.7767130428624,1326.7767130428624,0.9996811753960712,0.0002009251752907219
1326.7836573590025,1326.7836573590025,0.9999613358703501,0.00020094103659057372
1326.7906016751663,1326.7906016751663,1.0003254498328968,0.0002009711106719985
1326.7975459913644,1326.7975459913644,0.9997989218573228,0.00020092527713236018
1326.8044903076038,1326.8044903076038,1.0001305369999431,0.0002009450218996869
1326.811434623854,1326.811434623854,1.0001930380292485,0.00020094074326196075
1326.8183789401455,1326.8183789401455,0.9998663256018119,0.0002009257308376379
1326.8253232564662,1326.8253232564662,0.9997227131808264,0.00020089911880595977
1326.8322675728161,1326.8322675728161,1.0001342642217568,0.0002009123951573632
1326.8392118891832,1326.8392118891832,0.9998786393880158,0.0002008951025230338
1326.846156205591,1326.846156205591,1.000194492551667,0.00020091571933250957
1326.8531005220163,1326.8531005220163,0.9999292812999243,0.00020088893659756077
1326.8600448384825,1326.8600448384825,1.0000201488262817,0.00020087643024820702
1326.8669891549603,1326.8669891549603,1.000259565313258,0.00020088437809442694
1326.8739334714787,1326.8739334714787,1.0001536907685886,0.0002008779839235397
1326.8808777880147,1326.8808777880147,0.9999205730618342,0.00020081696682338417
1326.8878221045857,1326.8878221045857,0.9995711206594707,0.0002007798851505754
1326.8947664211735,1326.8947664211735,1.0000827259664369,0.0002007998143844911
1326.9017107378031,1326.9017107378031,0.9997915856311865,0.00020073016425100127
1326.9086550544378,1326.9086550544378,1.0001317616002698,0.00020076056883657715
1326.9155993711133,1326.9155993711133,0.9997312284613065,0.00020068343937673237
1326.922543687801,1326.922543687801,1.0001690220206851,0.00020069231655360249
1326.9294880045288,1326.9294880045288,0.9998552399997214,0.00020063727813337292
1326.9364323212744,1326.9364323212744,1.0002072812415213,0.00020065315770114302
1326.9433766380484,1326.9433766380484,1.000160847505728,0.00020062377042078718
1326.9503209548411,1326.9503209548411,1.000408936255021,0.00020062292151158662
1326.957265271656,1326.957265271656,0.9996124095757809,0.00020054432051510446
1326.964209588501,1326.964209588501,1.0001588595717568,0.00020056648267354008
1326.9711539053744,1326.9711539053744,1.0000524961132038,0.00020054843106099684
1326.9780982222594,1326.9780982222594,0.9999345196019567,0.000200529100022185
1326.9850425391683,1326.9850425391683,0.9998114992272289,0.00020050610391239898
1326.9919868561115,1326.9919868561115,0.9999095967737333,0.00020050517608365045
1326.9989311730722,1326.9989311730722,1.0000372627338423,0.00020048263635995132
1327.0058754900565,1327.0058754900565,0.9998195238183365,0.0002004760016568634
1327.0128198070581,1327.0128198070581,1.000083333756608,0.00020051577324778358
1327.0197641240889,1327.0197641240889,0.9999020033813265,0.00020048372845444065
1327.0267084411312,1327.0267084411312,1.0001414378668976,0.00020051738940890328
1327.0336527582026,1327.0336527582026,1.0000984071443249,0.00020052234281396947
1327.0405970753031,1327.0405970753031,1.000277152246957,0.0002005277953553413
1327.0475413924155,1327.0475413924155,1.0000894111117644,0.00020051868028920293
1327.0544857095567,1327.0544857095567,0.9998468126211145,0.00020048848488941136
