time,time,flux,flux_err
1325.2978357697311,1325.2978357697311,1.0001427188695433,0.0002113698073598588
1325.3061692116078,1325.3061692116078,1.000094331838497,0.00021145869139253286
1325.3138082002895,1325.3138082002895,0.9998148983480055,0.00019299895332579992
1325.3207527356747,1325.3207527356747,0.9997907204750737,0.00019300622115320855
1325.3276972712458,1325.3276972712458,0.9998672424273372,0.0001930177927663078
1325.3346418070735,1325.3346418070735,0.999932220211756,0.00019304799376961308
1325.3415863430407,1325.3415863430407,1.0001056092923806,0.00019307879503360285
1325.348530879194,1325.348530879194,1.0001077445047244,0.00019312867707585901
1325.3554754155805,1325.3554754155805,0.999930969944257,0.0001931424433390587
1325.3624199521528,1325.3624199521528,1.000270436868184,0.00019320646403386935
1325.3693644889117,1325.3693644889117,0.9999367664881266,0.00019321845948637608
1325.3763090258333,1325.3763090258333,0.9999574875977328,0.0001932535037323893
1325.3832535629417,1325.3832535629417,1.0000496068124451,0.00019329663382652404
1325.390198100259,1325.390198100259,0.9997577475372174,0.00019336958472624018
1325.3971426377625,1325.3971426377625,1.0000700671621094,0.00019343482312698783
1325.40408717543,1325.40408717543,0.9999638476051143,0.0001934452232021874
1325.4110317132358,1325.4110317132358,1.000050397503364,0.00019349680736682528
1325.4179762512526,1325.4179762512526,1.0000814405323977,0.00019354716498820498
1325.4249207894313,1325.4249207894313,1.0001458360190427,0.00019362393448587085
1325.4318653277733,1325.4318653277733,0.9999764669868985,0.00019364916228857757
1325.4388098662787,1325.4388098662787,1.0001465627775779,0.00019371358181487756
1325.445754404993,1325.445754404993,0.9998964547088965,0.0001937172504203047
1325.452698943824,1325.452698943824,1.000048320973954,0.00019378324669404572
1325.4596434828177,1325.4596434828177,0.9999096965958423,0.00019379889090962615
1325.4665880219745,1325.4665880219745,0.999813729479395,0.00019384673953195685
1325.473532561295,1325.473532561295,0.9996379636155343,0.0001938756482875952
1325.4804771007543,1325.4804771007543,1.0000139440655755,0.0001939609046721787
1325.4874216403307,1325.4874216403307,1.0001440148699814,0.00019401621636155317
1325.4943661801397,1325.4943661801397,0.9999485160288053,0.00019403262833997772
1325.5013107200878,1325.5013107200878,1.000453717669472,0.00019411641694785315
1325.5082552601066,1325.5082552601066,1.0000705847577191,0.00019413583735881058
1325.5151998003575,1325.5151998003575,0.9997627463048516,0.0001941456892246194
1325.5221443406788,1325.5221443406788,0.9997189177394951,0.00019421163904738154
1325.5290888811626,1325.5290888811626,0.9999939471264374,0.00019428317421589232
1325.5360334217867,1325.5360334217867,0.999971057766507,0.00019432116731838198
1325.5429779625968,1325.5429779625968,1.0001592272109363,0.0001943743216305344
1325.5499225034764,1325.5499225034764,1.0001914800867593,0.00019444081323354026
1325.556867044473,1325.556867044473,1.0001957488216047,0.00019447537818995174
1325.5638115856555,1325.5638115856555,0.9999806727981015,0.0001945157829998802
1325.5707561269544,1325.5707561269544,1.00013437617033,0.00019458484468757258
1325.5777006683934,1325.5777006683934,0.9997738067613803,0.00019459007334067597
1325.5846452099017,1325.5846452099017,0.9995872911018818,0.00019462046049888827
1325.5915897515729,1325.5915897515729,1.0003100181325832,0.00019470908350983533
1325.5985342933843,1325.5985342933843,1.0000392868443506,0.00019472569842744498
1325.6054788352885,1325.6054788352885,0.9999507569904651,0.0001947541070352986
1325.6124233773328,1325.6124233773328,0.9995427157498202,0.0001947470500401026
1325.6193679194935,1325.6193679194935,1.0002902422760467,0.00019484365003844662
1325.6263124617467,1325.6263124617467,1.000006864506543,0.00019482920378818456
1325.6332570041168,1325.6332570041168,1.0000449756146028,0.00019485104836577388
1325.6402015466501,1325.6402015466501,1.0001761863173027,0.00019487803031709307
1325.6471460892294,1325.6471460892294,1.0000149318755418,0.00019488289467283333
1325.654090631972,1325.654090631972,1.0001918672895742,0.0001948900573730801
1325.6610351748072,1325.6610351748072,0.9995599914681919,0.0001948680988614398
1325.6679797177367,1325.6679797177367,0.9999918707692734,0.00019489835915224206
1325.6749242607816,1325.6749242607816,0.9999848183894692,0.00019490506922663055
1325.6818688039434,1325.6818688039434,0.999816257013253,0.00019492029947205437
1325.6888133471748,1325.6888133471748,1.0004369380910831,0.00019499401696846373
1325.6957578905226,1325.6957578905226,0.9998605726190737,0.00019499871961466928
1325.7027024339873,1325.7027024339873,1.0001939108671924,0.00019504461002524187
1325.7096469775213,1325.7096469775213,1.000010510085032,0.00019507221836564324
1325.716591521172,1325.716591521172,1.0001868515925558,0.00019511407529345333
1325.7235360649388,1325.7235360649388,0.9997365418571773,0.00019511218550390553
1325.7304806087523,1325.7304806087523,0.9998295861013264,0.00019515907233431714
1325.7374251526824,1325.7374251526824,0.9998957180363132,0.00019518128531035878
1325.7443696967287,1325.7443696967287,1.0002032358861526,0.00019526587931770857
1325.7513142408447,1325.7513142408447,0.9997249519038703,0.00019528460847947045
1325.7582587850545,1325.7582587850545,1.000165835443854,0.00019535417649589902
1325.76520332931,1325.76520332931,1.0001132308075644,0.00019540945054001094
1325.7721478737062,1325.7721478737062,1.0003510554035664,0.00019545089781223277
1325.7790924181943,1325.7790924181943,1.0000931863713778,0.00019547733989974705
1325.7860369627538,1325.7860369627538,0.999760171575596,0.00019548328631130608
1325.7929815074053,1325.7929815074053,0.9997891614891928,0.0001955278519177615
1325.799926052127,1325.799926052127,0.9996856532539443,0.00019556560096036218
1325.8068705969417,1325.8068705969417,1.0001725279785394,0.00019562231196327992
1325.8138151417793,1325.8138151417793,0.9998520097519904,0.00019563213667462984
1325.8207596867574,1325.8207596867574,1.0002149255731736,0.00019566626050683162
1325.827704231828,1325.827704231828,1.0000481981341938,0.00019569784962202236
1325.8346487769454,1325.8346487769454,1.0000841701157075,0.00019571816978996534
1325.8415933221563,1325.8415933221563,1.0000931427122333,0.00019571754065404002
1325.8485378674363,1325.8485378674363,0.9998714718195034,0.00019569403056748246
1325.8554824127634,1325.8554824127634,1.0000514142483605,0.00019570666177246742
1325.8624269582067,1325.8624269582067,0.9997669586286854,0.00019568636454891719
1325.8693715037434,1325.8693715037434,0.9999928709207488,0.00019569161086680002
1325.87631604928,1325.87631604928,0.9999941578466321,0.00019566317748565803
1325.8832605949094,1325.8832605949094,1.0001475342257158,0.00019564111286286094
1325.8902051406326,1325.8902051406326,0.9999564597660061,0.0001956088411702331
1325.8971496863783,1325.8971496863783,1.0002150364738385,0.00019561577384007893
1325.9040942322406,1325.9040942322406,1.000023909784343,0.00019558864128552301
1325.911038778173,1325.911038778173,0.9996817410418192,0.00019553009450329377
1325.9179833241285,1325.9179833241285,1.0001706890573696,0.0001955665897907583
1325.9249278701777,1325.9249278701777,0.9999482907309997,0.00019557668774773844
1325.9318724162495,1325.9318724162495,1.000143698444262,0.00019558007526827248
1325.9388169624847,1325.9388169624847,0.9998036207368542,0.00019554641081525828
1325.9457615086963,1325.9457615086963,1.0001261309131393,0.00019557129563049428
1325.9527060550013,1325.9527060550013,1.0000032782156674,0.00019558247300545018
1325.9602061650655,1325.9602061650655,0.9999651923042083,0.00019560602672409247
1325.9679840570673,1325.9679840570673,0.9998771943865105,0.00019555247984981428
1325.9749286035353,1325.9749286035353,1.000020347644393,0.00019559023595752553
1325.981873150096,1325.981873150096,1.000109819696961,0.00019558629998563172
1325.9888176967502,1325.9888176967502,0.9997657383944627,0.00019559025330396492
1325.9957622433344,1325.9957622433344,0.9999599956775844,0.00019565850141180403
1326.002706790105,1326.002706790105,1.0002281251184548,0.00019570624107370795
1326.0096513368758,1326.0096513368758,1.0000310748210308,0.00019572065329167402
1326.016595883716,1326.016595883716,1.0000937618724408,0.00019573092055689972
1326.023540430603,1326.023540430603,1.0000989430015206,0.00019580860088399583
1326.0304849775366,1326.0304849775366,0.9997405853241874,0.0001958265457535424
1326.0374295245163,1326.0374295245163,1.0000738062793217,0.00019583848296926554
1326.0443740715666,1326.0443740715666,0.9998870126396255,0.00019582133010370367
1326.051318618663,1326.051318618663,1.0001450992609697,0.00019584741454118677
1326.0582631658058,1326.0582631658058,0.9998987385192223,0.0001958714044721827
1326.0652077130187,1326.0652077130187,0.9998775431296639,0.00019591512187381942
1326.0721522603012,1326.0721522603012,1.0001626863766948,0.0001959400299507223
1326.0790968075846,1326.0790968075846,1.000004887215534,0.0001959371604752629
1326.0860413548671,1326.0860413548671,0.9998594826127853,0.0001959564617139337
1326.0929859022897,1326.0929859022897,1.0001404906722189,0.00019600196467822688
1326.099930449712,1326.099930449712,1.0001394967740014,0.00019603573658944325
1326.1068749971807,1326.1068749971807,0.9999191537080403,0.00019602315863474843
1326.1138195447197,1326.1138195447197,0.9998084726913167,0.0001960248607121565
1326.120764092305,1326.120764092305,1.0000591380084656,0.00019604649028044717
1326.1277086399139,1326.1277086399139,1.0001158274873005,0.00019609635154525153
1326.1346531875458,1326.1346531875458,0.9999097388185753,0.00019609286605077274
1326.141597735271,1326.141597735271,1.0001740555250136,0.00019613219926350073
1326.1485422830197,1326.1485422830197,0.9999387450762885,0.00019611570610064184
1326.1554868308374,1326.1554868308374,1.000155610046853,0.00019615889502847152
1326.1624313785865,1326.1624313785865,0.9999522370421566,0.0001961758651841935
1326.1693759264974,1326.1693759264974,0.999948007427508,0.00019618563235279475
1326.1763204744323,1326.1763204744323,0.9997563294479976,0.00019617906940760168
1326.183265022367,1326.183265022367,0.9999927668775348,0.0001962213046495286
1326.1902095703479,1326.1902095703479,1.000149912606464,0.00019620567063006515
1326.1971541183996,1326.1971541183996,0.9999735432951994,0.000196228138191085
1326.2040986664736,1326.2040986664736,1.0002044491988966,0.00019628453243986064
1326.2110432145716,1326.2110432145716,0.9998102983994006,0.0001962741763592743
1326.217987762692,1326.217987762692,1.0001324048586753,0.00019628542814317294
1326.2249323109063,1326.2249323109063,0.9998399263142483,0.00019625551574178326
1326.2318768591203,1326.2318768591203,0.999821980872414,0.0001963182850106163
1326.2388214073806,1326.2388214073806,0.9998471746456777,0.000196266965775731
1326.245765955665,1326.245765955665,1.0001254006146216,0.0001963070312275184
1326.2527105039953,1326.2527105039953,1.0000892966578205,0.00019635587663563797
1326.2596550523492,1326.2596550523492,1.0000138642161684,0.00019635336647143842
1326.2665996007497,1326.2665996007497,1.0003161548374764,0.00019640289851351463
1326.2735441491961,1326.2735441491961,0.9999499523562274,0.00019638051767335504
1326.2804886976435,1326.2804886976435,1.0001700863725547,0.00019640701020248204
1326.2874332461136,1326.2874332461136,0.9999514186643651,0.0001964250362650619
1326.2943777946537,1326.2943777946537,0.9999093917002071,0.00019644239456714546
1326.3013223432165,1326.3013223432165,1.0000150200338305,0.0001964839077550201
1326.3082668918037,1326.3082668918037,0.9997487622050102,0.00019648172211551894
1326.3152114404133,1326.3152114404133,0.9997692898312257,0.00019652846860097867
1326.3221559890694,1326.3221559890694,0.9999966866326726,0.00019658512650022492
1326.3291005377732,1326.3291005377732,1.0003697225165595,0.00019665119652545774
1326.336045086476,1326.336045086476,0.9998804632711081,0.0001966721083689158
1326.342989635202,1326.342989635202,0.9999741392772215,0.00019671814187390983
1326.3527120035167,1326.3527120035167,0.9999796962800908,0.00019676699720512814
1326.359656552336,1326.359656552336,1.0002399022425061,0.00019686240243831167
1326.3666011011787,1326.3666011011787,0.9999110609616538,0.00019690463874004238
1326.3735456500447,1326.3735456500447,0.9999373011477249,0.00019692536721638596
1326.3804901989342,1326.3804901989342,1.0000604086657021,0.00019699751364192549
1326.38743474787,1326.38743474787,1.0001609038833263,0.00019705078237369843
1326.3943792968291,1326.3943792968291,1.0000200530546013,0.0001971349918972572
1326.4013238457883,1326.4013238457883,0.9997250631261597,0.0001971358300607078
1326.4082683947709,1326.4082683947709,0.9999236419848065,0.00019719291422448616
1326.4152129437998,1326.4152129437998,1.0002639197045604,0.00019727576271063395
1326.4221574928986,1326.4221574928986,0.9999275203709652,0.0001973117250929808
1326.4291020419744,1326.4291020419744,0.9999650976564712,0.0001973556767974402
1326.4360465910959,1326.4360465910959,0.9999240414960677,0.00019742730860879435
1326.4429911402183,1326.4429911402183,0.999999900250803,0.0001974855268141226
1326.4499356893637,1326.4499356893637,0.9998144030000644,0.00019750531760067842
1326.4568802385554,1326.4568802385554,0.9999483304773562,0.00019758016693248063
1326.4638247877476,1326.4638247877476,0.9999257320756912,0.00019759259243278183
1326.4707693369862,1326.4707693369862,1.0002265837023177,0.00019769706152195313
1326.477713886248,1326.477713886248,1.0002068336087322,0.0001977664635453587
1326.4846584355098,1326.4846584355098,1.0003016312294106,0.00019781780532297276
1326.4916029848182,1326.4916029848182,1.0000846524291698,0.00019787540507412723
1326.4985475341268,1326.4985475341268,0.999623628963314,0.00019789434458910085
1326.5054920834814,1326.5054920834814,1.0003216604736713,0.0001980235073984156
1326.5124366328364,1326.5124366328364,0.9994905405936135,0.00019799422741349212
1326.5193811822146,1326.5193811822146,0.9997676671902154,0.00019812026435903565
1326.5263257316396,1326.5263257316396,0.9998248617685341,0.00019823422820580325
1326.5332702810642,1326.5332702810642,1.000177893257789,0.00019830833799041426
1326.540214830489,1326.540214830489,1.0003635151852113,0.00019843648295663326
1326.5471593799605,1326.5471593799605,0.9999117702511452,0.0001985149998185339
1326.554103929455,1326.554103929455,1.0003481029963674,0.0001986061071574197
1326.561048478973,1326.561048478973,0.9999285260682225,0.0001986368657350067
1326.567993028491,1326.567993028491,0.9997925570339536,0.00019866018249572212
1326.5749375780324,1326.5749375780324,0.99973789992398,0.00019872451243507796
1326.5818821275964,1326.5818821275964,1.00003725373641,0.00019881570796301392
1326.5888266772079,1326.5888266772079,1.0003277445034253,0.00019891698125381173
1326.5957712268187,1326.5957712268187,0.9997451653620363,0.00019895902088169957
1326.60271577643,1326.60271577643,1.00007345606667,0.0001990489793698954
1326.609660326041,1326.609660326041,1.0000684071087504,0.0001991258231118052
1326.616604875745,1326.616604875745,0.999842595969865,0.0001991667489178287
1326.6235494253792,1326.6235494253792,1.0000436674857456,0.00019923910395406208
1326.6304939751067,1326.6304939751067,1.0000389567457673,0.00019929515135845756
1326.637438524811,1326.637438524811,1.000437669234446,0.00019937432826199093
1326.6443830745386,1326.6443830745386,0.9998461390513806,0.00019940296576230056
1326.651327624266,1326.651327624266,0.9998364775875608,0.00019942151746126153
1326.6582721740638,1326.6582721740638,1.0001230963107417,0.000199481930742618
1326.665216723814,1326.665216723814,0.9999209547525079,0.0001994744508937734
1326.672161273635,1326.672161273635,0.999809987310327,0.0001994954371940904
1326.679105823432,1326.679105823432,0.9997524428319341,0.00019946146320000933
1326.6868837192292,1326.6868837192292,1.0003241653673933,0.00019954151152341208
1326.694383833065,1326.694383833065,0.9998974182369924,0.00019953682463165275
1326.7013283829324,1326.7013283829324,1.000082119739676,0.00019955296438338497
1326.7085507148076,1326.7085507148076,0.9998284237544365,0.00019954921211954316
1326.7166063927057,1326.7166063927057,1.000101345111183,0.0001995450378987137
1326.723550942596,1326.723550942596,1.0002145324477305,0.00019957855486213942
1326.7304954925098,1326.7304954925098,1.0001260695634664,0.00019959733377519702
1326.73744004247,1326.73744004247,0.9997969430667049,0.00019954888822690744
1326.7443845924072,1326.7443845924072,1.0002855653663465,0.00019959098049709322
1326.751329142367,1326.751329142367,0.9998112641647683,0.00019962097810969354
1326.7582736923744,1326.7582736923744,0.9996539249921936,0.00019960535806052022
1326.7652182423576,1326.7652182423576,1.0001065928573611,0.0001996635223691074
1326.772162792365,1326.772162792365,0.9998918454148071,0.00019966757249828302
1326.7791073423948,1326.7791073423948,1.0002356260877532,0.00019968901112161515
1326.7860518924017,1326.7860518924017,0.9998815360240183,0.00019973928929569468
1326.7929964424552,1326.7929964424552,1.0001155037753036,0.00019979397091343413
1326.799940992532,1326.799940992532,1.0001060117348888,0.00019982638205703622
1326.8068855426086,1326.8068855426086,0.9997823017048946,0.00019985407871456196
1326.813830092685,1326.813830092685,0.9998492677851865,0.00019990099570845436
1326.8207746427854,1326.8207746427854,1.0001437780610682,0.00019992600934387123
1326.8277191929087,1326.8277191929087,0.9998813387930138,0.00019993758511621358
1326.8346637430084,1326.8346637430084,1.0003917151380393,0.00020000800257617763
1326.8416082931785,1326.8416082931785,0.9998449021375674,0.00019999297244991987
1326.8485528432784,1326.8485528432784,1.0002720104233551,0.00020003964189294754
1326.8554973934483,1326.8554973934483,0.9999052806210644,0.00020003354415759153
1326.8624419436417,1326.8624419436417,1.0000998117373137,0.0002000231129922217
1326.8693864938348,1326.8693864938348,1.0000250895536587,0.00019999683601471075
1326.8763310440277,1326.8763310440277,0.9995236159694301,0.00019994169898633878
1326.883275594221,1326.883275594221,1.000029619580353,0.00019990321068406712
1326.890220144414,1326.890220144414,0.9996081308704257,0.00019983306439516393
1326.8971646946072,1326.8971646946072,1.000441912123798,0.00019986068821977896
1326.9041092449165,1326.9041092449165,1.0000323641161315,0.00019978567423881995
1326.9110537951099,1326.9110537951099,1.0001570278467828,0.0001996737897460988
1326.9179983453964,1326.9179983453964,0.9999082588899457,0.00019962080792518608
1326.924942895636,1326.924942895636,0.9999432593323625,0.00019952198915297923
1326.9318874459223,1326.9318874459223,1.0001267905067293,0.00019947019252778022
1326.9388319962084,1326.9388319962084,1.0000674007509152,0.00019940426240743435
1326.945776546518,1326.945776546518,1.0002108134797234,0.00019935116491481158
1326.9527210968042,1326.9527210968042,0.9997189487476417,0.00019929659082168388
1326.9596656471372,1326.9596656471372,0.9998436961629509,0.00019922807055789576
1326.9666101974467,1326.9666101974467,1.0002788618189702,0.00019923072188131598
1326.9735547478026,1326.9735547478026,0.9996855878658192,0.0001991101547149373
1326.9804992981358,1326.9804992981358,0.9999957322657963,0.00019908855446270967
1326.9874438484683,1326.9874438484683,0.9997294999214438,0.00019903149869956354
1326.9943883988483,1326.9943883988483,1.0001154604775444,0.00019901506586881561
1327.001332949204,1327.001332949204,0.9999166216211288,0.00019903176005838224
1327.0082774996067,1327.0082774996067,1.0002376503643853,0.00019903392761433936
1327.015222049986,1327.015222049986,1.0003562331695313,0.0001990768615238639
1327.0221666003654,1327.0221666003654,1.0002879885720428,0.0001990503794996069
1327.0291111507918,1327.0291111507918,0.9998007748003245,0.00019906480817959583
1327.036055701194,1327.036055701194,0.9997534605750836,0.00019907204617796885
1327.0430002516205,1327.0430002516205,0.9999363629719816,0.00019910506142236753
1327.0499448020462,1327.0499448020462,1.0001053649722642,0.000199117075684216
