time,time,flux,flux_err
1325.3009675069345,1325.3009675069345,1.0001895468456377,0.0003742113421935664
1325.3093010215707,1325.3093010215707,0.9996764400935051,0.0003743107425163068
1325.3169400767256,1325.3169400767256,1.0001614394505385,0.0003418580837330175
1325.3238846723207,1325.3238846723207,0.9999042978207106,0.000341948157727578
1325.330829268032,1325.330829268032,0.9998214620199247,0.000342065344739164
1325.3377738637205,1325.3377738637205,0.9999464733200314,0.0003422601122282307
1325.344718459502,1325.344718459502,1.0005398514396764,0.0003425010996583788
1325.351663055283,1325.351663055283,1.0000794976532092,0.00034252334756081077
1325.358607651111,1325.358607651111,0.9996214958914091,0.000342561461408075
1325.3655522469624,1325.3655522469624,0.999862782409671,0.00034270767474159824
1325.372496842907,1325.372496842907,1.000091059438257,0.0003428030602885399
1325.3794414388744,1325.3794414388744,1.0000595676221007,0.00034285530639545337
1325.3863860348422,1325.3863860348422,0.9998196830528459,0.00034290956226153135
1325.3933306308795,1325.3933306308795,1.0000153765486084,0.0003429860244050601
1325.40027522694,1325.40027522694,1.0005571290247148,0.000343103670668939
1325.4072198230708,1325.4072198230708,1.0001756521937648,0.0003430893953178222
1325.414164419201,1325.414164419201,0.9996767443289212,0.00034303837047358436
1325.4211090153788,1325.4211090153788,0.9998960965666163,0.00034312254198226664
1325.4280536116023,1325.4280536116023,0.9999950206551323,0.0003431839652239707
1325.4349982078024,1325.4349982078024,0.9994883038016027,0.0003431280282033762
1325.4419428040965,1325.4419428040965,1.0001366243386243,0.00034325287168275896
1325.4488874004132,1325.4488874004132,1.0000040489480975,0.0003432668530391255
1325.45583199673,1325.45583199673,1.0002059930806424,0.00034331883627314346
1325.4627765931168,1325.4627765931168,1.0006903589173048,0.00034341373139421753
1325.4697211895266,1325.4697211895266,0.9992810629897354,0.0003432292268570853
1325.4766657859834,1325.4766657859834,0.999846119589787,0.0003433984313796614
1325.4836103824396,1325.4836103824396,0.999906867278899,0.00034340444544391543
1325.4905549789196,1325.4905549789196,1.0002923945735653,0.0003435645441993162
1325.4974995754462,1325.4974995754462,0.9997531695789605,0.0003435232131170561
1325.5044441719958,1325.5044441719958,1.000389993956603,0.00034374298866248593
1325.5113887685688,1325.5113887685688,1.0004231705109539,0.00034376652659831374
1325.5183333651883,1325.5183333651883,0.9997552733081398,0.0003437884839419127
1325.5252779618081,1325.5252779618081,0.9998973859756106,0.0003438672657224457
1325.5322225584507,1325.5322225584507,0.9997965264905646,0.00034400900882697576
1325.5391671551636,1325.5391671551636,1.000161237684655,0.0003441232891274528
1325.5461117518528,1325.5461117518528,0.9999934132220993,0.0003442388955598547
1325.5530563486122,1325.5530563486122,1.0001770987629923,0.00034438719420097543
1325.5600009453715,1325.5600009453715,0.9998159437795954,0.0003444195915604803
1325.5669455421307,1325.5669455421307,0.9999857868471542,0.0003445476665281547
1325.5738901389363,1325.5738901389363,0.9994963378895301,0.00034455999086992456
1325.5808347357658,1325.5808347357658,1.000325353673381,0.00034472638498918084
1325.587779332618,1325.587779332618,0.99970061872736,0.00034475559267372073
1325.5947239294935,1325.5947239294935,0.9998214274574817,0.0003448050176808494
1325.601668526369,1325.601668526369,1.000035401223479,0.00034492474232851927
1325.6086131232914,1325.6086131232914,1.0005780959226471,0.0003450465859096602
1325.615557720214,1325.615557720214,1.0002026840313216,0.0003450625015727684
1325.6225023171826,1325.6225023171826,0.999940172081416,0.0003450614049919754
1325.6294469141515,1325.6294469141515,1.000352726462737,0.00034520636759298614
1325.6363915111435,1325.6363915111435,0.9999666702708465,0.00034519631748681357
1325.6433361081356,1325.6433361081356,1.000163703478052,0.00034522450770620394
1325.6502807051506,1325.6502807051506,0.999483915102896,0.0003451656893910456
1325.6572253021895,1325.6572253021895,0.9993437542020578,0.00034519422034520443
1325.6641698992746,1325.6641698992746,1.0000531245245958,0.0003453467937075669
1325.6711144963367,1325.6711144963367,1.0002244173304329,0.00034543383500215886
1325.6780590934218,1325.6780590934218,0.9996021448341589,0.0003453912797471364
1325.6850036905305,1325.6850036905305,1.000496195011613,0.00034556607285615227
1325.6919482876624,1325.6919482876624,1.0000644645332701,0.0003455617002726913
1325.698892884794,1325.698892884794,1.0003812997397172,0.0003456987576486384
1325.705837481926,1325.705837481926,0.9997592701164646,0.0003456474950959761
1325.712782079104,1325.712782079104,1.0001853247075068,0.00034585989510304736
1325.7197266762591,1325.7197266762591,0.9994064732076385,0.0003457981624161072
1325.7266712734606,1325.7266712734606,1.000211404504491,0.0003460682906176756
1325.7336158706623,1325.7336158706623,1.0001504026817478,0.00034620433266278753
1325.7405604678875,1325.7405604678875,1.000079920159926,0.0003463367714118911
1325.7475050651124,1325.7475050651124,0.9996879332223308,0.00034646588923530964
1325.754449662337,1325.754449662337,1.0003220343082413,0.00034667346992861304
1325.7613942595856,1325.7613942595856,0.9997786821683695,0.0003467930853119173
1325.7683388568569,1325.7683388568569,1.0000186546398675,0.00034699112237575346
1325.7752834541052,1325.7752834541052,0.999718652290736,0.00034712655306108213
1325.7822280513765,1325.7822280513765,1.000422173292852,0.0003474200647637302
1325.7891726486719,1325.7891726486719,1.0002441677046037,0.00034761032286957227
1325.7961172459893,1325.7961172459893,1.0000705718873055,0.00034777452820606485
1325.8030618432374,1325.8030618432374,1.0004040643283512,0.000347977239704218
1325.8100064405792,1325.8100064405792,0.9989413726579262,0.0003479632058077353
1325.81695103792,1325.81695103792,0.9997714887783266,0.0003482560890843983
1325.823895635262,1325.823895635262,1.0000745818741419,0.0003484721902553285
1325.830840232603,1325.830840232603,1.0002237813716077,0.000348660335233395
1325.837784829944,1325.837784829944,1.0002982020266509,0.0003487907869195586
1325.844729427286,1325.844729427286,0.9999615200333176,0.00034889050729481794
1325.8516740246266,1325.8516740246266,0.9999203913719702,0.00034900734700854145
1325.8586186219682,1325.8586186219682,1.0000404225798125,0.00034913675186114295
1325.8655632193097,1325.8655632193097,0.9999037365824549,0.00034923589648598054
1325.872507816651,1325.872507816651,0.9994744009215832,0.00034920704865124474
1325.8794524140624,1325.8794524140624,1.0007290832371696,0.0003494727492800411
1325.8863970114498,1325.8863970114498,0.9998687687315415,0.0003493767409210974
1325.8933416087916,1325.8933416087916,1.0007344067695616,0.0003496443063184688
1325.9002862062027,1325.9002862062027,0.9995980944160839,0.00034963483769808823
1325.9072308035904,1325.9072308035904,0.9997021967216522,0.00034966984114200917
1325.9141754009547,1325.9141754009547,1.0000279179935894,0.0003498537042172263
1325.9211199983893,1325.9211199983893,0.9999191942499486,0.00034994788913617845
1325.928064595731,1325.928064595731,1.0001445365477397,0.0003501593865855142
1325.9350091931883,1325.9350091931883,0.9994251226457564,0.0003501707433164065
1325.94195379053,1325.94195379053,0.9999257369670689,0.0003504061705504978
1325.9488983879878,1325.9488983879878,0.9997769372972078,0.0003505091797112595
1325.9558429853291,1325.9558429853291,1.000013005360527,0.0003507289867227089
1325.9633431505742,1325.9633431505742,1.000444727247109,0.00035098693182289826
1325.971121099643,1325.971121099643,1.0002828058784432,0.0003511216743625053
1325.9780656970543,1325.9780656970543,0.9996804842744667,0.00035121854020343215
1325.9850102944652,1325.9850102944652,1.0001334166342053,0.0003515159144415617
1325.991954891853,1325.991954891853,0.9994507534236995,0.00035162216336333594
1325.9988994892879,1325.9988994892879,1.0004169874479574,0.00035195360210430257
1326.0058440866521,1326.0058440866521,1.0000864331960249,0.0003521394074681839
1326.012788684087,1326.012788684087,0.9996144645132692,0.00035236131133429784
1326.0197332814514,1326.0197332814514,1.000245529096924,0.00035278387880642717
1326.026677878886,1326.026677878886,1.00002052156534,0.000353070143994954
1326.033622476251,1326.033622476251,1.0002445034986238,0.0003533419483088997
1326.0405670736614,1326.0405670736614,0.9992565588404932,0.00035330700731461145
1326.0475116710497,1326.0475116710497,1.000528281958665,0.0003535979845335455
1326.0544562684374,1326.0544562684374,1.0000163500343235,0.0003537074323948344
1326.0614008658488,1326.0614008658488,0.9999166730664207,0.00035387700217510645
1326.06834546319,1326.06834546319,0.9997345092953568,0.0003540472470749022
1326.0752900606008,1326.0752900606008,0.9999310389175635,0.0003542143707139837
1326.0822346579891,1326.0822346579891,0.9995081648829716,0.00035432734583268376
1326.0891792553305,1326.0891792553305,1.0006581291512546,0.0003546364972029282
1326.096123852672,1326.096123852672,1.0003310262404435,0.00035474848107638305
1326.1030684501063,1326.1030684501063,1.0000203266885304,0.0003548947738699402
1326.110013047471,1326.110013047471,0.9999773864674599,0.00035501744329151445
1326.1169576448124,1326.1169576448124,1.0001156551923376,0.000355180256320619
1326.1239022421532,1326.1239022421532,0.999930083111856,0.0003552236832522418
1326.130846839495,1326.130846839495,0.9996181454924926,0.0003553517620776683
1326.1377914368363,1326.1377914368363,0.9996145363540926,0.00035544774595730873
1326.1447360341776,1326.1447360341776,1.000392193209482,0.0003556603308782162
1326.151680631519,1326.151680631519,0.9995956489347055,0.0003556436937110597
1326.1586252288598,1326.1586252288598,0.9996476363603612,0.00035572273460496686
1326.1655698261088,1326.1655698261088,1.000173350691536,0.00035585371078856434
1326.1725144234263,1326.1725144234263,0.99956616340381,0.00035585945042777573
1326.1794590207678,1326.1794590207678,1.000399196916382,0.0003559932134099989
1326.1864036180393,1326.1864036180393,1.0006300209792336,0.0003560339113215186
1326.1933482153338,1326.1933482153338,0.9999311241683945,0.00035604920881147147
1326.200292812629,1326.200292812629,1.000011241461377,0.00035610987872019206
1326.2072374099002,1326.2072374099002,0.9996741641898644,0.0003560906509583337
1326.2141820071488,1326.2141820071488,1.0000816168802271,0.0003561867414174502
1326.22112660442,1326.22112660442,0.9998709027045412,0.0003561954393571653
1326.2280712016914,1326.2280712016914,1.0000849978616069,0.0003562839959510466
1326.2350157989163,1326.2350157989163,1.000020188605708,0.0003563284241583015
1326.2419603961412,1326.2419603961412,0.999721911919052,0.00035634915702362647
1326.2489049933897,1326.2489049933897,1.000049420687536,0.00035640688614875716
1326.255849590591,1326.255849590591,1.0000313848983549,0.00035651926285904716
1326.2627941877931,1326.2627941877931,1.000593135517851,0.00035659847104556113
1326.2697387849946,1326.2697387849946,0.9999159825495674,0.00035657220623815393
1326.2766833821956,1326.2766833821956,1.0000765223897126,0.00035662092252219545
1326.2836279793746,1326.2836279793746,0.9997309020511448,0.00035662574856278463
1326.2905725765527,1326.2905725765527,1.0001847966053992,0.00035672024313956137
1326.297517173708,1326.297517173708,0.9996491888276294,0.00035667417244028326
1326.3044617708629,1326.3044617708629,0.9990931979879546,0.00035667745809068237
1326.3114063679948,1326.3114063679948,0.9996843975514045,0.00035680674874055956
1326.3183509651499,1326.3183509651499,1.0000511704783548,0.0003569398974102705
1326.325295562258,1326.325295562258,1.0005972456343597,0.00035714993939505623
1326.332240159367,1326.332240159367,1.000204012313165,0.0003571787408397016
1326.339184756475,1326.339184756475,1.0000822014764856,0.00035727548817959153
1326.3461293535606,1326.3461293535606,1.0002334376450703,0.0003574476526743695
1326.3558517894894,1326.3558517894894,1.0000401837605248,0.0003575873835211532
1326.3627963865276,1326.3627963865276,0.9998220830666857,0.00035765414052877205
1326.36974098359,1326.36974098359,1.0001479048949675,0.0003578194075710886
1326.3766855806284,1326.3766855806284,0.999423372061751,0.0003578137189256344
1326.3836301776207,1326.3836301776207,1.0000834989485579,0.000358028201270389
1326.3905747746592,1326.3905747746592,0.9996939101436526,0.0003581410057086206
1326.3975193716512,1326.3975193716512,1.0003554957308052,0.0003582829892824882
1326.4044639686433,1326.4044639686433,0.9999236510501985,0.0003583521320631986
1326.4114085656356,1326.4114085656356,0.9998571725518322,0.00035841502449137356
1326.4183531626045,1326.4183531626045,0.9999125305110284,0.00035851499929600184
1326.42529775955,1326.42529775955,1.0003353777340063,0.00035869507737546033
1326.4322423564956,1326.4322423564956,1.000046269109162,0.00035872020755865037
1326.4391869534174,1326.4391869534174,0.9999249516228549,0.00035881120475460325
1326.44613155034,1326.44613155034,1.0002683779477999,0.000358942024243837
1326.453076147239,1326.453076147239,1.00004054909333,0.00035906747889020995
1326.4600207441379,1326.4600207441379,0.9998633379921508,0.00035911153011842844
1326.4669653410133,1326.4669653410133,1.000335780833752,0.0003592910654140813
1326.473909937866,1326.473909937866,0.9995531890833774,0.0003592659119532872
1326.4808545347182,1326.4808545347182,0.9996121772897073,0.00035936140745604556
1326.4877991315475,1326.4877991315475,1.0009912705126331,0.0003596806332258068
1326.4947437283765,1326.4947437283765,1.0004217314573955,0.0003597012977787785
1326.5016883251824,1326.5016883251824,0.999523051325923,0.00035972073076807626
1326.5086329219416,1326.5086329219416,1.0000778461487083,0.00035985888732053395
1326.5155775187009,1326.5155775187009,0.9998808123314138,0.000359966131195553
1326.52252211546,1326.52252211546,1.000069999225392,0.0003601318575301431
1326.5294667122196,1326.5294667122196,0.9996032583801066,0.00036022473497643705
1326.5364113089786,1326.5364113089786,1.000369471999264,0.00036049179699278514
1326.5433559057378,1326.5433559057378,0.9999942251874991,0.0003606170033421109
1326.5503005024043,1326.5503005024043,0.9997137446256538,0.00036075098269018884
1326.55724509914,1326.55724509914,1.0001093642446954,0.00036086521438907565
1326.564189695783,1326.564189695783,0.9998781441815364,0.0003608890783042777
1326.571134292449,1326.571134292449,1.000318254073687,0.0003609709935010001
1326.578078889092,1326.578078889092,1.0000640403056056,0.00036099740349833105
1326.5850234857346,1326.5850234857346,0.9998678437399032,0.0003610785417383773
1326.5919680823313,1326.5919680823313,1.0000516037449765,0.0003611551548965493
1326.5989126789505,1326.5989126789505,0.9999083745294932,0.00036119592121278794
1326.6058572755235,1326.6058572755235,0.9999753359874578,0.0003612684453373081
1326.6128018720967,1326.6128018720967,0.9998353962952363,0.0003613374908916184
1326.619746468646,1326.619746468646,1.0002678190233676,0.000361404942790826
1326.6266910651725,1326.6266910651725,0.9997813388349897,0.00036143592218026174
1326.6336356616991,1326.6336356616991,1.0002964289916398,0.0003615633844260315
1326.640580258179,1326.640580258179,1.0000851842003802,0.0003615028816384357
1326.6475248547056,1326.6475248547056,1.0001239617570437,0.0003614844760479722
1326.6544694511854,1326.6544694511854,0.9998757696203946,0.00036145119443571443
1326.6614140475954,1326.6614140475954,1.0003680635961405,0.00036143034496013136
1326.6683586440518,1326.6683586440518,0.9995025208565428,0.0003613067636385745
1326.6753032404622,1326.6753032404622,0.999820772574448,0.0003612583581743536
1326.6822478368717,1326.6822478368717,0.9997338273617047,0.0003611691548418446
1326.6900257848233,1326.6900257848233,1.0001124764375842,0.0003611286658661595
1326.697525948904,1326.697525948904,1.000208213923186,0.00036103725720505275
1326.704470545244,1326.704470545244,0.9998339944382855,0.0003609209439271963
1326.7116929254084,1326.7116929254084,1.0000967804744767,0.0003608859999334072
1326.7197486571604,1326.7197486571604,1.0001380346218982,0.00036073867621756137
1326.7266932534308,1326.7266932534308,1.0000042789342956,0.00036063006647011584
1326.7336378497243,1326.7336378497243,0.999549625725239,0.0003605263924327659
1326.7405824459945,1326.7405824459945,1.0002033468639782,0.000360526897629251
1326.747527042195,1326.747527042195,1.0002498561312798,0.00036047244278121753
1326.754471638465,1326.754471638465,1.0001631782555487,0.0003603931658652332
1326.7614162346658,1326.7614162346658,1.0001157620605734,0.0003603700669788529
1326.7683608308425,1326.7683608308425,0.9999365338820543,0.0003602821958562386
1326.7753054270202,1326.7753054270202,1.0000208328848808,0.00036025568218496913
1326.782250023174,1326.782250023174,0.9995884824541319,0.0003602011810095574
1326.7891946192578,1326.7891946192578,0.999948455915358,0.0003602435552109228
1326.7961392154123,1326.7961392154123,0.9997102611713323,0.00036023211148406486
1326.8030838114962,1326.8030838114962,0.9999893897694857,0.00036035555998562837
1326.8100284075567,1326.8100284075567,1.000129168346017,0.0003604081116341611
1326.8169730036404,1326.8169730036404,1.0004747537089744,0.0003604347814999818
1326.823917599655,1326.823917599655,0.9999814773242207,0.0003604418312855624
1326.8308621956926,1326.8308621956926,1.0003654819287908,0.0003604843728071477
1326.8378067916835,1326.8378067916835,0.9999197095582024,0.00036039333147927814
1326.8447513876745,1326.8447513876745,0.9998284306409717,0.0003603950903239187
1326.851695983642,1326.851695983642,0.9998923952080986,0.00036038608513382114
1326.8586405795863,1326.8586405795863,1.0000148654951517,0.0003603495909153818
1326.865585175531,1326.865585175531,0.999874324692698,0.00036023642995463304
1326.8725297714286,1326.8725297714286,1.0000458164729469,0.0003601115638869055
1326.8794743673266,1326.8794743673266,0.999182847744318,0.0003598332804898455
1326.8864189632009,1326.8864189632009,1.0000899519539987,0.00035979424716364153
1326.893363559029,1326.893363559029,1.0003842297865533,0.0003595765534244517
1326.9003081548801,1326.9003081548801,1.00004673499562,0.00035929141728349647
1326.9072527506846,1326.9072527506846,1.0002140077094324,0.0003591324512292206
1326.9141973464662,1326.9141973464662,1.0003788459536913,0.00035890129677672896
1326.9211419422477,1326.9211419422477,0.9999629149552138,0.00035862838230951266
1326.9280865379822,1326.9280865379822,0.999574777664975,0.00035823387736607954
1326.9350311337173,1326.9350311337173,1.0002655156758753,0.00035807858345720427
1326.9419757294518,1326.9419757294518,0.9999157215936384,0.0003578878769436955
1326.94892032514,1326.94892032514,1.0000352346734205,0.00035769111137475955
1326.9558649208052,1326.9558649208052,1.0001270360759427,0.0003574608312902554
1326.9628095164703,1326.9628095164703,1.000127082336818,0.0003572863536593862
1326.9697541120654,1326.9697541120654,0.9996292729606111,0.00035706822444491447
1326.97669870766,1326.97669870766,1.0002142947526775,0.0003569455143086913
1326.9836433032556,1326.9836433032556,0.9996467474321058,0.0003567304432734132
1326.9905878988507,1326.9905878988507,1.0001053218486764,0.0003566376737124694
1326.9975324944462,1326.9975324944462,0.9997967853508246,0.00035651861527474733
1327.0044770899476,1327.0044770899476,0.9998448961601542,0.0003564271840231198
1327.0114216854731,1327.0114216854731,1.0001113432018345,0.0003564787805248068
1327.018366280975,1327.018366280975,1.000262061744058,0.00035644852393218544
1327.0253108764305,1327.0253108764305,0.999858621584089,0.0003563344454758734
1327.0322554718857,1327.0322554718857,1.0002096581264097,0.00035643991445048594
1327.0392000673178,1327.0392000673178,0.9998757721611966,0.0003563974591105505
1327.046144662727,1327.046144662727,1.0000855697603146,0.0003564768833526599
1327.0530892581123,1327.0530892581123,1.000792567490502,0.0003565463196534939
1327.060589421099,1327.060589421099,0.9998179186582815,0.00035652573493071563
1327.0683673678864,1327.0683673678864,0.9993665447074536,0.00035648819512505193
