time,time,flux,flux_err
1325.2981566475335,1325.2981566475335,1.0006424304980488,0.0008851336968476901
1325.306490104447,1325.306490104447,0.9994306109348665,0.0008855351110469322
1325.3148235616136,1325.3148235616136,1.0006594299678653,0.0008860504698828837
1325.3224625642686,1325.3224625642686,0.9993692031052961,0.0008092279406350905
1325.3294071123196,1325.3294071123196,0.998392750194073,0.0008096717815989774
1325.33635166058,1325.33635166058,0.9995750539406781,0.0008103296378865442
1325.343296209004,1325.343296209004,1.0004355490711028,0.0008114387544624144
1325.3502407575904,1325.3502407575904,1.0014162707645073,0.0008121889061418281
1325.3571853063866,1325.3571853063866,1.0002731806904634,0.0008128590874989765
1325.364129855346,1325.364129855346,1.0001301301996852,0.0008138235253972748
1325.371074404468,1325.371074404468,0.9997536653545975,0.0008147088574192443
1325.3780189537763,1325.3780189537763,1.0005539693320202,0.0008157472119387094
1325.3849635032477,1325.3849635032477,0.9995934481768615,0.0008165027352104223
1325.3919080529054,1325.3919080529054,1.0006105098798161,0.0008177368363717009
1325.3988526027024,1325.3988526027024,1.0000777014384323,0.0008187543101000094
1325.4057971526631,1325.4057971526631,0.9994145812144621,0.0008194301135249748
1325.412741702786,1325.412741702786,0.9992191353103854,0.000820409283807007
1325.4196862530491,1325.4196862530491,1.0002926281132882,0.0008213112627620875
1325.426630803498,1325.426630803498,0.9985376644560395,0.0008220719369796519
1325.4335753541104,1325.4335753541104,1.0008128685997393,0.0008232792456309525
1325.4405199048392,1325.4405199048392,1.000299117030178,0.0008240295109318091
1325.4474644557772,1325.4474644557772,1.000107794645109,0.0008246699332640104
1325.4544090067852,1325.4544090067852,1.0006076802491528,0.0008256600813997924
1325.4613535579795,1325.4613535579795,0.9999269993618602,0.0008261472692684653
1325.4682981093367,1325.4682981093367,0.9988067937891344,0.000826715693040523
1325.4752426608106,1325.4752426608106,1.0009829955861071,0.0008277952457852163
1325.4821872124237,1325.4821872124237,0.9998517773707996,0.0008287092327464559
1325.4891317642005,1325.4891317642005,0.9997075749093755,0.000829620045233281
1325.4960763160466,1325.4960763160466,0.9996334557383699,0.0008308601181485867
1325.5030208681255,1325.5030208681255,1.0000452081759978,0.0008323339085117086
1325.509965420298,1325.509965420298,0.9998883883060824,0.0008331410080726373
1325.5169099725863,1325.5169099725863,1.001094893504604,0.0008346134122891107
1325.5238545249915,1325.5238545249915,1.0012702046416617,0.0008358628156817349
1325.5307990775593,1325.5307990775593,0.9995638731257994,0.0008364339310348076
1325.5377436302435,1325.5377436302435,0.9994876199213987,0.0008374743628546284
1325.5446881830449,1325.5446881830449,0.9986054053926319,0.0008388493671747053
1325.551632735985,1325.551632735985,1.000198004588639,0.0008402447435909786
1325.5585772890422,1325.5585772890422,1.000399035194787,0.0008414069185323777
1325.5655218422155,1325.5655218422155,1.0001221502083202,0.0008425578271588572
1325.5724663955052,1325.5724663955052,1.000144872432515,0.0008440102538698003
1325.5794109489118,1325.5794109489118,0.9998487936613086,0.0008448319359835816
1325.586355502434,1325.586355502434,0.9994565968421778,0.0008461061122953846
1325.593300056003,1325.593300056003,1.0009690502905748,0.0008474815243607271
1325.6002446098053,1325.6002446098053,0.9997925684346421,0.0008478709381328171
1325.6071891636536,1325.6071891636536,0.9995979739120948,0.0008485859159782967
1325.6141337176189,1325.6141337176189,1.0007374624716907,0.0008495714316175892
1325.6210782717,1325.6210782717,1.0001425876768955,0.0008500611692237802
1325.628022825828,1325.628022825828,0.9998080630782656,0.000850164851976053
1325.6349673801424,1325.6349673801424,0.9989254912628553,0.000850633061871316
1325.6419119345262,1325.6419119345262,1.0002657033730191,0.0008514103732673273
1325.6488564890037,1325.6488564890037,1.0000119439187904,0.0008515274177545856
1325.6558010435972,1325.6558010435972,1.00164987202345,0.0008523415058140195
1325.6627455982841,1325.6627455982841,0.9989244838805262,0.0008524653907496843
1325.6696901530636,1325.6696901530636,1.0008319343165526,0.0008529965445794744
1325.676634707937,1325.676634707937,0.9995827304842548,0.0008530961915069754
1325.6835792629263,1325.6835792629263,1.0000180628372575,0.000854089037352952
1325.6905238179856,1325.6905238179856,1.0004950960349226,0.0008546291181365998
1325.6974683731382,1325.6974683731382,0.9998913969914838,0.0008551259358820914
1325.7044129284072,1325.7044129284072,1.001166817234678,0.0008563748347510905
1325.7113574837454,1325.7113574837454,0.999367338779231,0.0008568679789077718
1325.7183020391542,1325.7183020391542,0.9998204900493283,0.0008576785563855955
1325.725246594679,1325.725246594679,0.9990083673975809,0.0008582677282150992
1325.7321911502736,1325.7321911502736,1.000043573809703,0.000859417339355636
1325.7391357059619,1325.7391357059619,1.0000432376915631,0.0008607925164304317
1325.7460802617193,1325.7460802617193,0.9996036604921734,0.0008614804053710656
1325.7530248175938,1325.7530248175938,1.0005686234699467,0.0008628154621653207
1325.759969373561,1325.759969373561,1.000294235105585,0.0008635203478765316
1325.7669139295747,1325.7669139295747,1.0004425708282316,0.0008647030227832029
1325.7738584856354,1325.7738584856354,1.0016349359858645,0.000865869959231063
1325.7808030417887,1325.7808030417887,0.9993699472371042,0.0008664082337381917
1325.787747598059,1325.787747598059,0.9988698863884174,0.0008672575273050683
1325.7946921543758,1325.7946921543758,0.9989445498531637,0.0008681664562670731
1325.801636710762,1325.801636710762,0.9993659294750309,0.0008692248192352434
1325.8085812672418,1325.8085812672418,1.0020767486669202,0.0008703992176957314
1325.8155258237675,1325.8155258237675,0.9993758189292674,0.0008701432089820082
1325.822470380387,1325.822470380387,1.001316068408461,0.0008710678394850781
1325.8294149370993,1325.8294149370993,1.0003639388950267,0.000871445971819405
1325.836359493835,1325.836359493835,0.9997396483911434,0.0008717823951326477
1325.8433040506638,1325.8433040506638,1.0001018061094533,0.0008721622843363752
1325.850248607562,1325.850248607562,1.0000330677865819,0.0008716606575128856
1325.857193164531,1325.857193164531,0.9991920600799571,0.0008716433500164916
1325.8641377215458,1325.8641377215458,0.9991317566307035,0.000871240173132549
1325.871082278631,1325.871082278631,1.0006162016400464,0.000871075986443881
1325.8780268358091,1325.8780268358091,1.0001945232429708,0.0008704251273826394
1325.8849713930103,1325.8849713930103,0.9996874598479231,0.0008699328163780598
1325.8919159503046,1325.8919159503046,1.0008227212180485,0.0008697652988963365
1325.898860507646,1325.898860507646,0.9992045522875685,0.0008691175837779199
1325.9058050650565,1325.9058050650565,1.001049970045926,0.0008692958853797892
1325.9127496225142,1325.9127496225142,1.00028897894325,0.0008688379907029859
1325.9196941800412,1325.9196941800412,1.0002725078075685,0.0008687862769622358
1325.9266387376153,1325.9266387376153,0.9998712089208958,0.000868511036116747
1325.9335832952354,1325.9335832952354,0.9994435497351344,0.0008684668479125204
1325.9405278529725,1325.9405278529725,0.9991794630892994,0.0008681282820552173
1325.9474724107326,1325.9474724107326,1.0003516571517699,0.000868904748547153
1325.954416968493,1325.954416968493,0.9984514869181114,0.0008686034102609414
1325.9621948733243,1325.9621948733243,1.0011035912496427,0.0008692437476339606
1325.9696949958677,1325.9696949958677,1.000525350108056,0.0008692053559305604
1325.9766395538377,1325.9766395538377,1.0009192878423723,0.0008696092639341403
1325.9835841118768,1325.9835841118768,0.9994311016629787,0.0008700260981125141
1325.9905286699395,1325.9905286699395,0.9998423502726184,0.0008702727133851429
1325.9974732280725,1325.9974732280725,1.000558073923114,0.0008705928500109478
1326.0044177862515,1326.0044177862515,0.9994330107937384,0.0008714075860306441
1326.0113623444774,1326.0113623444774,0.9993551010424844,0.0008724683963554962
1326.0183069027964,1326.0183069027964,0.9998370390572374,0.0008733541106137864
1326.0252514611389,1326.0252514611389,1.0009219508081837,0.000874839649354924
1326.0321960194808,1326.0321960194808,0.9996264850361076,0.0008750492323180436
1326.0391405778694,1326.0391405778694,1.000351358000246,0.0008752135074063647
1326.0460851363282,1326.0460851363282,0.9995398230224195,0.0008749465576606399
1326.0530296948566,1326.0530296948566,1.0004633572666317,0.0008756386080336385
1326.0599742534082,1326.0599742534082,0.9999149329304047,0.0008764036131486691
1326.0669188119834,1326.0669188119834,0.9981718805750065,0.0008763920259908248
1326.0738633706278,1326.0738633706278,1.0008770248402998,0.0008769410053825584
1326.0808079293201,1326.0808079293201,1.0019802653469783,0.0008775967868199896
1326.0877524880343,1326.0877524880343,0.9995258458166439,0.0008772937614553187
1326.0946970468192,1326.0946970468192,0.9988980078798878,0.0008778585855694417
1326.1016416056038,1326.1016416056038,1.0007312353480404,0.0008786689497018798
1326.1085861644813,1326.1085861644813,1.0001250995626976,0.000878758940723641
1326.1155307233125,1326.1155307233125,0.9985659220865317,0.0008790950055923438
1326.1224752822366,1326.1224752822366,1.0005840153435757,0.0008797392179252421
1326.1294198412545,1326.1294198412545,1.0012664301615666,0.0008801770884953053
1326.136364400225,1326.136364400225,0.9990077960414636,0.0008801584381407165
1326.143308959289,1326.143308959289,1.0010656226427395,0.0008810834248833487
1326.150253518353,1326.150253518353,0.9999886264173659,0.0008810283536770875
1326.1571980774866,1326.1571980774866,0.9994347693099351,0.000881227343308957
1326.164142636621,1326.164142636621,0.9997435957204897,0.0008814229850032936
1326.1710871958007,1326.1710871958007,0.9995646720378156,0.0008817918002048012
1326.178031755028,1326.178031755028,1.0000189917280973,0.0008824440475953289
1326.1849763142782,1326.1849763142782,1.000087113447841,0.0008823998962452442
1326.1919208735746,1326.1919208735746,0.9992610157483478,0.0008824899749621587
1326.1988654328954,1326.1988654328954,1.0003448160818018,0.0008827855025262101
1326.2058099922617,1326.2058099922617,1.001392010052934,0.0008833049992592762
1326.2127545516287,1326.2127545516287,1.0004617551299972,0.0008831508508570513
1326.2196991110418,1326.2196991110418,0.9992290641255585,0.000883067542361817
1326.2266436705247,1326.2266436705247,0.9996757518614403,0.0008834913223944658
1326.233588230031,1326.233588230031,0.9995529960600908,0.0008836832501235115
1326.2405327895372,1326.2405327895372,1.0008285211521264,0.0008837896508215419
1326.2474773490442,1326.2474773490442,1.000724163918887,0.0008844579849514132
1326.2544219086199,1326.2544219086199,1.000209572852773,0.0008844956437454013
1326.2613664682199,1326.2613664682199,0.9998321281046986,0.0008846485162985219
1326.2683110278656,1326.2683110278656,1.0006793988112874,0.0008852428091987903
1326.2752555875347,1326.2752555875347,0.9998904246421437,0.0008851746140198975
1326.2822001472045,1326.2822001472045,0.999171000692361,0.0008851824413502981
1326.2891447069435,1326.2891447069435,0.9992467465720779,0.0008854289377478468
1326.2960892666827,1326.2960892666827,1.0003353214452047,0.0008856448398371925
1326.3030338264682,1326.3030338264682,0.9993641413905954,0.00088644145998774
1326.309978386254,1326.309978386254,1.0009887503602255,0.0008870857218558164
1326.3169229460632,1326.3169229460632,1.0019721426981552,0.0008879514995951207
1326.3238675059185,1326.3238675059185,1.0000833007767012,0.00088823846364276
1326.330812065798,1326.330812065798,0.9990718925192145,0.0008883623793866617
1326.3377566257,1326.3377566257,0.9997611584952623,0.0008893649454003643
1326.3452567504326,1326.3452567504326,0.9984154896592736,0.0008897248361970578
1326.3544235695629,1326.3544235695629,1.0000863631332932,0.0008909649754371442
1326.361368129558,1326.361368129558,1.0002038883238267,0.0008919245935519321
1326.368312689577,1326.368312689577,0.9996353532322348,0.0008928150207976168
1326.3752572495953,1326.3752572495953,0.999755684165802,0.0008933441074052226
1326.3822018096373,1326.3822018096373,1.000855041765399,0.0008946064217704643
1326.3891463697257,1326.3891463697257,1.0002827235995932,0.0008952447186434404
1326.3960909298141,1326.3960909298141,1.0004057794997288,0.0008962205319352403
1326.403035489949,1326.403035489949,1.000464512239068,0.0008970195801185785
1326.4099800501076,1326.4099800501076,0.9998118772850957,0.0008975559373971991
1326.4169246102658,1326.4169246102658,0.9997582015342585,0.000898850128778875
1326.4238691704472,1326.4238691704472,0.9996839952590424,0.0008994274426208544
1326.4308137306753,1326.4308137306753,0.9998393071539875,0.0009003931693585763
1326.43775829088,1326.43775829088,0.999599268916995,0.0009012283468921945
1326.444702851155,1326.444702851155,0.9987106144987583,0.0009018716549305646
1326.4516474114064,1326.4516474114064,0.9995615546361212,0.0009025022380259572
1326.4585919717042,1326.4585919717042,1.0007443196586752,0.0009036658923908097
1326.465536532002,1326.465536532002,1.002159753933833,0.0009045342362935929
1326.4724810923235,1326.4724810923235,0.9998337763251939,0.0009046899925648838
1326.4794256526684,1326.4794256526684,0.9999353955430837,0.0009056256734848326
1326.4863702130358,1326.4863702130358,0.999814471512505,0.0009064726978063266
1326.493314773404,1326.493314773404,1.0003730718379018,0.0009074208169951381
1326.5002593338413,1326.5002593338413,0.9992890392306982,0.0009082681889382271
1326.5072038942326,1326.5072038942326,0.9997583774737212,0.0009089458297120033
1326.5141484546702,1326.5141484546702,0.9996908208169237,0.0009099301001724857
1326.5210930151313,1326.5210930151313,0.9997602099523981,0.0009109251746111184
1326.5280375756156,1326.5280375756156,1.0006091965176012,0.0009122316046438079
1326.5349821360765,1326.5349821360765,1.0007794933896683,0.0009133198418344616
1326.5419266966073,1326.5419266966073,0.9991293200141993,0.0009141577454577787
1326.5488712570916,1326.5488712570916,1.0013609317420427,0.0009156006180489329
1326.5558158176457,1326.5558158176457,0.998766838690616,0.0009158119854031654
1326.5627603781995,1326.5627603781995,0.9990726270489987,0.0009166278381585659
1326.5697049387538,1326.5697049387538,1.001191779790378,0.0009170997492735552
1326.5766494993316,1326.5766494993316,1.0005952233659303,0.000918041271396566
1326.5835940599318,1326.5835940599318,0.9980963011699002,0.0009183889569161446
1326.5905386205561,1326.5905386205561,1.0005458705423118,0.0009195122596045343
1326.5974831811566,1326.5974831811566,1.0010939490130175,0.0009202763464426107
1326.6044277417807,1326.6044277417807,0.9996082227395956,0.0009210576345049782
1326.6113723024512,1326.6113723024512,1.000501628848186,0.0009216475231993693
1326.6183168631214,1326.6183168631214,1.0001889327468643,0.0009220191932938135
1326.6252614237922,1326.6252614237922,0.9982249873764699,0.0009226668955699638
1326.6322059844624,1326.6322059844624,1.001315277982523,0.0009231953655846233
1326.6391505452495,1326.6391505452495,0.9991667487424977,0.0009232167993347907
1326.64609510592,1326.64609510592,0.9996651159537361,0.000923420996822527
1326.6530396666835,1326.6530396666835,1.0003890200558987,0.000923655187635052
1326.6599842274009,1326.6599842274009,1.0009048831307485,0.0009237835253625397
1326.6669287881643,1326.6669287881643,0.9993554787139111,0.0009235729779648937
1326.6738733489515,1326.6738733489515,0.9998389057197805,0.0009236169611807228
1326.6808179097152,1326.6808179097152,1.0001157574738806,0.0009232520508778259
1326.6888736002325,1326.6888736002325,0.9998369987303153,0.0009227718538053877
1326.6960959434928,1326.6960959434928,1.0003005451708702,0.0009225532407116609
1326.7030405043029,1326.7030405043029,0.9997129071639467,0.0009222290802981467
1326.7105406300136,1326.7105406300136,1.0001714712777485,0.0009219245731237988
1326.7183185381275,1326.7183185381275,1.0004653499496965,0.0009218037527791102
1326.7252630990074,1326.7252630990074,0.9988479510810585,0.0009215334131088802
1326.7322076598643,1326.7322076598643,1.0018394967886488,0.000921593190346988
1326.7391522207447,1326.7391522207447,1.0006762475085949,0.0009218816319252994
1326.7460967816241,1326.7460967816241,0.9994203705770079,0.0009213312254893722
1326.7530413425277,1326.7530413425277,1.0004777671769078,0.0009211343224138238
1326.7599859034544,1326.7599859034544,1.000659528283807,0.0009212309811059248
1326.7669304643575,1326.7669304643575,0.9988069340543715,0.0009208427347636983
1326.7738750252843,1326.7738750252843,0.9995630366977807,0.0009214441381475161
1326.780819586211,1326.780819586211,0.9998741712610946,0.0009220343978165524
1326.7877641471841,1326.7877641471841,1.0000810092231875,0.0009218145329054816
1326.794708708134,1326.794708708134,1.000078078300667,0.0009223652021846405
1326.8016532691076,1326.8016532691076,1.0007298000921727,0.0009229720771688664
1326.8085978300574,1326.8085978300574,1.00019619699636,0.0009236354994164095
1326.81554239103,1326.81554239103,0.999616843665866,0.0009241164434250791
1326.8224869520502,1326.8224869520502,1.0001016102386813,0.0009245254850946602
1326.829431513023,1326.829431513023,0.9998171462366143,0.0009248301944497384
1326.8363760740433,1326.8363760740433,0.9999545367873868,0.0009247364486499301
1326.843320635063,1326.843320635063,1.0017453745745821,0.0009254467113074955
1326.8502651960825,1326.8502651960825,0.9977682798176286,0.0009248114764521502
1326.8572097571023,1326.8572097571023,1.00051377012537,0.0009253215369238686
1326.8641543181457,1326.8641543181457,1.000907418882025,0.0009249665435760873
1326.8710988792122,1326.8710988792122,0.9988265920350905,0.0009243871757020794
1326.8780434402313,1326.8780434402313,1.0008932122262377,0.0009238490407878026
1326.8849880013215,1326.8849880013215,1.0001801705432243,0.0009230244270472
1326.8919325623874,1326.8919325623874,1.0010022161522147,0.0009222699582194169
1326.898877123454,1326.898877123454,1.00094223384467,0.0009214779568641662
1326.9058216845435,1326.9058216845435,0.9996405244402569,0.0009204200684485058
1326.9127662456333,1326.9127662456333,0.9995319432320866,0.0009189201750880191
1326.9197108067226,1326.9197108067226,0.9984216993907626,0.0009178299321184757
1326.9266553678124,1326.9266553678124,0.9992408765836769,0.000916980442334008
1326.9335999289256,1326.9335999289256,1.0002327879637294,0.0009160268041659601
1326.9405444900378,1326.9405444900378,0.9999462069481819,0.0009152931728886555
1326.9474890511742,1326.9474890511742,1.0011564960137598,0.0009142110097564061
1326.9544336122872,1326.9544336122872,1.000892748449511,0.0009130519157905159
1326.9613781734236,1326.9613781734236,0.9995572937582949,0.0009119230609970954
1326.96832273456,1326.96832273456,1.0014307189476668,0.0009119906011994463
1326.9752672957188,1326.9752672957188,0.999396550440293,0.0009101434398411251
1326.9822118568554,1326.9822118568554,0.9990640904851285,0.0009090258653738477
1326.9891564180148,1326.9891564180148,1.0006062966121059,0.0009087457843806729
1326.9961009791978,1326.9961009791978,0.999224101857858,0.0009082356532735284
1327.0030455403335,1327.0030455403335,1.0001893687193222,0.0009084385817085285
1327.0099901015165,1327.0099901015165,1.0008563770988312,0.0009080999956119513
1327.0169346627224,1327.0169346627224,1.0000980229251712,0.0009083992284933054
1327.0238792238586,1327.0238792238586,1.000648284531802,0.0009082013870548788
1327.0308237850647,1327.0308237850647,0.9998667188353332,0.0009083295215159424
1327.037768346247,1327.037768346247,1.0006298006459837,0.00090863880402679
1327.0447129074535,1327.0447129074535,0.999482506742709,0.0009086901364008815
1327.051657468636,1327.051657468636,0.998688396924515,0.0009091489231018603
1327.0594353772162,1327.0594353772162,0.999917950743743,0.000909952617654223
1327.0669355032755,1327.0669355032755,0.9989182872154228,0.0009104932205775629
1327.073880064528,1327.073880064528,1.0011243264451444,0.0009112904506439858
