time,time,flux,flux_err
1354.1129225872774,1354.1129225872774,1.0002850256058673,0.0004002901731386479
1354.1217190009363,1354.1217190009363,0.9999183659183896,0.00040027156075665113
1354.1300524457504,1354.1300524457504,0.9994966998065116,0.00040026195979283474
1354.1376914370937,1354.1376914370937,1.0003141807691205,0.0003655174371209201
1354.1446359749232,1354.1446359749232,1.0002406056845967,0.00036551511033830914
1354.1515805129159,1354.1515805129159,0.9997951674459588,0.00036544100576374597
1354.1585250511177,1354.1585250511177,0.9996640041958649,0.00036544356912061686
1354.1654695895295,1354.1654695895295,1.000345279282243,0.00036551412874659975
1354.172414128104,1354.172414128104,0.9998516784696727,0.0003654589148528943
1354.1793586668887,1354.1793586668887,0.9999097483349786,0.0003654799508589517
1354.1863032058823,1354.1863032058823,1.0005963550348205,0.0003655146656086406
1354.1932477450157,1354.1932477450157,0.9996865753244842,0.00036539666868790446
1354.2001922843588,1354.2001922843588,1.0003124532164795,0.0003655093650539294
1354.207136823888,1354.207136823888,0.9997237282558153,0.0003654368368729492
1354.2140813635801,1354.2140813635801,1.0001972752996535,0.0003655205759957033
1354.2210259034352,1354.2210259034352,0.9996503280684594,0.0003654000364023401
1354.2279704435464,1354.2279704435464,0.9999598315507189,0.00036547908663443556
1354.2349149837742,1354.2349149837742,0.9998637727491992,0.0003654291141813417
1354.2418595242118,1354.2418595242118,1.0003292410476046,0.0003655246623756608
1354.2488040647652,1354.2488040647652,0.9998991502443758,0.000365405250750009
1354.2557486054818,1354.2557486054818,0.9999288729913081,0.0003653574685576696
1354.262693146408,1354.262693146408,0.9998771424414578,0.0003653136494007011
1354.2696376874972,1354.2696376874972,0.9998066914999277,0.00036536065443855815
1354.2765822287263,1354.2765822287263,1.0001210264414595,0.00036541348113989646
1354.2835267701414,1354.2835267701414,1.000552493582796,0.0003655016276704185
1354.2904713116964,1354.2904713116964,0.9998927729746867,0.0003653729445670051
1354.2974158534373,1354.2974158534373,1.0001554858803343,0.0003654395360167012
1354.304360395295,1354.304360395295,1.0002575073897433,0.00036541060838484
1354.311304937339,1354.311304937339,0.9999991865274657,0.0003653911036521608
1354.318249479499,1354.318249479499,0.9997411477561065,0.0003653373577870927
1354.3251940218684,1354.3251940218684,0.9997340812483161,0.00036541073750171485
1354.332138564355,1354.332138564355,0.9994104670137783,0.0003652994295574831
1354.3390831069808,1354.3390831069808,0.9998591511016912,0.0003654029962473892
1354.3460276497465,1354.3460276497465,0.999992907037209,0.0003654232646274959
1354.3529721926748,1354.3529721926748,1.0008919218022558,0.0003655607986968977
1354.3599167357431,1354.3599167357431,1.0002061780024818,0.0003654715120903026
1354.3668612789515,1354.3668612789515,0.999750810025956,0.00036543367826791966
1354.3738058222757,1354.3738058222757,1.0001186746554052,0.00036543464923854014
1354.3807503657858,1354.3807503657858,0.9995536021051483,0.00036534768820178915
1354.3876949093901,1354.3876949093901,0.9999147593452292,0.00036537882520160266
1354.3946394531333,1354.3946394531333,1.0003366145375232,0.0003654261338294011
1354.40158399704,1354.40158399704,0.9998478009992189,0.00036535573824113146
1354.408528541063,1354.408528541063,0.9998483366078256,0.0003653969834586832
1354.415473085179,1354.415473085179,1.0001953493114015,0.0003654833474683721
1354.422417629435,1354.422417629435,1.0001500954649725,0.00036545534261060844
1354.429362173853,1354.429362173853,0.999501037479369,0.0003653314541612013
1354.436306718365,1354.436306718365,1.0001468424562654,0.00036543804771335274
1354.4432512630399,1354.4432512630399,1.000272934417851,0.00036541653491435096
1354.4501958078076,1354.4501958078076,0.9995459079657516,0.0003653798622217558
1354.457140352692,1354.457140352692,0.9998624526204589,0.00036533040308176114
1354.464084897693,1354.464084897693,0.9997745777305816,0.00036537232459342504
1354.4710294428562,1354.4710294428562,1.0002964915164125,0.0003654473567890562
1354.4779739880673,1354.4779739880673,0.9994724526309634,0.0003652958093250969
1354.484918533417,1354.484918533417,1.0004404334321522,0.00036545706217025876
1354.4918630788832,1354.4918630788832,1.0001845680146877,0.00036537760533175473
1354.4988076244665,1354.4988076244665,0.9994566773544566,0.00036532363124435927
1354.5057521701888,1354.5057521701888,1.0002383134879786,0.0003653890907497629
1354.5126967159579,1354.5126967159579,1.0001374009730448,0.00036538120201244016
1354.5196412618902,1354.5196412618902,1.0005780868218122,0.0003653202171878165
1354.5265858078917,1354.5265858078917,0.9997131111459296,0.00036530734683473676
1354.5335303540105,1354.5335303540105,1.0000795399550437,0.0003653048104194616
1354.5404749002453,1354.5404749002453,0.9997818678226362,0.00036524848189372125
1354.5474194465496,1354.5474194465496,0.9992875029712925,0.00036519903087060026
1354.5543639930409,1354.5543639930409,1.0003302726613656,0.0003653604202863262
1354.5613085395546,1354.5613085395546,1.0003300858096047,0.00036534176187108633
1354.5682530861855,1354.5682530861855,1.000256896372767,0.00036539659364813405
1354.575197632932,1354.575197632932,0.9996826610135574,0.00036527204645632043
1354.582142179726,1354.582142179726,0.9995199066004142,0.0003652199209538023
1354.5890867266594,1354.5890867266594,1.0002489649865887,0.00036535312211585097
1354.5960312737088,1354.5960312737088,0.9998339992511625,0.0003652358858833214
1354.6029758208047,1354.6029758208047,1.000081994547197,0.00036532115175418343
1354.6099203680176,1354.6099203680176,0.9991684143683053,0.00036516149041479023
1354.616864915323,1354.616864915323,1.0004081036439085,0.0003653534338666789
1354.6238094626992,1354.6238094626992,1.0000193341239403,0.00036532822307600043
1354.6307540102146,1354.6307540102146,1.000486686506902,0.0003653790840608693
1354.637698557753,1354.637698557753,1.0002180629064958,0.00036532328273348937
1354.6446431054082,1354.6446431054082,0.9999095960865709,0.00036532709491791644
1354.6515876531328,1354.6515876531328,1.0001728909840757,0.0003653785013837406
1354.6585322009742,1354.6585322009742,0.9996132495732661,0.00036530574099570643
1354.6654767488858,1354.6654767488858,0.9997129560580221,0.0003652879018201488
1354.6724212968663,1354.6724212968663,1.000214457991482,0.000365364734838375
1354.6793658449174,1354.6793658449174,0.9997707175157867,0.00036530457328723604
1354.686310393108,1354.686310393108,0.9996849612742157,0.0003653236496720982
1354.6932549413448,1354.6932549413448,1.0005841231080321,0.0003654356842749743
1354.700199489652,1354.700199489652,1.0005022181850882,0.0003653570811349497
1354.7071440380523,1354.7071440380523,1.0002138950895294,0.0003653373768947074
1354.7140885865217,1354.7140885865217,1.000084038307376,0.0003652815157506136
1354.721033135062,1354.721033135062,0.9998762712965128,0.00036524932152988274
1354.7279776836945,1354.7279776836945,0.9995956863567539,0.00036525627739147936
1354.7349222323744,1354.7349222323744,0.9999636047849908,0.0003651952231309845
1354.7418667811467,1354.7418667811467,0.9994972214956974,0.0003652061190750008
1354.7488113300126,1354.7488113300126,1.0001196422835497,0.0003652682358152202
1354.7557558789017,1354.7557558789017,1.0000655570232806,0.00036522343023335233
1354.762700427907,1354.762700427907,1.0006527918782053,0.0003652889181893338
1354.769644976959,1354.769644976959,1.0000729379141426,0.0003652897667555598
1354.7765895260811,1354.7765895260811,1.000441295762284,0.0003652734180643158
1354.7835340752727,1354.7835340752727,0.9998585838638601,0.0003652590986693503
1354.790478624534,1354.790478624534,0.999454826835932,0.000365133480916334
1354.7974231738658,1354.7974231738658,0.9999639865767443,0.0003652354138350599
1354.8043677232904,1354.8043677232904,0.9997947822973245,0.0003651977113293064
1354.8113122727382,1354.8113122727382,0.999984890755022,0.00036527200112222285
1354.8182568222558,1354.8182568222558,1.0001595374189312,0.0003653055799040162
1354.8252013718434,1354.8252013718434,0.9998857561592246,0.00036522988477367334
1354.832145921501,1354.832145921501,1.0001901914970244,0.0003652736369081017
1354.8390904712046,1354.8390904712046,1.0000017873096272,0.0003652440345061882
1354.846035021025,1354.846035021025,0.999556441824987,0.00036510928386280464
1354.8529795708687,1354.8529795708687,0.9999733171173675,0.00036520785707878223
1354.8599241207125,1354.8599241207125,1.0002061644919975,0.0003652163279545559
1354.8668686706958,1354.8668686706958,0.9997770117035133,0.00036520628917733575
1354.8738132207025,1354.8738132207025,1.0003714564973134,0.0003652032998437168
1354.880757770779,1354.880757770779,1.000861910414136,0.0003653336192891072
1354.887702320902,1354.887702320902,0.9995968007718645,0.0003651865813817952
1354.894646871095,1354.894646871095,0.9998226675952473,0.00036517008654430124
1354.9015914213346,1354.9015914213346,1.000211894450488,0.0003653051652795242
1354.9085359716435,1354.9085359716435,0.9997135317140581,0.00036516088053873525
1354.9154805220226,1354.9154805220226,0.9997542550158182,0.00036521671739977296
1354.9224250724485,1354.9224250724485,0.999530369172458,0.0003651305170159926
1354.9296474048915,1354.9296474048915,0.9999617797562379,0.0003651705174377787
1354.937703083478,1354.937703083478,0.9997653219798224,0.00036508253201338666
1354.9446476340672,1354.9446476340672,1.0008164761045546,0.0003652943183924135
1354.9515921847023,1354.9515921847023,0.9999550348483742,0.0003651968965228476
1354.9585367353839,1354.9585367353839,1.000089703296921,0.00036514191125089845
1354.9654812861124,1354.9654812861124,1.0006699331083948,0.00036522102838629965
1354.9724258368642,1354.9724258368642,0.9999740367782435,0.0003651443983301025
1354.9793703877092,1354.9793703877092,0.9996661688997743,0.000365111214666526
1354.986314938577,1354.986314938577,0.9997478066843145,0.0003650436997311057
1354.993259489492,1354.993259489492,0.999809659781975,0.0003652199395443006
1355.0002040404765,1355.0002040404765,0.9997388371266005,0.0003651464411107327
1355.0071485914839,1355.0071485914839,1.000200651033883,0.0003651185504980701
1355.0140931425617,1355.0140931425617,1.0000225168455288,0.0003651938501502641
1355.0210376936861,1355.0210376936861,1.000235190318334,0.0003651866820563566
1355.0279822448103,1355.0279822448103,1.00002638755313,0.000365199300955907
1355.0349267960278,1355.0349267960278,0.9996269058588038,0.00036506223081413114
1355.0418713472682,1355.0418713472682,1.0001756685451793,0.0003651318352715842
1355.0488158985554,1355.0488158985554,1.0002644599363388,0.00036513463765793826
1355.0557604498895,1355.0557604498895,1.0001712644970446,0.0003651459277548999
1355.0627050012465,1355.0627050012465,0.99978993813666,0.00036508460355927185
1355.069649552696,1355.069649552696,0.9995071143987602,0.00036507023235286405
1355.0765941041468,1355.0765941041468,0.9998341299542831,0.0003651854352867922
1355.0835386556432,1355.0835386556432,1.0004445212625845,0.0003651467724475354
1355.0904832071867,1355.0904832071867,0.9998459012837501,0.0003650937429929042
1355.0974277587768,1355.0974277587768,1.0008175668374253,0.0003651690264488191
1355.1043723103664,1355.1043723103664,0.9994331790272778,0.0003650740601499028
1355.1113168620498,1355.1113168620498,0.9999484410358571,0.0003650984378768396
1355.1182614137326,1355.1182614137326,0.999768836633512,0.0003651003401219656
1355.125205965462,1355.125205965462,1.000034481178942,0.00036519332632286986
1355.1321505172384,1355.1321505172384,0.9998292986344891,0.0003650582552180191
1355.1390950690609,1355.1390950690609,1.0001587518560204,0.00036512012406418674
1355.1460396209307,1355.1460396209307,1.0004266319095947,0.00036521431395098743
1355.1529841727995,1355.1529841727995,0.9999470256907784,0.0003651946648668221
1355.1599287247157,1355.1599287247157,1.0001480915989753,0.0003651293953661285
1355.166873276655,1355.166873276655,0.9997805375357945,0.00036517339661958754
1355.17381782864,1355.17381782864,0.9998927762266427,0.00036516648074203645
1355.1807623806724,1355.1807623806724,1.0008117748262424,0.00036533294351975777
1355.1877069327286,1355.1877069327286,1.000258367074902,0.00036517465403566033
1355.1946514848537,1355.1946514848537,0.9990232284393865,0.0003650087088974803
1355.2015960369324,1355.2015960369324,0.9997730337464746,0.0003651619958325427
1355.2085405891044,1355.2085405891044,1.0003468388070307,0.0003651546620501931
1355.2154851412997,1355.2154851412997,1.0002636807903216,0.00036516657435297517
1355.222429693565,1355.222429693565,1.0001210924989083,0.00036521385651742055
1355.2293742458066,1355.2293742458066,1.0001000047256146,0.0003652681569800419
1355.236318798095,1355.236318798095,1.0001506308456214,0.0003652467594735695
1355.2432633504063,1355.2432633504063,0.9995926618564084,0.0003651459915527845
1355.250207902765,1355.250207902765,1.0002313157881648,0.00036523842067651385
1355.25715245517,1355.25715245517,1.0004172177158974,0.0003652829355868208
1355.264097007551,1355.264097007551,1.0001479660507224,0.0003652156725335824
1355.2710415600257,1355.2710415600257,0.9997685806189752,0.00036510430398327566
1355.277986112477,1355.277986112477,0.999580441443231,0.00036504508238665315
1355.2849306649985,1355.2849306649985,1.0003814653874403,0.0003651572664525285
1355.2918752175428,1355.2918752175428,0.9998332092718487,0.0003651138486709652
1355.2988197700874,1355.2988197700874,1.0001690068782656,0.0003651380428659237
1355.3057643226784,1355.3057643226784,0.9996436735451883,0.00036503407559256826
1355.3127088752929,1355.3127088752929,1.0004521532171293,0.0003652194245500138
1355.3196534279305,1355.3196534279305,1.0001115018608782,0.00036518998162868657
1355.3265979805915,1355.3265979805915,1.0000270130418694,0.00036515716702158375
1355.3346536617623,1355.3346536617623,1.0000832661087375,0.0003651149234856451
1355.3418759966273,1355.3418759966273,1.0000637598354796,0.0003651347907035248
1355.3488205493811,1355.3488205493811,0.9997278815336115,0.00036511610645513227
1355.3557651021351,1355.3557651021351,1.0001917376251488,0.00036523294380835
1355.3627096549126,1355.3627096549126,0.9997023626879589,0.00036513320253232627
1355.3696542077596,1355.3696542077596,1.0001694314191063,0.00036510550718026784
1355.37659876063,1355.37659876063,0.9997360165800583,0.0003650490988632879
1355.383543313524,1355.383543313524,1.0003196815144324,0.0003652629489856945
1355.3904878664175,1355.3904878664175,0.9999027621583674,0.00036515409958959896
1355.3988213299551,1355.3988213299551,0.9994942906482107,0.00036510416970236684
1355.4057658828956,1355.4057658828956,1.000618659782906,0.0003652500636373701
1355.4127104358824,1355.4127104358824,0.9997058164662601,0.0003650964022795934
1355.4196549888927,1355.4196549888927,1.0003192935245258,0.0003651799593746367
1355.4265995419494,1355.4265995419494,0.9999014754925335,0.0003650461296303839
1355.433544094983,1355.433544094983,0.9997699199526406,0.00036509919601342437
1355.4404886480395,1355.4404886480395,1.0001095015709778,0.00036504041121068726
1355.4474332011425,1355.4474332011425,1.0004233240898612,0.0003651692238499544
1355.4543777542694,1355.4543777542694,0.9992557436321736,0.0003649366261402373
1355.4613223074193,1355.4613223074193,0.9996907092277448,0.0003650064280409823
1355.4682668605692,1355.4682668605692,1.00066512611981,0.0003651528175909389
1355.4752114137657,1355.4752114137657,1.0005196562792933,0.0003651019469821912
1355.4821559669622,1355.4821559669622,0.9998759622911525,0.0003651043023012254
1355.489100520182,1355.489100520182,0.9998210363805426,0.0003650631020093724
1355.496045073448,1355.496045073448,1.000229451354344,0.00036515467653335085
1355.5029896266908,1355.5029896266908,0.9994844558345719,0.00036491826676336193
1355.509934180027,1355.509934180027,0.9998391003453202,0.0003650343661179613
1355.5168787332937,1355.5168787332937,1.0002352077323544,0.0003651296138330701
1355.523823286583,1355.523823286583,0.9999460237701099,0.0003651319315400443
1355.5307678399654,1355.5307678399654,1.0001018641430703,0.0003651062482552428
1355.5377123933717,1355.5377123933717,0.999763865340191,0.00036501693267879294
1355.5446569467076,1355.5446569467076,1.0000116993664938,0.0003651212057997422
1355.551601500137,1355.551601500137,0.9997010569267488,0.0003650243874146726
1355.5585460535428,1355.5585460535428,1.000316538956641,0.0003650930922027464
1355.5654906069954,1355.5654906069954,0.9997579800529401,0.0003650286783349265
1355.572435160448,1355.572435160448,1.0007758910968196,0.0003652410029973583
1355.5793797139238,1355.5793797139238,1.000367362288199,0.000365151409947067
1355.586324267423,1355.586324267423,0.9994515476707304,0.0003650360681085805
1355.593268820922,1355.593268820922,0.999899137344425,0.0003650716563639439
1355.6002133744446,1355.6002133744446,0.9995393978227407,0.0003650933963816276
1355.60715792799,1355.60715792799,0.9999579471019693,0.0003651391975088994
1355.6141024815593,1355.6141024815593,1.000067500777493,0.0003650347636600322
1355.621047035128,1355.621047035128,1.0002500248897033,0.0003651546313660743
1355.6279915887437,1355.6279915887437,0.9997212537588271,0.00036507032352476796
1355.634936142313,1355.634936142313,1.000031818845695,0.0003650522358404094
1355.6418806959512,1355.6418806959512,1.0001642538420057,0.0003650716061666062
1355.6488252496138,1355.6488252496138,1.0004297044292063,0.0003651889982791118
1355.6557698032525,1355.6557698032525,1.000192003618952,0.00036514998331633677
1355.6627143569374,1355.6627143569374,0.9997029366154191,0.0003649383485415402
1355.6696589106232,1355.6696589106232,0.9999393112908981,0.0003651259033893721
1355.6766034643315,1355.6766034643315,0.9998778779918484,0.000364989762815393
1355.6835480180403,1355.6835480180403,0.9999471158096009,0.0003651019837296155
1355.6904925717724,1355.6904925717724,1.0004784238978717,0.0003652148223516883
1355.6974371255274,1355.6974371255274,0.9993985761114471,0.0003650774952748537
1355.7043816793062,1355.7043816793062,0.9999737000462577,0.0003650858476964811
1355.7113262330847,1355.7113262330847,0.9999852208365729,0.00036508469991004204
1355.718270786863,1355.718270786863,1.0004303518527526,0.0003651651190760052
1355.725215340665,1355.725215340665,1.0000476203753998,0.00036514946056410855
1355.7321598944668,1355.7321598944668,0.9995678955554194,0.0003649834850647845
1355.7393822304487,1355.7393822304487,1.000259706709032,0.0003651890782611333
1355.747437912924,1355.747437912924,1.0000503236270812,0.00036501687935978775
1355.754382466772,1355.754382466772,0.9999290132724019,0.0003650703919128201
1355.7613270206905,1355.7613270206905,0.9999429507547933,0.000365089408180567
1355.7682715744922,1355.7682715744922,0.9996582052386354,0.0003649955480044657
1355.7752161284102,1355.7752161284102,1.000228190757031,0.00036510000960385204
1355.7821606823286,1355.7821606823286,0.9999961260896789,0.0003650361172522738
1355.789105236247,1355.789105236247,0.9999216546114968,0.0003650615261379427
1355.7960497901652,1355.7960497901652,1.0006032170576686,0.00036513578490389805
1355.802994344153,1355.802994344153,0.999574754042065,0.000364955243419664
1355.8099388981177,1355.8099388981177,1.0003369703046,0.00036518035129286475
1355.8168834520595,1355.8168834520595,0.9998662213577945,0.0003649615971172396
1355.823828006071,1355.823828006071,0.9998405067120792,0.00036505650483273074
1355.830772560059,1355.830772560059,0.9999062302571307,0.0003650314881767819
1355.8377171140469,1355.8377171140469,1.0000706422041585,0.00036504872604668944
1355.844661668058,1355.844661668058,1.0002600235374592,0.0003651522578099044
1355.8516062220929,1355.8516062220929,0.9996954683937751,0.00036502874914220887
1355.8585507761507,1355.8585507761507,0.9999667804943517,0.0003650922550425285
1355.8654953301852,1355.8654953301852,1.00015903279831,0.0003650877146563455
1355.8724398842435,1355.8724398842435,1.0001788196660955,0.0003651270432420184
1355.8793844383017,1355.8793844383017,0.9991088815974436,0.00036492737556774945
