time,time,flux,flux_err
1354.1195325068127,1354.1195325068127,1.0012818892797208,0.0011372460217297356
1354.128328939331,1354.128328939331,0.9998276326692644,0.0011366974384294122
1354.1359679463628,1354.1359679463628,0.9992381371870586,0.00103758269380689
1354.1429124978831,1354.1429124978831,0.9993664147445702,0.0010373706140423948
1354.1498570490305,1354.1498570490305,1.0001100357934551,0.0010371380354262155
1354.156801599992,1354.156801599992,1.000172695426586,0.001037279023436965
1354.1637461505802,1354.1637461505802,0.9981296436904324,0.0010365229529115884
1354.170690700983,1354.170690700983,1.0008127808244516,0.001037314548072797
1354.177635251292,1354.177635251292,1.000120841849364,0.0010369800057667112
1354.1845798011361,1354.1845798011361,0.9984390190144149,0.0010365632905619641
1354.1915243506069,1354.1915243506069,1.001529468643421,0.001037391017901472
1354.1984688999848,1354.1984688999848,0.999862929427881,0.001036905858883986
1354.2054134490836,1354.2054134490836,0.9995274656846694,0.0010367561407776502
1354.2123579978097,1354.2123579978097,1.000185712324149,0.001037085222069968
1354.2193025464426,1354.2193025464426,1.0017725724467477,0.0010372402200357323
1354.226247094796,1354.226247094796,1.0006953732258037,0.0010369959877826371
1354.2331916428698,1354.2331916428698,0.9993802300568536,0.0010369109340170413
1354.2401361905718,1354.2401361905718,0.9990408614125096,0.0010369831846252762
1354.247080738087,1354.247080738087,0.9989950735816432,0.0010369040201615339
1354.2540252855092,1354.2540252855092,0.9998750044446874,0.0010370959762403108
1354.2609698325589,1354.2609698325589,0.9999308132713324,0.001037283760318972
1354.2679143794223,1354.2679143794223,1.00011207813418,0.0010373325202575297
1354.2748589259131,1354.2748589259131,0.9998922113995234,0.0010369179817887092
1354.281803472311,1354.281803472311,0.999511806167142,0.00103708702175632
1354.288748018336,1354.288748018336,0.9998003299911741,0.0010369871112367317
1354.2956925642684,1354.2956925642684,0.9991720373146222,0.0010368819036779295
1354.3026371098276,1354.3026371098276,1.0006850018487947,0.0010370617728692984
1354.309581655387,1354.309581655387,1.0004578968463047,0.0010370065799104543
1354.3165262003881,1354.3165262003881,1.0000121288784167,0.0010367602132232462
1354.3234707453887,1354.3234707453887,1.0013613118707858,0.001036926349447761
1354.3304152900168,1354.3304152900168,0.9987422454634697,0.0010360878195700039
1354.3373598345522,1354.3373598345522,0.9991938529762987,0.0010364194117333742
1354.3443043787145,1354.3443043787145,0.9999799079803641,0.0010365339095959518
1354.3512489227846,1354.3512489227846,0.9989191641792005,0.0010362712554825627
1354.358193466481,1354.358193466481,1.0010004177033118,0.0010369416074366838
1354.3651380100848,1354.3651380100848,1.0007462722627138,0.0010366666675807941
1354.3720825533162,1354.3720825533162,1.0006663814725816,0.0010368706198573031
1354.3790270966404,1354.3790270966404,0.9993387086819556,0.0010364595465173455
1354.3859716394993,1354.3859716394993,1.000060857392603,0.001036511002121833
1354.3929161820786,1354.3929161820786,1.0006008737182028,0.0010367621046472072
1354.3998607245644,1354.3998607245644,0.9988882454083999,0.0010364050655184453
1354.4068052668647,1354.4068052668647,1.000239239250036,0.00103644876081428
1354.4137498088853,1354.4137498088853,0.9995797941400898,0.0010366463733734925
1354.4206943506265,1354.4206943506265,1.0004107434219356,0.001036772216658097
1354.4276388922747,1354.4276388922747,0.9998975671406157,0.0010366975788406888
1354.434583433643,1354.434583433643,0.9989077707902068,0.0010362381174640364
1354.4415279748252,1354.4415279748252,1.0007648256303825,0.0010368578967330402
1354.4484725159143,1354.4484725159143,0.9997170637742118,0.001036432849666283
1354.455417056538,1354.455417056538,1.000488216689717,0.0010367175914259728
1354.462361597348,1354.462361597348,1.0009227462385006,0.0010364541635674337
1354.4693061375058,1354.4693061375058,1.0001823829256162,0.00103623697577485
1354.4762506777565,1354.4762506777565,0.999477435758104,0.0010364546620975454
1354.4831952178215,1354.4831952178215,0.9990902165697821,0.0010364247171002704
1354.4901397575134,1354.4901397575134,0.9999919929632533,0.001036483154792504
1354.497084297113,1354.497084297113,0.9990871053002899,0.0010362601105420846
1354.5040288365258,1354.5040288365258,1.00118764378628,0.0010369509685427122
1354.510973375659,1354.510973375659,1.0003320783845955,0.0010365932705838712
1354.5179179146994,1354.5179179146994,1.0007734160381316,0.0010368289528351585
1354.5248624535534,1354.5248624535534,0.9999444896178223,0.0010369609393363435
1354.5318069920347,1354.5318069920347,1.000720817579335,0.0010372842819273977
1354.538751530703,1354.538751530703,0.9984040305973251,0.001036560214654717
1354.545696068905,1354.545696068905,0.9994401968476556,0.0010369321077002482
1354.5526406068275,1354.5526406068275,0.9996121911252531,0.0010369950013455853
1354.5595851446574,1354.5595851446574,1.0002581708483451,0.0010371045136078649
1354.5665296823936,1354.5665296823936,1.0011697552687602,0.0010372188447031314
1354.5734742198508,1354.5734742198508,0.9996383149108983,0.0010371896760734127
1354.5804187572144,1354.5804187572144,0.9998535591657081,0.0010371759176076116
1354.587363294299,1354.587363294299,0.9984583297216476,0.0010366225278936455
1354.5943078312907,1354.5943078312907,1.0011049225179902,0.0010372145281872633
1354.6012523680024,1354.6012523680024,1.0003837770067794,0.0010372882747493575
1354.6081969046213,1354.6081969046213,1.0008898419199277,0.0010371789245047912
1354.6151414410538,1354.6151414410538,1.000390071674988,0.0010371567763185262
1354.6220859772998,1354.6220859772998,0.9994987780784236,0.001036912250476044
1354.6290305133602,1354.6290305133602,0.9993385770976186,0.0010367768179491692
1354.6359750492343,1354.6359750492343,0.9996442824496095,0.0010368815833284085
1354.6429195850146,1354.6429195850146,0.9995655903565304,0.0010368324524183711
1354.6498641205162,1354.6498641205162,1.000122377199305,0.0010368852408203031
1354.6568086558311,1354.6568086558311,1.000422636321239,0.0010368913344945025
1354.663753191053,1354.663753191053,1.0004771065881577,0.0010371077317455012
1354.6706977260887,1354.6706977260887,0.9989638257584298,0.001036787733910486
1354.6776422608448,1354.6776422608448,1.0007805369162124,0.0010372926101291872
1354.6845867956013,1354.6845867956013,1.0013292341910076,0.0010369461734524355
1354.691531330171,1354.691531330171,0.9984753653558179,0.0010366403341660712
1354.6984758644612,1354.6984758644612,1.000734139978617,0.00103708351230257
1354.7054203987523,1354.7054203987523,1.000561482053492,0.0010371535218100998
1354.7123649327634,1354.7123649327634,0.9983584032407176,0.0010369173242229352
1354.7193094666814,1354.7193094666814,0.999073831144224,0.0010365351890185641
1354.726254000227,1354.726254000227,0.9990447553916157,0.0010369013563160698
1354.733198533772,1354.733198533772,1.0002980154609218,0.001037251798922928
1354.7401430673178,1354.7401430673178,1.0000722546465615,0.0010370111118264812
1354.747087600584,1354.747087600584,0.9995254897406655,0.0010372084134851235
1354.7540321336637,1354.7540321336637,0.999967375658243,0.0010370833054455285
1354.7609766665573,1354.7609766665573,1.001407861050963,0.0010372387432352917
1354.7679211993577,1354.7679211993577,0.999915049263341,0.0010373367624113504
1354.774865731972,1354.774865731972,1.0007931539491794,0.001037386186380052
1354.7818102644928,1354.7818102644928,1.0003320920398986,0.0010370661532354377
1354.7887547967348,1354.7887547967348,0.9989985462343599,0.0010369697965382184
1354.7956993288833,1354.7956993288833,1.0001409247500028,0.0010372570598645519
1354.8026438608454,1354.8026438608454,0.9981363062736163,0.0010370064055476068
1354.8095883927144,1354.8095883927144,1.0006692527421663,0.0010375078984054685
1354.8165329244905,1354.8165329244905,0.9999339786301515,0.0010375717580015072
1354.823477455894,1354.823477455894,0.9996973330218338,0.001036977247735329
1354.8304219875768,1354.8304219875768,1.0009310790795793,0.0010376021919604717
1354.8373665187944,1354.8373665187944,1.0008873874857915,0.0010377711556155164
1354.844311049732,1354.844311049732,1.0009727363604906,0.0010376996949560122
1354.851255580763,1354.851255580763,0.9987731768938636,0.0010371950220428566
1354.8582001115142,1354.8582001115142,0.9987553675337084,0.0010369742319299039
1354.8651446421727,1354.8651446421727,1.0010199350542635,0.0010376529322786263
1354.8720891727385,1354.8720891727385,0.9991773745956832,0.0010371071064314865
1354.879033703117,1354.879033703117,0.999830764699345,0.0010372259439627278
1354.8859782334032,1354.8859782334032,0.9998811119932443,0.0010374363292393537
1354.8929227635026,1354.8929227635026,0.9997247284873133,0.0010372536897050116
1354.8998672934163,1354.8998672934163,1.0007538842837342,0.0010373988691294563
1354.9068118232367,1354.9068118232367,1.0007954334469902,0.0010370950442054616
1354.9137563529634,1354.9137563529634,0.9997352735679744,0.0010371079064217103
1354.9207008825038,1354.9207008825038,1.0002426656169257,0.0010367182865683396
1354.9276454118585,1354.9276454118585,1.0000617463276629,0.0010374654553006633
1354.93458994112,1354.93458994112,1.0000398201686447,0.0010371610165447883
1354.942923376066,1354.942923376066,1.000881439959107,0.0010373953881466973
1354.949867904955,1354.949867904955,0.9982137801285926,0.00103689779409395
1354.9568124338439,1354.9568124338439,0.998623830617053,0.0010371225819457326
1354.9637569626398,1354.9637569626398,1.0010345120228579,0.001037807051486164
1354.9707014911562,1354.9707014911562,1.0007970263261419,0.0010374832789328751
1354.9776460194862,1354.9776460194862,1.0008311270767174,0.0010380341103148846
1354.9845905478164,1354.9845905478164,1.0008703549539297,0.0010376681311303683
1354.9915350759602,1354.9915350759602,0.9996811363117442,0.001036936516232005
1354.9984796040108,1354.9984796040108,1.0001350924198777,0.0010373514475663288
1355.0054241319683,1355.0054241319683,0.9995552532334134,0.0010373718169931754
1355.0123686597396,1355.0123686597396,1.0012856809908286,0.00103770490061772
1355.019313187325,1355.019313187325,0.998472707823917,0.0010367121111850754
1355.0262577148164,1355.0262577148164,1.0006403760557627,0.0010373827776702005
1355.0332022421226,1355.0332022421226,0.9995104396164187,0.0010371391812225362
1355.0401467695215,1355.0401467695215,1.0002242853653462,0.001037286343149045
1355.0470912966407,1355.0470912966407,0.9987977189617239,0.0010369577180254278
1355.0540358235735,1355.0540358235735,0.999049707931771,0.0010370630642086939
1355.0609803504135,1355.0609803504135,1.001180748202659,0.0010375525874940373
1355.0679248771605,1355.0679248771605,1.0019265023075714,0.0010377150023750904
1355.0748694040005,1355.0748694040005,1.0012738938599515,0.0010377373690166108
1355.0818139302817,1355.0818139302817,0.9986256689217747,0.0010367995430807385
1355.0887584566558,1355.0887584566558,1.0000632664746,0.0010373093561158004
1355.0957029829372,1355.0957029829372,0.9995902775878992,0.0010372055271215901
1355.102647509032,1355.102647509032,0.999216251263823,0.0010369170309927865
1355.109592035034,1355.109592035034,0.9995815843851398,0.001037283658617225
1355.1165365608497,1355.1165365608497,0.9990738527090184,0.0010370560344794603
1355.1234810866652,1355.1234810866652,1.0003639064167014,0.0010377097662772178
1355.1304256122944,1355.1304256122944,1.0017250793942867,0.0010380529825384725
1355.1373701378304,1355.1373701378304,0.9996079968408438,0.0010376742472342367
1355.14431466318,1355.14431466318,1.0022001373617102,0.001038116450243517
1355.1512591884373,1355.1512591884373,0.999698902288977,0.0010370642754386323
1355.1582037136009,1355.1582037136009,0.997676695442632,0.0010365011978520488
1355.1651482387642,1355.1651482387642,0.9985357031528295,0.0010371875762824787
1355.1720927635556,1355.1720927635556,1.0015728639382082,0.0010373020439361298
1355.1790372883465,1355.1790372883465,0.99949499895586,0.0010372811641952172
1355.1859818130445,1355.1859818130445,1.0004928676306841,0.0010374371705412287
1355.1929263376494,1355.1929263376494,1.00031726062813,0.001037278532764835
1355.1998708620677,1355.1998708620677,1.0005330301506652,0.0010373313009848382
1355.2068153863001,1355.2068153863001,1.0013728030457967,0.0010375107459398816
1355.2137599105322,1355.2137599105322,0.998442929545045,0.0010367923455635126
1355.2207044347647,1355.2207044347647,0.9994795860004768,0.0010364692815008172
1355.2276489586247,1355.2276489586247,0.9995873659251814,0.0010368508067564826
1355.2345934825776,1355.2345934825776,0.9999641163872918,0.001036973775462773
1355.2415380063442,1355.2415380063442,0.9991398944138516,0.0010368277349421418
1355.2484825300176,1355.2484825300176,1.0012241196490792,0.0010368150342550356
1355.2554270534115,1355.2554270534115,0.9995510990165434,0.001036645555607382
1355.262371576899,1355.262371576899,0.9995960599564843,0.00103701189583411
1355.2693161001998,1355.2693161001998,1.0014411445245965,0.0010372677103741238
1355.2762606234076,1355.2762606234076,1.0012942751425313,0.0010376508939605312
1355.2832051464288,1355.2832051464288,1.0006504198152286,0.0010370113397846176
1355.2901496694508,1355.2901496694508,0.9983627026034743,0.001036929780718616
1355.2970941922863,1355.2970941922863,0.9996429353232127,0.0010368492140050384
1355.3040387150281,1355.3040387150281,1.000035613760455,0.0010376434680196118
1355.3109832376772,1355.3109832376772,0.9991590276357372,0.0010371875068773213
1355.3179277602335,1355.3179277602335,0.9993175682287063,0.0010372264993014587
1355.3248722826029,1355.3248722826029,1.000350331891959,0.0010375396876183714
1355.3318168048795,1355.3318168048795,1.0000614746095609,0.0010375723127015318
1355.3395946697842,1355.3395946697842,1.0009245909225126,0.0010375992010928554
1355.3470947534408,1355.3470947534408,1.0008774039290735,0.0010377930652216126
1355.3540392758102,1355.3540392758102,0.9989674283610942,0.0010367698934037565
1355.3609837972488,1355.3609837972488,0.9986340899365717,0.0010366827338279207
1355.3679283191527,1355.3679283191527,1.0006640001191773,0.00103742662450898
1355.3748728408705,1355.3748728408705,1.0011462080863733,0.0010370046206144526
1355.3818173624018,1355.3818173624018,0.9997472048118976,0.0010369430124883843
1355.388761883747,1355.388761883747,1.0007030467244682,0.0010373305614023724
1355.3957064050921,1355.3957064050921,0.9994225073361166,0.0010370626438536467
1355.4037620497559,1355.4037620497559,0.9997127722941286,0.001037094407935471
1355.4109843516976,1355.4109843516976,1.0014649930044883,0.0010372941337277641
1355.4179288726705,1355.4179288726705,0.9998267329485371,0.0010374117974636166
1355.42487339355,1355.42487339355,0.9977084449508062,0.0010367490551889823
1355.4318179142433,1355.4318179142433,0.9994650566604619,0.0010369438096121323
1355.4387624350297,1355.4387624350297,1.0002512492434108,0.0010375571659403293
1355.445706955537,1355.445706955537,1.0004887133385094,0.0010374388345864795
1355.4526514759505,1355.4526514759505,1.0007395835587034,0.0010378092544420811
1355.4595959963644,1355.4595959963644,1.0008419091498482,0.0010375758035545718
1355.466540516592,1355.466540516592,1.0001357700292461,0.0010375054808567231
1355.47348503682,1355.47348503682,0.9994497122791675,0.0010374407598609827
1355.4804295568613,1355.4804295568613,1.0002402046080132,0.0010376774272421064
1355.4873740768094,1355.4873740768094,1.000315440963379,0.0010376674959446269
1355.4943185967575,1355.4943185967575,0.9987953194700896,0.0010373549747984025
1355.5012631164263,1355.5012631164263,0.9998022304594896,0.0010377699460254615
1355.5082076360018,1355.5082076360018,0.999775327822969,0.0010375573334179256
1355.5151521555774,1355.5151521555774,1.0000429292167632,0.001037502533403499
1355.5220966751535,1355.5220966751535,1.000440677207809,0.0010380290008273378
1355.5290411944493,1355.5290411944493,1.0004390911578382,0.0010376616071764507
1355.5359857137457,1355.5359857137457,0.9991077366927691,0.0010374338040546873
1355.5429302328562,1355.5429302328562,1.0003048580146001,0.0010375278956627325
1355.549874751966,1355.549874751966,1.0002965206376975,0.0010373661741422575
1355.5568192708897,1355.5568192708897,1.0004755541130135,0.0010376192286294587
1355.5637637898135,1355.5637637898135,0.999338077717054,0.0010371336859279587
1355.5707083085506,1355.5707083085506,1.0003014246624171,0.0010371642478240665
1355.5776528271952,1355.5776528271952,0.9982260653381747,0.0010369987319138602
1355.5845973458395,1355.5845973458395,1.001779413828465,0.0010379211055067225
1355.5915418642976,1355.5915418642976,1.000011669031649,0.0010375607841285365
1355.598486382663,1355.598486382663,0.999913497613587,0.001037478947162182
1355.6054309008412,1355.6054309008412,0.9995181873874144,0.001037253777126868
1355.6123754191133,1355.6123754191133,1.0005793365328084,0.0010377631869400881
1355.6193199371057,1355.6193199371057,1.0009603171998076,0.0010381561589264845
1355.626264455098,1355.626264455098,0.9995459866560379,0.0010376688721647506
1355.6332089730909,1355.6332089730909,1.0000249540721113,0.0010377264024373552
1355.6401534908036,1355.6401534908036,0.9991070851777548,0.0010375808496066237
1355.6470980085164,1355.6470980085164,0.999954590344205,0.001037848234281796
1355.6540425261367,1355.6540425261367,1.0001184156835494,0.0010377347676788144
1355.6609870436635,1355.6609870436635,0.9989190887375052,0.0010374272681331217
1355.6679315610968,1355.6679315610968,1.000071150628709,0.001037712218058766
1355.6748760783446,1355.6748760783446,1.0010902541864481,0.0010378605914193987
1355.6818205955917,1355.6818205955917,1.0011658662361937,0.0010380569540223324
1355.6887651128393,1355.6887651128393,0.9987777077880778,0.0010374520784211792
1355.6957096297142,1355.6957096297142,1.001018401427039,0.0010378282866695895
1355.702654146775,1355.702654146775,0.9999026569785414,0.001037498479683268
1355.709598663557,1355.709598663557,0.9988647064055158,0.0010375634758547918
1355.7165431803387,1355.7165431803387,0.9995899456223685,0.0010379031340010285
1355.7234876970272,1355.7234876970272,0.9992405296006067,0.001037382372929147
1355.7304322135296,1355.7304322135296,1.0006589561332886,0.0010378881380009608
1355.7373767300319,1355.7373767300319,1.0012655346465242,0.0010382480840396516
1355.7443212464411,1355.7443212464411,1.000385767627472,0.0010379102448368675
1355.7526546660204,1355.7526546660204,1.0007289682029687,0.0010383127736323283
1355.75959918215,1355.75959918215,0.9985252206702535,0.0010375059821538493
1355.7665436981868,1355.7665436981868,1.0001228063810046,0.0010378973899022057
1355.7734882143166,1355.7734882143166,0.9990137347737447,0.001037701744407295
1355.7804327301667,1355.7804327301667,1.001127659551672,0.0010384223556867615
1355.7873772460173,1355.7873772460173,0.99973672395773,0.0010379522022792554
1355.7943217617747,1355.7943217617747,1.0010532896261124,0.0010382782855539376
1355.8012662773458,1355.8012662773458,0.9992380524871465,0.0010375822629016406
1355.8082107929167,1355.8082107929167,0.9998721907380281,0.001038214790221466
1355.8151553083947,1355.8151553083947,0.9984671245260197,0.001037464175498799
1355.8220998237796,1355.8220998237796,1.0001610565505288,0.0010378104312547642
1355.8290443389776,1355.8290443389776,0.9999548040421736,0.001037457349401929
1355.835988854269,1355.835988854269,1.001481697045095,0.0010375241347339915
1355.8429333691888,1355.8429333691888,1.0007860768611292,0.001037615583540506
1355.8498778842936,1355.8498778842936,0.9997343313811398,0.0010374565159526714
1355.856822399213,1355.856822399213,0.9999320055754739,0.001037553002153612
1355.8637669139457,1355.8637669139457,0.9991147780114755,0.0010375985625487797
1355.8707114288648,1355.8707114288648,0.9993468015489844,0.0010376173138544919
1355.8776559434114,1355.8776559434114,1.0014577765962367,0.0010381375406339518
1355.8846004580514,1355.8846004580514,1.0002444413327136,0.0010377190797441038
1355.8915449725043,1355.8915449725043,0.9995070034256479,0.001037535939844267
