time,time,flux,flux_err
1325.2995153061247,1325.2995153061247,0.9999377131940822,0.0003887821930684218
1325.3078484738626,1325.3078484738626,0.9999714930431773,0.00038877231899519117
1325.3161816418922,1325.3161816418922,0.9999458701129645,0.0003886516308764625
1325.3245148102171,1325.3245148102171,0.9999227780145511,0.00038860040215545977
1325.3321535481118,1325.3321535481118,1.0000859091762648,0.000354731692627501
1325.3390978554917,1325.3390978554917,1.0001231447738903,0.00035475270674797124
1325.3460421630873,1325.3460421630873,1.000025188835948,0.0003547223688634061
1325.3529864708628,1325.3529864708628,1.0004211468045692,0.0003548653677414056
1325.3599307788536,1325.3599307788536,1.0000760119442733,0.00035489314327890714
1325.3668750870315,1325.3668750870315,1.0003171696379738,0.00035505540527966937
1325.3738193954007,1325.3738193954007,1.0002631762409322,0.00035516263269178645
1325.3807637039681,1325.3807637039681,0.9996534776796316,0.0003552852806130122
1325.3877080127272,1325.3877080127272,0.9991624575039596,0.00035532449883905184
1325.3946523216784,1325.3946523216784,1.000366545920846,0.00035568463829308483
1325.4015966308166,1325.4015966308166,0.99981756550025,0.0003557553574948139
1325.4085409401462,1325.4085409401462,0.99983155367955,0.00035590093274654697
1325.4154852496565,1325.4154852496565,1.0003797362158435,0.0003561935833946281
1325.422429559353,1325.422429559353,1.0004277548469116,0.00035640685970232097
1325.4293738692418,1325.4293738692418,0.999564460694554,0.0003564570230519228
1325.4363181792874,1325.4363181792874,0.9998918558387085,0.0003566617089999028
1325.443262489537,1325.443262489537,1.0005664600172481,0.0003569152052777722
1325.450206799961,1325.450206799961,1.0000713000428796,0.00035702488270195694
1325.4571511105598,1325.4571511105598,0.9999254094861042,0.00035719455211471595
1325.4640954213332,1325.4640954213332,0.9995911028177196,0.0003572762918326426
1325.471039732281,1325.471039732281,0.9996183409873168,0.0003574058322622209
1325.4779840434037,1325.4779840434037,0.9997006647864021,0.0003576129220194268
1325.4849283547007,1325.4849283547007,0.9998728530058045,0.0003577828734654581
1325.4918726661613,1325.4918726661613,1.0003292838175546,0.00035799285914820994
1325.4988169777962,1325.4988169777962,1.0000814884184117,0.0003581585693696443
1325.5057612895998,1325.5057612895998,0.9999108354069974,0.00035829618994119756
1325.5127056015604,1325.5127056015604,1.0001989656983372,0.00035842004589121035
1325.519649913696,1325.519649913696,1.000287126478473,0.0003586826915739971
1325.5265942259944,1325.5265942259944,1.0001464768546788,0.0003587888050885463
1325.5335385384383,1325.5335385384383,0.9995345333658283,0.0003588825267613038
1325.5404828510568,1325.5404828510568,1.000501577206007,0.0003591783198253264
1325.5474271638445,1325.5474271638445,0.9995430080931212,0.0003592507895511925
1325.5543714767712,1325.5543714767712,1.0004704852043125,0.00035955852663670533
1325.5613157898556,1325.5613157898556,0.9998106519435664,0.000359645935018804
1325.5682601031028,1325.5682601031028,1.0004045628097917,0.00035990683147641344
1325.575204416507,1325.575204416507,0.9997674092619533,0.00035996344894154804
1325.582148730046,1325.582148730046,0.9994634360516347,0.00036009117740643995
1325.589093043752,1325.589093043752,1.0001924157334467,0.0003603589100299453
1325.5960373575992,1325.5960373575992,0.9997284861832547,0.0003603935951335261
1325.6029816715914,1325.6029816715914,0.9997257445286116,0.0003604808229406291
1325.6099259857351,1325.6099259857351,0.9999682528240565,0.0003606022100997832
1325.6168703000242,1325.6168703000242,1.0000575936284304,0.0003606818725962563
1325.6238146144588,1325.6238146144588,1.0003364723809194,0.00036084897521147373
1325.6307589290388,1325.6307589290388,1.0005041986914907,0.0003608709295392753
1325.637703243753,1325.637703243753,1.0004690786607104,0.00036095124029781353
1325.6446475586122,1325.6446475586122,0.999617655702185,0.00036084461242590863
1325.6515918736059,1325.6515918736059,0.9993774502348991,0.0003608974148432584
1325.658536188739,1325.658536188739,1.000259020406195,0.00036108560762054576
1325.6654805040062,1325.6654805040062,0.9999048175645477,0.0003610469784761074
1325.6724248194125,1325.6724248194125,0.9999594537700828,0.0003610501658994331
1325.6793691349476,1325.6793691349476,0.9997136208046806,0.00036109603639784057
1325.686313450622,1325.686313450622,1.0003133225300975,0.0003613003965921175
1325.6932577664243,1325.6932577664243,1.0005268480766145,0.000361388624777539
1325.7002020823613,1325.7002020823613,0.9999092671504929,0.0003613688100240094
1325.7071463984196,1325.7071463984196,0.9995973445374389,0.00036138408394088253
1325.714090714618,1325.714090714618,0.9996362651408852,0.0003614669039081831
1325.7210350309265,1325.7210350309265,1.0001099148644645,0.00036166405876176996
1325.7279793473695,1325.7279793473695,0.9999902818108805,0.00036176897354012037
1325.7349236639461,1325.7349236639461,1.000282304372999,0.0003618906992020377
1325.741867980622,1325.741867980622,0.9998852450687565,0.0003619303218168579
1325.7488122974369,1325.7488122974369,1.0003069365091861,0.0003621345842829839
1325.7557566143691,1325.7557566143691,1.0001176726410548,0.000362235782892589
1325.7627009314228,1325.7627009314228,1.0003658672906894,0.0003624129784473536
1325.7696452485932,1325.7696452485932,0.9997132187633355,0.0003624405167172169
1325.7765895658802,1325.7765895658802,0.9998231964417199,0.0003626573680326769
1325.7835338832833,1325.7835338832833,0.9995410083724015,0.0003627353146871342
1325.7904782008031,1325.7904782008031,1.0002679782047266,0.00036296036205282376
1325.797422518439,1325.797422518439,1.0001887490035928,0.00036311440985144943
1325.804366836174,1325.804366836174,0.9997766800944916,0.0003631783308576173
1325.811311154037,1325.811311154037,0.99983794185613,0.0003632738069624138
1325.8182554720051,1325.8182554720051,1.0003474979111544,0.0003633824387884862
1325.8251997900834,1325.8251997900834,1.0002991596474273,0.00036350975397395817
1325.8321441082724,1325.8321441082724,0.9997430469374573,0.00036351750605000555
1325.8390884265723,1325.8390884265723,0.9994294546918396,0.00036355729434526786
1325.8460327449707,1325.8460327449707,1.0002682637025597,0.0003636256756573879
1325.8529770634796,1325.8529770634796,0.9999856154935942,0.0003636046711910675
1325.859921382088,1325.859921382088,0.9995285937282172,0.00036352661744858925
1325.8668657008125,1325.8668657008125,1.000393987935503,0.0003636178928281364
1325.8738100196304,1325.8738100196304,1.000516103601576,0.0003635161928181022
1325.880754338547,1325.880754338547,0.9998748761270985,0.0003634128890636026
1325.887698657574,1325.887698657574,0.9998565793184776,0.0003633301505712351
1325.8946429766943,1325.8946429766943,0.9999259695483882,0.00036331042143710927
1325.9015872959253,1325.9015872959253,0.9996755483809636,0.00036319186515343415
1325.9085316152436,1325.9085316152436,1.0002976071328529,0.0003632262319520467
1325.915475934655,1325.915475934655,1.0004241772737121,0.00036323014749347466
1325.9224202541593,1325.9224202541593,0.999792578477102,0.00036317719692801384
1325.929364573769,1325.929364573769,1.0001162577967282,0.00036318777931590007
1325.936308893477,1325.936308893477,0.999670475618218,0.00036312817763387635
1325.9432532132842,1325.9432532132842,0.9999528926939124,0.0003631384234640262
1325.9501975331616,1325.9501975331616,1.0000646557147035,0.0003632033663277596
1325.9571418531434,1325.9571418531434,0.999759994351022,0.00036314751244564643
1325.9651972644388,1325.9651972644388,1.000151206029218,0.00036326863912803547
1325.9724193574234,1325.9724193574234,1.0002817823747137,0.00036327736754656297
1325.9793636776903,1325.9793636776903,1.000097626396539,0.00036333123345411167
1325.9863079980446,1325.9863079980446,1.0000700487018648,0.0003633404119582706
1325.9932523184862,1325.9932523184862,0.9998406123976654,0.00036332025551428837
1326.000196639027,1326.000196639027,0.9994468026542125,0.0003633277918221009
1326.0071409596374,1326.0071409596374,1.0000098129814206,0.0003635324362619638
1326.014085280341,1326.014085280341,0.9998714344914464,0.0003637108802828715
1326.0210296011323,1326.0210296011323,1.0000442967497716,0.0003638132527613829
1326.0279739219932,1326.0279739219932,1.0003922596855943,0.00036399143945550116
1326.0349182429527,1326.0349182429527,1.0006483804427642,0.0003640538390449752
1326.041862563976,1326.041862563976,1.0000118308304995,0.00036399037575474987
1326.048806885099,1326.048806885099,0.9992252619179762,0.00036393313998436865
1326.0557512062971,1326.0557512062971,1.00040387643803,0.00036419579284009104
1326.0626955275657,1326.0626955275657,0.9998892849161838,0.0003641406033743542
1326.069639848921,1326.069639848921,0.9996365915141429,0.0003641748012552488
1326.0765841703578,1326.0765841703578,1.0003551737919074,0.00036431743663056825
1326.0835284918592,1326.0835284918592,0.9998720437150659,0.0003642885257070475
1326.090472813442,1326.090472813442,1.0001754226902297,0.0003644139727616008
1326.0974171351058,1326.0974171351058,0.9996044473496497,0.00036438672093111766
1326.10436145684,1326.10436145684,1.0001920502335848,0.00036443152510249016
1326.111305778649,1326.111305778649,0.9997541079268721,0.00036442514728273395
1326.1182501005346,1326.1182501005346,0.9999947654115561,0.00036447708468009105
1326.1251944224891,1326.1251944224891,1.000195780348681,0.00036444976218814255
1326.1321387445264,1326.1321387445264,1.0003486247683335,0.00036455402481220655
1326.139083066621,1326.139083066621,1.0004245201772624,0.0003645530138482982
1326.1460273887974,1326.1460273887974,0.9995226150588857,0.0003644975451451341
1326.1529717110375,1326.1529717110375,0.9997924601142973,0.0003645055136773477
1326.1599160333476,1326.1599160333476,0.9999964394767261,0.0003645974786760881
1326.1668603557332,1326.1668603557332,0.9996323822188815,0.0003644970641152385
1326.173804678183,1326.173804678183,0.9994230041518639,0.0003644465134583518
1326.180749000703,1326.180749000703,1.0004816074046392,0.000364614758984974
1326.1876933232809,1326.1876933232809,1.0003673354432,0.00036460616529314583
1326.1946376459402,1326.1946376459402,1.0004857438126415,0.0003646127995183191
1326.2015819686462,1326.2015819686462,1.0005176161194442,0.00036457312745843354
1326.2085262914393,1326.2085262914393,0.9995568906323046,0.000364533826059706
1326.215470614285,1326.215470614285,1.0000180326199501,0.00036457109345856386
1326.222414937189,1326.222414937189,0.9996129741416547,0.00036454643745095343
1326.2293592601684,1326.2293592601684,1.000221723705765,0.00036468172232491955
1326.236303583206,1326.236303583206,0.9990307772790891,0.00036446092400892785
1326.2432479063016,1326.2432479063016,1.0002526533841536,0.00036462272174632947
1326.2501922294737,1326.2501922294737,1.0002118594509108,0.00036466500301239043
1326.2571365526917,1326.2571365526917,1.000296443225361,0.000364686729421997
1326.264080875974,1326.264080875974,0.9999173623097019,0.00036463776164080594
1326.2710251993205,1326.2710251993205,0.9999152769832268,0.0003646165585579452
1326.2779695227186,1326.2779695227186,1.0001925460289738,0.0003646988442476717
1326.2849138461816,1326.2849138461816,0.9998663844097907,0.0003646467982169947
1326.2918581697024,1326.2918581697024,1.00015230658961,0.0003647250236938239
1326.298802493276,1326.298802493276,1.00000172790669,0.00036470095933760515
1326.3057468169186,1326.3057468169186,1.0001851294045687,0.00036483366058692995
1326.3126911406086,1326.3126911406086,1.00018188723739,0.00036483792693040495
1326.319635464362,1326.319635464362,0.9997064878692419,0.00036480855335193415
1326.3265797881622,1326.3265797881622,1.0004592975033977,0.0003649772839448853
1326.333524112015,1326.333524112015,0.9991698657670651,0.00036490786442555683
1326.3404684359316,1326.3404684359316,1.0000416400082082,0.00036503240045542495
1326.3485238517383,1326.3485238517383,0.9999228300886006,0.00036509603239106653
1326.3571348135445,1326.3571348135445,0.999798740793673,0.00036512194694265226
1326.3640791376479,1326.3640791376479,0.9995623381743857,0.000365126434101997
1326.371023461797,1326.371023461797,1.0010536775288985,0.00036539212242186434
1326.377967785999,1326.377967785999,0.9998319502608073,0.00036526374285221887
1326.3849121102476,1326.3849121102476,0.9997626529287377,0.00036525337208594697
1326.3918564345481,1326.3918564345481,1.0001529621637577,0.00036539228000092026
1326.3988007589019,1326.3988007589019,1.0001329333377227,0.0003654235191471628
1326.405745083307,1326.405745083307,1.0000387569049458,0.0003654549830850776
1326.4126894077656,1326.4126894077656,0.999752246326531,0.00036547372332326625
1326.419633732264,1326.419633732264,1.0001893856315238,0.00036560150047065554
1326.4265780568153,1326.4265780568153,1.0004435061963082,0.0003656058834174775
1326.4335223814185,1326.4335223814185,0.9996331126955271,0.00036562026708763054
1326.4404667060687,1326.4404667060687,0.9999407729055015,0.00036564798506438995
1326.4474110307597,1326.4474110307597,0.9998130279063131,0.00036574098566064374
1326.4543553555086,1326.4543553555086,0.9998886736467185,0.00036577494680621066
1326.4612996802985,1326.4612996802985,1.0002236471488977,0.00036587257594827003
1326.468244005129,1326.468244005129,0.9997214759470883,0.00036582160863880836
1326.4751883300119,1326.4751883300119,1.0000604079282673,0.00036592528226736916
1326.4821326549359,1326.4821326549359,1.000215358968831,0.00036600172295205393
1326.4890769799056,1326.4890769799056,1.000681808399658,0.0003661481681838035
1326.4960213049226,1326.4960213049226,0.9996180594595255,0.0003660154856651771
1326.5029656299857,1326.5029656299857,0.9998987118737601,0.0003660984693667949
1326.5099099550903,1326.5099099550903,0.9995425508356515,0.00036611653441114163
1326.5168542802348,1326.5168542802348,1.0003881333664963,0.00036628100862582004
1326.5237986054203,1326.5237986054203,0.9996524779242295,0.00036623688231871894
1326.5307429306586,1326.5307429306586,0.9998697585931673,0.0003663734791506064
1326.537687255937,1326.537687255937,1.000007385954942,0.00036644723340770814
1326.5446315812512,1326.5446315812512,0.9998723046948953,0.0003666189577671389
1326.551575906617,1326.551575906617,1.0005990082285552,0.00036675437446316995
1326.5585202320065,1326.5585202320065,1.0000917125150652,0.0003667225156648211
1326.565464557448,1326.565464557448,0.9997932279638011,0.00036669658390822143
1326.5724088829245,1326.5724088829245,1.0002722740486798,0.0003667753767170389
1326.5793532084479,1326.5793532084479,0.9996723104093052,0.0003667576555321416
1326.5862975340058,1326.5862975340058,1.0001004202508965,0.0003668774846218281
1326.593241859605,1326.593241859605,1.0001389517888852,0.0003669408668273518
1326.6001861852387,1326.6001861852387,0.9997677268490545,0.0003669162929180319
1326.607130510919,1326.607130510919,0.9998973107158383,0.00036697434208778453
1326.6140748366347,1326.6140748366347,1.0002329854576548,0.00036705404023412843
1326.6210191623784,1326.6210191623784,1.0002907675728765,0.0003671029546195295
1326.6279634881757,1326.6279634881757,0.9998680101844851,0.0003670071386424282
1326.6349078139956,1326.6349078139956,0.9993003429274824,0.0003669405264749196
1326.6418521398623,1326.6418521398623,0.9994102576123606,0.0003669522074183832
1326.6487964657579,1326.6487964657579,1.000211529062529,0.0003670339596578638
1326.6557407916885,1326.6557407916885,1.0005720811157284,0.000367023673358167
1326.6626851176661,1326.6626851176661,1.000455797079369,0.00036696395455698103
1326.6696294436663,1326.6696294436663,1.0004039019150706,0.0003668806453317481
1326.6765737697078,1326.6765737697078,0.999804484241569,0.0003667831951196413
1326.6835180957896,1326.6835180957896,0.9997293256582548,0.0003666819632635241
1326.6918512871193,1326.6918512871193,1.0002363667359353,0.0003667038737712793
1326.698795613277,1326.698795613277,0.9988764842014366,0.0003664776075446422
1326.705739939452,1326.705739939452,1.0005833145134768,0.00036660466287640327
1326.7135175848227,1326.7135175848227,0.9998874930565389,0.00036651074003494767
1326.7210174571787,1326.7210174571787,1.000104376088769,0.0003664687176220675
1326.7279617834702,1326.7279617834702,1.0004956390619708,0.00036654838293227006
1326.7349061097964,1326.7349061097964,0.9998993684042621,0.0003664423462551562
1326.7418504361463,1326.7418504361463,0.9999972084949184,0.00036630609249828735
1326.7487947625366,1326.7487947625366,1.000014603718822,0.000366328733668102
1326.7557390889563,1326.7557390889563,1.0000288903311456,0.00036633187750283126
1326.7626834154048,1326.7626834154048,1.0002576732201218,0.0003663490864388998
1326.7696277418886,1326.7696277418886,0.9994667374232759,0.0003662175531201108
1326.7765720683954,1326.7765720683954,1.0000306636038025,0.00036627950411855913
1326.7835163949433,1326.7835163949433,0.9996763288926289,0.000366217431266128
1326.7904607215146,1326.7904607215146,0.999872259848124,0.0003662485217565534
1326.7974050481141,1326.7974050481141,0.9999157205988874,0.0003662470125307894
1326.8043493747496,1326.8043493747496,0.9998044489211045,0.00036631371551874403
1326.811293701413,1326.811293701413,1.0005544338758994,0.0003664159529475836
1326.8182380281005,1326.8182380281005,1.0001542970078576,0.0003663533730713235
1326.8251823548171,1326.8251823548171,0.999960704795356,0.0003663092674743464
1326.8321266815688,1326.8321266815688,1.0003341003689028,0.00036630748086080675
1326.8390710083434,1326.8390710083434,1.000132345687192,0.0003663189158136698
1326.8460153351411,1326.8460153351411,1.000136132380983,0.000366253368413989
1326.8529596619742,1326.8529596619742,0.9994742501624894,0.0003661330794967876
1326.859903988836,1326.859903988836,0.9997881096294325,0.00036617636412121084
1326.8668483157214,1326.8668483157214,0.9998093995621817,0.0003661100769780445
1326.8737926426359,1326.8737926426359,1.00028077468747,0.00036611249592386006
1326.8807369695676,1326.8807369695676,1.0003213379178548,0.00036602168097978765
1326.8876812965345,1326.8876812965345,1.000085412148185,0.0003658987817864978
1326.8946256235356,1326.8946256235356,0.999685279565397,0.0003657575214401257
1326.9015699505494,1326.9015699505494,1.0000172787480706,0.00036562725212431425
1326.9085142775975,1326.9085142775975,0.9999831189990716,0.00036553633187602554
1326.915458604669,1326.915458604669,0.9997964856965107,0.0003653151000512567
1326.9224029317757,1326.9224029317757,1.0003282472777115,0.00036524211343867046
1326.929347258888,1326.929347258888,1.0002544305928769,0.0003651224815130733
1326.9362915860293,1326.9362915860293,0.9992561289169449,0.0003648362484555246
1326.9432359131936,1326.9432359131936,0.9994639802123295,0.00036472148249928513
1326.9501802403936,1326.9501802403936,1.0003414686605616,0.000364713051827852
1326.9571245676102,1326.9571245676102,1.0004053385831995,0.00036457710376338817
1326.964068894857,1326.964068894857,1.0007570135822133,0.0003645608148256321
1326.9710132221146,1326.9710132221146,0.9998696194671085,0.0003643733035965754
1326.9779575494128,1326.9779575494128,0.9998960755245804,0.0003642829324579383
1326.9849018767234,1326.9849018767234,0.9999167193170464,0.000364257020985747
1326.9918462040569,1326.9918462040569,0.9996309302049688,0.00036409925685950323
1326.9987905314133,1326.9987905314133,0.9996506105940052,0.0003639935936603281
1327.0057348587936,1327.0057348587936,1.0004337157658898,0.0003641513366022046
1327.012679186197,1327.012679186197,0.9994457252740656,0.0003640020221390232
1327.0196235136234,1327.0196235136234,1.0004582628046645,0.000364093171964495
1327.0265678410674,1327.0265678410674,1.0001810934023263,0.00036408739212577995
1327.033512168535,1327.033512168535,0.9997020429343332,0.00036401980603881337
1327.0404564960313,1327.0404564960313,1.0005675135958725,0.0003641228126712984
1327.0474008235453,1327.0474008235453,1.0000631105490059,0.00036406491509207784
1327.0543451510707,1327.0543451510707,0.9999763120813785,0.0003640486890331934
1327.0624005710392,1327.0624005710392,0.9996352041132344,0.0003640242646215627
