time,time,flux,flux_err
1468.273643202395,1468.273643202395,0.9994229524020382,0.00042290009840147147
1468.2805877103096,1468.2805877103096,0.9998524474985047,0.0004230516812788811
1468.2875322182474,1468.2875322182474,0.9997697770843669,0.00042289548736561104
1468.2944767261852,1468.2944767261852,1.000147075602654,0.00042284754453444787
1468.3014212341234,1468.3014212341234,0.999925365331338,0.00042289108931020225
1468.3083657421544,1468.3083657421544,0.9997521914395943,0.00042311048675968663
1468.315310250115,1468.315310250115,0.9998244535365208,0.0004228328580789187
1468.3222547581695,1468.3222547581695,1.0007383586310286,0.00042336093106715356
1468.3291992662002,1468.3291992662002,1.0005511877582929,0.0004230528745021456
1468.3361437742547,1468.3361437742547,1.000297477574726,0.00042305467688915423
1468.3430882823554,1468.3430882823554,1.0001541694729181,0.00042296058656026797
1468.3500327904562,1468.3500327904562,1.0002770305369058,0.000422988664769876
1468.3569772986036,1468.3569772986036,0.9998190049672591,0.00042275645074969467
1468.363921806728,1468.363921806728,1.0000716063610198,0.000423088454255489
1468.3708663148986,1468.3708663148986,1.000339158533455,0.00042289384330714144
1468.3855886722617,1468.3855886722617,0.9998473047416597,0.0004225842404594323
1468.394477642795,1468.394477642795,1.0001690943987227,0.0004226605685900673
1468.4014221510358,1468.4014221510358,0.9996576235826472,0.0004227554615332077
1468.4083666593228,1468.4083666593228,1.0000894631710546,0.0004226150628229448
1468.4153111676096,1468.4153111676096,1.000023482691393,0.0004228432555055389
1468.42225567592,1468.42225567592,1.0003974294906004,0.0004231903344855564
1468.429200184254,1468.429200184254,1.000343522981367,0.00042276146193549475
1468.4361446925873,1468.4361446925873,0.9998080835099652,0.00042282491990842345
1468.4430892009675,1468.4430892009675,0.9997262209821856,0.00042272128847955007
1468.4500337093477,1468.4500337093477,1.0001065951374597,0.0004228502129344861
1468.4569782177512,1468.4569782177512,1.0001354527908588,0.00042302335028880677
1468.463922726155,1468.463922726155,1.0008990111588623,0.0004228710971809125
1468.4708672346285,1468.4708672346285,0.9995869782970253,0.0004226501284121375
1468.4778117430778,1468.4778117430778,0.9998974526412063,0.00042258983824728497
1468.4847562515981,1468.4847562515981,1.0002333332865234,0.00042279887382651565
1468.4917007601186,1468.4917007601186,1.0000531309940366,0.0004229715091117749
1468.4986452686383,1468.4986452686383,0.9994746539684505,0.0004225906837312885
1468.505589777158,1468.505589777158,1.0000947934363502,0.00042265993285558486
1468.5125342856777,1468.5125342856777,1.0000025492059519,0.00042243342476538053
1468.5194787942676,1468.5194787942676,1.0002806883968791,0.0004227834011599206
1468.5264233028574,1468.5264233028574,0.9996988266099753,0.0004226922662982309
1468.5333678114707,1468.5333678114707,1.0001351684601185,0.00042268425175110964
1468.5403123201068,1468.5403123201068,1.0008151125890148,0.00042279337190014266
1468.5472568287664,1468.5472568287664,0.9998004748886604,0.00042274024636183535
1468.5542013374259,1468.5542013374259,0.999894965534738,0.00042286623064271807
1468.5611458461324,1468.5611458461324,0.9999697370504272,0.0004227553430729746
1468.5680903548382,1468.5680903548382,0.9996057340993378,0.00042269838177012706
1468.5750348635677,1468.5750348635677,0.9996793079040154,0.00042287062348215907
1468.5819793722972,1468.5819793722972,0.9999507296463592,0.000422751823840219
1468.588923881073,1468.588923881073,1.0004049102263648,0.0004229256326619294
1468.595868389873,1468.595868389873,0.9997738882813119,0.0004226681714731455
1468.602812898672,1468.602812898672,1.0004574514106888,0.0004227927905638966
1468.6097574074943,1468.6097574074943,0.999602282758467,0.0004223223291741434
1468.6167019163172,1468.6167019163172,0.9996579216496002,0.00042282183329240425
1468.6236464251863,1468.6236464251863,1.0006838307450752,0.000422844337092415
1468.6305909340558,1468.6305909340558,0.9999145619255602,0.0004228216798682686
1468.6375354429476,1468.6375354429476,1.0002916975888174,0.0004226457910855034
1468.6444799518636,1468.6444799518636,0.9997471025706478,0.00042259335029341805
1468.6514244608024,1468.6514244608024,1.0002729872923215,0.0004225153542909943
1468.6583689697416,1468.6583689697416,0.9992085570815676,0.0004226456473060479
1468.6653134787273,1468.6653134787273,0.9999608477831353,0.000422473829312461
1468.6722579876891,1468.6722579876891,1.0003422708442673,0.0004228910084745197
1468.679202496698,1468.679202496698,0.9999200993372547,0.0004226417422561188
1468.6861470057302,1468.6861470057302,1.0002581890880031,0.0004227067191392408
1468.6930915147627,1468.6930915147627,1.0002139195710877,0.00042283100619244335
1468.7000360238646,1468.7000360238646,1.000002885540545,0.0004225799434798413
1468.7069805328968,1468.7069805328968,1.0001838016822835,0.0004227994811091528
1468.7139250419518,1468.7139250419518,0.9996335839189608,0.00042261634921926685
1468.720869551124,1468.720869551124,1.0002683837673325,0.0004227044462116446
1468.7278140602725,1468.7278140602725,0.9997208334764206,0.00042281160071587465
1468.7347585693744,1468.7347585693744,0.9997503545895501,0.000422689411278906
1468.7417030785696,1468.7417030785696,0.9996010466305707,0.00042268774690470187
1468.7486475877413,1468.7486475877413,1.0001901626533696,0.00042278784087213016
1468.7555920969596,1468.7555920969596,1.000098662808965,0.0004227847828255465
1468.7625366061784,1468.7625366061784,0.9999568667696472,0.0004227257269308974
1468.7694811154197,1468.7694811154197,1.0000312421213529,0.0004227048415020837
1468.7764256246614,1468.7764256246614,1.000170204085388,0.00042260461270959024
1468.78337013395,1468.78337013395,1.000478733517037,0.0004230947821587753
1468.7903146432382,1468.7903146432382,1.0001495695415072,0.0004231763809201602
1468.7972591525267,1468.7972591525267,0.9996814303617544,0.0004227870621062035
1468.8042036618613,1468.8042036618613,0.9997975775276817,0.00042292838777211914
1468.811148171219,1468.811148171219,1.0001316266251772,0.00042294682191525824
1468.8180926805774,1468.8180926805774,0.9998104229456286,0.000422847038190777
1468.8250371899355,1468.8250371899355,0.9994738783992497,0.0004228748950644663
1468.8319816993403,1468.8319816993403,1.000671865758792,0.00042268011125584014
1468.8389262087912,1468.8389262087912,1.0002636942831564,0.00042276662772464216
1468.8458707181958,1468.8458707181958,0.9995071489864333,0.0004225751503210315
1468.8528152276476,1468.8528152276476,1.000247231586541,0.00042287169567786905
1468.859759737122,1468.859759737122,0.9999486099644296,0.00042304412472670935
1468.8667042466197,1468.8667042466197,1.0002616145082628,0.0004228963349111369
1468.8736487561175,1468.8736487561175,0.9997334959309189,0.000422895473718242
1468.8805932656153,1468.8805932656153,0.999948022547362,0.000422946036913004
1468.88753777516,1468.88753777516,0.9997927768868816,0.0004228964675901159
1468.8944822847275,1468.8944822847275,1.0003866835680464,0.00042260407177138694
1468.901426794295,1468.901426794295,1.0003148003459084,0.0004232080434065673
1468.9083713038858,1468.9083713038858,0.9996727805799692,0.00042275814025033025
1468.9153158134768,1468.9153158134768,0.9997055346985837,0.00042273601637519314
1468.9222603231144,1468.9222603231144,1.0000095574808023,0.0004228597144092989
1468.929204832729,1468.929204832729,1.0005994802651759,0.00042268963182458513
1468.9361493424126,1468.9361493424126,1.0001162590401562,0.00042275748455737687
1468.9430938520964,1468.9430938520964,1.000471502653003,0.00042266064907141635
1468.9500383617808,1468.9500383617808,0.9997368088153935,0.000422556463003995
1468.9580939930142,1468.9580939930142,1.0002289588450257,0.00042272517043663165
1468.9653162831557,1468.9653162831557,1.0001835021968224,0.00042271838709773883
1468.9722607928863,1468.9722607928863,1.0000827269392663,0.00042267343266435154
1468.9792053026633,1468.9792053026633,0.9993858009045944,0.00042288618721582
1468.9861498124408,1468.9861498124408,0.9998785552489405,0.0004230404938943513
1468.9930943222412,1468.9930943222412,1.0002281085732037,0.0004230337498152755
1469.0000388320418,1469.0000388320418,0.999781382619146,0.00042312510291434127
1469.0069833418652,1469.0069833418652,0.9997896642134899,0.00042288224073220774
1469.0139278517358,1469.0139278517358,0.9997198558012992,0.00042307226161118864
1469.0208723616063,1469.0208723616063,1.0002815755046928,0.00042294804542584964
1469.0278168714765,1469.0278168714765,1.000152129142414,0.0004227812935989799
1469.0347613813701,1469.0347613813701,0.9994807989932349,0.0004227511401793698
1469.0417058912867,1469.0417058912867,1.0004215761297108,0.00042294035409078215
1469.0486504012038,1469.0486504012038,1.000353268982515,0.0004228317753976245
1469.0555949111672,1469.0555949111672,1.0002380815581806,0.0004228525300415395
1469.0625394211309,1469.0625394211309,1.0000347022436924,0.00042315388259979924
1469.0694839311175,1469.0694839311175,0.9995931278173668,0.00042245380023481243
1469.0764284410811,1469.0764284410811,0.9997451121915899,0.00042263279905359026
1469.0833729511146,1469.0833729511146,0.9996474533433567,0.0004229173049103456
1469.0903174611474,1469.0903174611474,1.0000989527472401,0.0004229248393497635
1469.0972619712043,1469.0972619712043,1.0002303633172438,0.0004226074240053215
1469.1042064812611,1469.1042064812611,1.0001518775767804,0.0004229883298456089
1469.1111509913408,1469.1111509913408,1.000324582824789,0.00042300441460397457
1469.1180955014208,1469.1180955014208,1.0003182602763014,0.00042315045754553516
1469.125040011547,1469.125040011547,0.9999341691187489,0.0004228600441920548
1469.1319845216735,1469.1319845216735,1.0000318570208715,0.00042281106436841835
1469.1389290318234,1469.1389290318234,0.9987237846484653,0.00042247779918107807
1469.1458735419733,1469.1458735419733,1.0001852518400822,0.00042289378930440594
1469.1528180521461,1469.1528180521461,1.0004846212513847,0.0004230126706484599
1469.1597625623656,1469.1597625623656,1.0003919824507954,0.0004228640415526827
1469.1667070725384,1469.1667070725384,1.0002114055236966,0.0004230101479345447
1469.1736515828052,1469.1736515828052,0.9998892228286005,0.00042267683909773317
1469.180596093071,1469.180596093071,0.9995228744918186,0.0004227724046128455
1469.1875406033373,1469.1875406033373,0.9999665898610939,0.00042285931768955564
1469.1944851136032,1469.1944851136032,1.000114059780151,0.00042286199207517365
1469.2014296238692,1469.2014296238692,0.9999591302854801,0.0004229722591005739
1469.208374134136,1469.208374134136,1.000171664795642,0.00042298517616775125
1469.215318644495,1469.215318644495,1.0004597370780346,0.0004228469607794144
1469.2222631548073,1469.2222631548073,1.0000244295193756,0.00042283113663397175
1469.229207665167,1469.229207665167,0.9999136567347915,0.0004227732774309409
1469.2361521755495,1469.2361521755495,1.000131230676653,0.00042307942465177303
1469.2430966859324,1469.2430966859324,0.9999870211979112,0.00042306565532937565
1469.2500411963379,1469.2500411963379,0.9993904518122554,0.00042285004516208664
1469.2569857067435,1469.2569857067435,1.0000466315592154,0.00042314808539423555
1469.2639302171963,1469.2639302171963,1.0006320485037312,0.00042302082501016454
1469.2708747276254,1469.2708747276254,1.0000431373985919,0.00042280223502668367
1469.2778192381013,1469.2778192381013,0.9996141588611593,0.0004229681861952992
1469.2847637485768,1469.2847637485768,1.0001262726213986,0.0004230217123083563
1469.2917082590757,1469.2917082590757,0.9995933267062769,0.0004226715507631318
1469.2986527695978,1469.2986527695978,0.9998987735819498,0.00042315429613388545
1469.30559728012,1469.30559728012,1.0002108317646514,0.0004229130741128035
1469.312541790666,1469.312541790666,1.0000406792401,0.0004228748727978981
1469.319486301211,1469.319486301211,0.9999131624823292,0.0004228052907534033
1469.3264308118037,1469.3264308118037,0.9998682849120939,0.00042284693367953126
1469.3333753223953,1469.3333753223953,1.000354621033308,0.0004227348213736334
1469.340319833011,1469.340319833011,0.9998847388052822,0.0004230546296937962
1469.3472643436264,1469.3472643436264,1.000427535449997,0.0004230461835673942
1469.354208854265,1469.354208854265,0.9993723607684517,0.00042267375512805995
1469.3611533649273,1469.3611533649273,1.000120850785747,0.0004227705622652637
1469.3680978755888,1469.3680978755888,1.0001773610894265,0.00042278031134141363
1469.3750423862743,1469.3750423862743,0.9997092088725502,0.00042267410492238133
1469.3819868969829,1469.3819868969829,1.0004261012943285,0.0004228746518226409
1469.3889314076914,1469.3889314076914,1.0004908509674615,0.0004230408088350437
1469.3958759184236,1469.3958759184236,0.9995724189418459,0.00042274255818244047
1469.4028204291546,1469.4028204291546,0.9997331186309435,0.0004229409311162782
1469.4097649399332,1469.4097649399332,0.9998301043488537,0.0004229163819255595
1469.416709450735,1469.416709450735,0.9999224693756108,0.00042289347524709605
1469.4236539614667,1469.4236539614667,1.0000745990707445,0.000422772835540174
1469.4305984723155,1469.4305984723155,1.0000939964289706,0.0004229880841354538
1469.437542983163,1469.437542983163,1.0003425155884735,0.0004228746729731718
1469.4444874940114,1469.4444874940114,0.999708338241058,0.0004231372146545927
1469.4514320048595,1469.4514320048595,1.0002642303587859,0.00042290106713813543
1469.458376515708,1469.458376515708,0.9994897788564112,0.00042316658717788
1469.4653210265562,1469.4653210265562,1.000215711086745,0.0004229282485097538
1469.4722655374976,1469.4722655374976,1.000225390531973,0.0004232782700233355
1469.4792100483687,1469.4792100483687,0.9997814780083567,0.00042292344810154775
1469.4861545593337,1469.4861545593337,1.000039198777703,0.00042322179762250173
1469.493099070275,1469.493099070275,0.9999134133970505,0.0004233366354201242
1469.5000435812167,1469.5000435812167,1.0002678546769945,0.00042307523095698604
1469.506988092205,1469.506988092205,0.9999753928765436,0.00042303166589184707
1469.5139326031688,1469.5139326031688,1.0000768129662456,0.0004230468009537346
1469.5208771142036,1469.5208771142036,0.9999110517876227,0.0004229908767646954
1469.5278216251913,1469.5278216251913,0.9998256569797345,0.00042275778530487224
1469.5347661362496,1469.5347661362496,1.00001331808978,0.00042296569850833925
1469.541710647284,1469.541710647284,0.9997409699686759,0.00042258408494310576
1469.5486551583647,1469.5486551583647,1.0004366640325497,0.00042302454578410105
1469.5555996694457,1469.5555996694457,0.9997870990753291,0.0004227463454855171
1469.562544180527,1469.562544180527,1.0003822257836061,0.0004227949646730666
1469.569488691631,1469.569488691631,0.9995521318313025,0.00042267876295837335
1469.5764332027823,1469.5764332027823,1.0003448306471239,0.00042298745571115755
1469.58337771391,1469.58337771391,0.9999959757503113,0.0004231696636234351
1469.5903222250606,1469.5903222250606,0.9995540315431211,0.0004227410211695108
1469.5972667362348,1469.5972667362348,1.0008168931823604,0.00042311087560492156
1469.6042112474092,1469.6042112474092,0.9998004583539318,0.0004231335138727227
1469.6111557586066,1469.6111557586066,0.9996711204969907,0.0004230298443259165
1469.6181002698274,1469.6181002698274,1.0003748469689469,0.0004228533008166187
1469.6250447810248,1469.6250447810248,1.0002100005958905,0.0004228634020243924
1469.6319892922922,1469.6319892922922,1.0000957057994928,0.00042312329202434586
1469.638933803536,1469.638933803536,1.0000053759731455,0.00042299951377844185
1469.6458783148269,1469.6458783148269,1.0004277929535006,0.00042280424454654955
1469.652822826118,1469.652822826118,1.0004408795393793,0.0004229517768501497
1469.659767337385,1469.659767337385,0.9992053778733461,0.00042277676316159987
1469.6667118487217,1469.6667118487217,0.9999921323347196,0.00042307673801526255
1469.6736563600357,1469.6736563600357,0.9997604962542168,0.0004228878484270265
1469.6806008713731,1469.6806008713731,0.9999667907737984,0.00042298912205915133
1469.687545382757,1469.687545382757,0.9993860175312385,0.00042284760074092956
1469.6944898940942,1469.6944898940942,1.000251346441256,0.0004229894217470131
1469.7014344055237,1469.7014344055237,1.0005069206169526,0.00042314518840403943
1469.7083789169078,1469.7083789169078,1.0001135611809737,0.0004230841015004918
1469.7153234282684,1469.7153234282684,0.9999873099162766,0.0004233117790809518
1469.7222679396987,1469.7222679396987,0.9998974339399579,0.00042324379929951586
1469.7292124511991,1469.7292124511991,1.0001113546952343,0.0004231969359611216
1469.7361569626758,1469.7361569626758,0.9998480824852678,0.0004231016970255246
1469.743101474106,1469.743101474106,0.9999299098555499,0.00042302594020482247
1469.7500459856064,1469.7500459856064,0.9998868773572959,0.0004230877704176924
1469.756990497083,1469.756990497083,0.9999949901206705,0.00042272376912132843
1469.7639350086301,1469.7639350086301,1.0009783218588229,0.0004230121176100164
1469.7708795201536,1469.7708795201536,0.999569402244289,0.0004228953728422063
1469.7778240316998,1469.7778240316998,0.9996475193922343,0.00042291994913503555
1469.784768543247,1469.784768543247,0.9995785794356629,0.00042275301631183925
1469.7917130548399,1469.7917130548399,0.9997071089310771,0.00042284956479622773
1469.7986575664102,1469.7986575664102,1.000273738638234,0.00042287312628188896
1469.8056020780036,1469.8056020780036,1.0000667503120961,0.0004228850327291695
1469.81254658962,1469.81254658962,1.000600525482807,0.0004230251488328937
1469.8194911012367,1469.8194911012367,0.9999220430077894,0.00042298256080959524
1469.8264356128996,1469.8264356128996,1.0008933227067534,0.00042301228165934294
1469.8333801245626,1469.8333801245626,0.9998534911203294,0.00042298037393422776
1469.8403246362261,1469.8403246362261,0.9990955393035759,0.00042283247772377096
1469.8472691479126,1469.8472691479126,0.9999409472774543,0.0004230946112736528
1469.8542136595988,1469.8542136595988,1.0002361587941566,0.0004231518378943706
1469.8611581713083,1469.8611581713083,1.0000626361317415,0.00042301946826234086
1469.8681026830182,1469.8681026830182,0.9996249008835912,0.00042300021210137843
1469.875047194798,1469.875047194798,1.000019708899954,0.00042328146213111594
1469.881991706531,1469.881991706531,1.000114641862084,0.000423111970333495
1469.8889362183104,1469.8889362183104,0.9996532609922172,0.00042311520581078953
1469.8958807300896,1469.8958807300896,0.9999237423080054,0.00042298612628233385
1469.9028252418927,1469.9028252418927,1.000074778578774,0.00042329226020555537
1469.9097697536727,1469.9097697536727,1.0001633620954933,0.0004230039937383195
1469.9167142654985,1469.9167142654985,1.0001495825380637,0.00042315394196982745
1469.923658777348,1469.923658777348,1.000371187606901,0.00042298686140053053
1469.9306032891977,1469.9306032891977,1.0000690272020214,0.000422976732094415
1469.93754780107,1469.93754780107,0.9995443727055994,0.00042285915109181174
1469.9444923129427,1469.9444923129427,1.0002952416226294,0.0004230289919316503
1469.9514368248388,1469.9514368248388,0.9994273375539677,0.00042270172655981263
1469.9583813367346,1469.9583813367346,1.0001084544305343,0.00042267633716415074
1469.9653258486542,1469.9653258486542,1.0006214404352036,0.00042310111519010626
1469.9722703605967,1469.9722703605967,0.9998869119315501,0.00042293692494554914
1469.9792148725155,1469.9792148725155,1.0002269116755138,0.00042314875585746975
1469.9861593845048,1469.9861593845048,1.0000475178875614,0.00042292883995997927
1469.9931038964241,1469.9931038964241,0.9993359283330918,0.0004229781315532172
1470.0000484084367,1470.0000484084367,0.999893678455366,0.00042309305586785736
1470.0069929204492,1470.0069929204492,1.0000404916383343,0.000423005357866653
1470.0139374324613,1470.0139374324613,0.9997050741271376,0.00042292974749991657
1470.0208819444736,1470.0208819444736,1.0003147427357688,0.0004231761245551941
1470.0278264564859,1470.0278264564859,1.0003798271657363,0.00042325736187468643
1470.0347709685916,1470.0347709685916,0.9998960376859285,0.00042284314679147254
