time,time,flux,flux_err
1354.114745642088,1354.114745642088,1.0001792,0.0016119295
1354.116134538553,1354.116134538553,1.000642,0.0016118878
1354.1189123319468,1354.1189123319468,1.0011376,0.0016114595
1354.1203012288775,1354.1203012288775,1.0005106,0.0016125833
1354.121690125342,1354.121690125342,0.99932736,0.0016117904
1354.1230790218062,1354.1230790218062,0.9976243,0.0016108789
1354.1244679187362,1354.1244679187362,0.9988411,0.001611435
1354.1258568152011,1354.1258568152011,0.9975942,0.0016113864
1354.1272457116663,1354.1272457116663,0.99959034,0.001612221
1354.1286346085963,1354.1286346085963,0.999315,0.0016115536
1354.1300235050608,1354.1300235050608,0.99852,0.0016112442
1354.1314124015248,1354.1314124015248,1.0012554,0.0016134537
1354.132801298455,1354.132801298455,0.99996805,0.0016119534
1354.13419019492,1354.13419019492,0.99722654,0.0016107482
1354.1355790913844,1354.1355790913844,0.99655855,0.0016104425
1354.1369679878485,1354.1369679878485,1.0002264,0.0016123042
1354.1383568843137,1354.1383568843137,1.0004435,0.0016123133
1354.1397457812436,1354.1397457812436,0.9981683,0.0016115247
1354.1411346777086,1354.1411346777086,0.99902755,0.0016117088
1354.142523574173,1354.142523574173,1.0011936,0.0016135372
1354.1439124706367,1354.1439124706367,0.9987773,0.0016120245
1354.1453013671016,1354.1453013671016,1.0028349,0.00161342
1354.1466902635666,1354.1466902635666,0.9998137,0.0016125971
1354.148079160031,1354.148079160031,0.99879587,0.0016118165
1354.1494680564954,1354.1494680564954,0.9994657,0.0016123032
1354.1508569529597,1354.1508569529597,1.0021768,0.001613199
1354.1522458494246,1354.1522458494246,1.0000864,0.0016123108
1354.1536347458898,1354.1536347458898,0.99980825,0.0016121035
1354.1550236423536,1354.1550236423536,0.9996734,0.0016130571
1354.1564125388177,1354.1564125388177,1.001502,0.0016127637
1354.1578014352826,1354.1578014352826,0.9989548,0.0016126811
1354.1591903317478,1354.1591903317478,1.0016428,0.0016124134
1354.160579228212,1354.160579228212,0.99874157,0.0016121505
1354.1619681246757,1354.1619681246757,1.000508,0.0016133174
1354.1633570211407,1354.1633570211407,1.0001348,0.0016122762
1354.1647459171402,1354.1647459171402,1.0020918,0.0016126788
1354.1661348136045,1354.1661348136045,0.99927866,0.001610919
1354.167523710069,1354.167523710069,0.9990883,0.0016114819
1354.168912606533,1354.168912606533,1.0013617,0.0016128669
1354.1703015029982,1354.1703015029982,0.9995007,0.0016123727
1354.1716903989977,1354.1716903989977,1.0002445,0.0016120443
1354.1730792954613,1354.1730792954613,0.99816406,0.0016114209
1354.1744681919256,1354.1744681919256,0.99772435,0.0016115675
1354.1758570879251,1354.1758570879251,0.9996407,0.0016120762
1354.1772459843892,1354.1772459843892,1.0014852,0.0016131692
1354.1786348808541,1354.1786348808541,0.9999782,0.0016120527
1354.180023776853,1354.180023776853,0.9987098,0.0016114857
1354.1814126733175,1354.1814126733175,1.0004587,0.00161395
1354.1828015697824,1354.1828015697824,0.9984054,0.001611189
1354.1841904657808,1354.1841904657808,1.0011238,0.0016132607
1354.185579362246,1354.185579362246,1.0010309,0.0016128455
1354.1869682582446,1354.1869682582446,0.9987957,0.0016118332
1354.1883571547082,1354.1883571547082,0.99664086,0.0016109819
1354.1897460507078,1354.1897460507078,1.001304,0.0016132899
1354.191134947173,1354.191134947173,1.0003245,0.0016130097
1354.1925238431713,1354.1925238431713,1.0000875,0.0016128717
1354.1939127396358,1354.1939127396358,0.9996879,0.001611361
1354.1953016356345,1354.1953016356345,0.99958634,0.0016118252
1354.1966905320996,1354.1966905320996,1.0014334,0.0016130154
1354.198079428099,1354.198079428099,0.9983133,0.0016119916
1354.1994683245625,1354.1994683245625,1.0009586,0.0016127082
1354.2008572205611,1354.2008572205611,0.9983643,0.0016113541
1354.2022461165607,1354.2022461165607,1.0027554,0.0016137118
1354.2036350130256,1354.2036350130256,0.99953395,0.0016105572
1354.205023909024,1354.205023909024,1.001486,0.0016134036
1354.2064128050222,1354.2064128050222,1.0021703,0.0016133455
1354.2078017014874,1354.2078017014874,0.9960251,0.0016097068
1354.2091905974867,1354.2091905974867,0.99682623,0.0016104416
1354.210579493485,1354.210579493485,0.99924856,0.0016116481
1354.211968389484,1354.211968389484,0.99932146,0.0016128744
1354.2133572859484,1354.2133572859484,0.997076,0.0016110543
1354.2147461819477,1354.2147461819477,0.9959323,0.0016097617
1354.216135077947,1354.216135077947,0.996707,0.0016113137
1354.217523973945,1354.217523973945,0.9999448,0.0016129437
1354.2189128699438,1354.2189128699438,1.0015082,0.0016122905
1354.2203017664087,1354.2203017664087,1.0006816,0.0016120097
1354.2216906624074,1354.2216906624074,1.0001518,0.0016123139
1354.2230795584069,1354.2230795584069,0.99706936,0.0016105471
1354.2244684544053,1354.2244684544053,0.9997717,0.0016121411
1354.225857350404,1354.225857350404,1.0023332,0.0016129516
1354.2272462464034,1354.2272462464034,0.9984598,0.0016116513
1354.2286351424023,1354.2286351424023,0.9990013,0.0016114853
1354.2300240384006,1354.2300240384006,0.99938816,0.0016124706
1354.2314129343995,1354.2314129343995,0.9999243,0.0016121784
1354.232801830398,1354.232801830398,1.0012726,0.0016127161
1354.2341907263976,1354.2341907263976,0.9992427,0.0016116496
1354.235579622397,1354.235579622397,1.0015494,0.0016128384
1354.2369685183955,1354.2369685183955,0.99940956,0.0016112706
1354.2383574143942,1354.2383574143942,0.9998796,0.0016119585
1354.239746310393,1354.239746310393,0.9973814,0.0016105446
1354.2411352063923,1354.2411352063923,1.0009679,0.0016127719
1354.2425241023916,1354.2425241023916,0.99994653,0.0016119205
1354.2439129979239,1354.2439129979239,1.0001762,0.0016124307
1354.2453018939227,1354.2453018939227,1.0026253,0.001614157
1354.246690789922,1354.246690789922,1.0016431,0.0016131263
1354.2480796859213,1354.2480796859213,1.0017784,0.0016133346
1354.2494685819202,1354.2494685819202,0.9998222,0.0016120706
1354.250857477918,1354.250857477918,0.99906236,0.0016116622
1354.2522463734517,1354.2522463734517,0.9994304,0.0016116236
1354.253635269451,1354.253635269451,1.001244,0.0016121361
1354.2550241654499,1354.2550241654499,0.9991629,0.0016117794
1354.2564130614483,1354.2564130614483,1.0004781,0.0016112434
1354.2578019569814,1354.2578019569814,1.0016615,0.0016129364
1354.2591908529807,1354.2591908529807,0.99919635,0.0016115957
1354.26057974898,1354.26057974898,1.0000315,0.0016120038
1354.2619686445123,1354.2619686445123,1.0010577,0.0016125418
1354.2633575405112,1354.2633575405112,1.0015234,0.0016131048
1354.2647464365104,1354.2647464365104,0.99861157,0.0016106481
1354.2661353320436,1354.2661353320436,0.9989376,0.0016109467
1354.267524228043,1354.267524228043,1.0016569,0.001612642
1354.2689131235759,1354.2689131235759,0.9999874,0.001612406
1354.2703020195745,1354.2703020195745,1.000965,0.001612285
1354.2716909151081,1354.2716909151081,1.0008537,0.0016131492
1354.273079811107,1354.273079811107,1.0004058,0.0016132476
1354.2744687066402,1354.2744687066402,1.0006312,0.0016120399
1354.2758576026386,1354.2758576026386,0.9999874,0.0016114751
1354.2772464981717,1354.2772464981717,1.0007976,0.0016117885
1354.278635394171,1354.278635394171,0.99940336,0.0016120796
1354.2800242897047,1354.2800242897047,0.998911,0.0016117234
1354.2814131857035,1354.2814131857035,0.9983485,0.0016114064
1354.2828020812362,1354.2828020812362,0.9989583,0.001610865
1354.284190977235,1354.284190977235,1.0016052,0.0016127418
1354.2855798727687,1354.2855798727687,1.0015501,0.0016128112
1354.286968768302,1354.286968768302,0.99810266,0.0016106156
1354.2883576642998,1354.2883576642998,1.0017434,0.001612829
1354.2897465598335,1354.2897465598335,1.0019443,0.0016126579
1354.291135455367,1354.291135455367,0.9986849,0.001611523
1354.2925243513664,1354.2925243513664,1.0009916,0.0016124833
1354.2939132468996,1354.2939132468996,1.0019065,0.001613505
1354.2953021424319,1354.2953021424319,0.9993832,0.0016113197
1354.2966910379655,1354.2966910379655,1.0002072,0.0016125152
1354.2980799339648,1354.2980799339648,0.9987847,0.001611537
1354.2994688294973,1354.2994688294973,1.0005554,0.0016117613
1354.3008577250303,1354.3008577250303,0.9982066,0.0016106877
1354.302246620564,1354.302246620564,1.0004426,0.0016124833
1354.3036355160975,1354.3036355160975,0.99977684,0.0016123833
1354.305024412097,1354.305024412097,0.9979808,0.0016111718
1354.3064133076296,1354.3064133076296,1.0002755,0.001612197
1354.3078022031623,1354.3078022031623,1.0013062,0.0016122169
1354.309191098696,1354.309191098696,1.0001367,0.0016121062
1354.310579994229,1354.310579994229,1.0016476,0.0016125363
1354.3119688897627,1354.3119688897627,1.001274,0.0016125441
1354.313357785296,1354.313357785296,1.0006034,0.001611874
1354.3147466808289,1354.3147466808289,1.001429,0.0016128891
1354.3161355763627,1354.3161355763627,1.00218,0.0016131921
1354.3175244718955,1354.3175244718955,1.0004122,0.001611863
1354.3189133674286,1354.3189133674286,0.99947995,0.0016113318
1354.3203022629616,1354.3203022629616,1.0016448,0.0016132509
1354.3216911584946,1354.3216911584946,0.999353,0.0016107215
1354.3230800540282,1354.3230800540282,0.99884415,0.0016112465
1354.3244689495618,1354.3244689495618,0.9997807,0.0016121414
1354.325857845095,1354.325857845095,1.0010628,0.00161279
1354.3272467406282,1354.3272467406282,1.0024674,0.0016135465
1354.328635636161,1354.328635636161,1.0004742,0.0016128873
1354.3300245316946,1354.3300245316946,0.9968722,0.0016096958
1354.3314134272277,1354.3314134272277,1.0008894,0.0016123771
1354.33280232276,1354.33280232276,1.0022633,0.001612697
1354.3341912182937,1354.3341912182937,0.9981068,0.0016103362
1354.3355801133619,1354.3355801133619,0.99900603,0.0016112335
1354.3369690088957,1354.3369690088957,1.0013223,0.0016124231
1354.3383579044284,1354.3383579044284,1.0010747,0.0016129703
1354.3397467999607,1354.3397467999607,1.0017605,0.0016124491
1354.3411356954946,1354.3411356954946,0.9986586,0.0016114669
1354.3425245905628,1354.3425245905628,1.0013648,0.0016127299
1354.343913486095,1354.343913486095,1.0001577,0.0016119534
1354.3453023816278,1354.3453023816278,1.0017992,0.0016130798
1354.3466912771617,1354.3466912771617,0.9984044,0.001611148
1354.3480801722299,1354.3480801722299,0.99851453,0.0016110044
1354.3494690677635,1354.3494690677635,1.0026178,0.0016134985
1354.3508579632958,1354.3508579632958,1.0003844,0.0016123959
1354.352246858363,1354.352246858363,1.000635,0.0016120608
1354.353635753897,1354.353635753897,0.99957734,0.0016118576
1354.3550246494297,1354.3550246494297,0.9968255,0.0016100323
1354.3564135444972,1354.3564135444972,1.0022329,0.0016134476
1354.3578024400301,1354.3578024400301,1.0021222,0.0016130226
1354.3591913350983,1354.3591913350983,0.9980398,0.0016110323
1354.360580230632,1354.360580230632,1.0013032,0.0016121024
1354.3619691256993,1354.3619691256993,0.99835646,0.0016120465
1354.3633580212322,1354.3633580212322,0.9982357,0.0016112314
1354.3647469162997,1354.3647469162997,0.9978132,0.0016108246
1354.3661358118325,1354.3661358118325,0.9999805,0.0016122344
1354.3675247069007,1354.3675247069007,0.9991281,0.001611995
1354.3689136024345,1354.3689136024345,1.0028477,0.001613498
1354.3703024975016,1354.3703024975016,0.99956197,0.0016116557
1354.3716913930348,1354.3716913930348,0.99949163,0.0016114436
1354.373080288102,1354.373080288102,0.9984372,0.0016107468
1354.374469183636,1354.374469183636,0.9996809,0.0016124122
1354.375858078703,1354.375858078703,1.0005138,0.0016129661
1354.3772469737696,1354.3772469737696,1.000934,0.0016131849
1354.3786358693035,1354.3786358693035,0.99976426,0.001611842
1354.3800247643717,1354.3800247643717,1.0005704,0.0016106585
1354.3814136599053,1354.3814136599053,1.0015415,0.0016124012
1354.3828025549726,1354.3828025549726,0.9989128,0.0016110614
1354.3841914500395,1354.3841914500395,0.9986181,0.0016110834
1354.385580345573,1354.385580345573,1.0012357,0.0016128707
1354.386969240641,1354.386969240641,1.0019069,0.0016119514
1354.3883581357077,1354.3883581357077,0.9995554,0.00161085
1354.3897470307752,1354.3897470307752,0.99935466,0.001611021
1354.3911359263088,1354.3911359263088,1.0000412,0.0016122899
1354.3925248213768,1354.3925248213768,0.99950963,0.0016119423
1354.3939137164448,1354.3939137164448,0.999335,0.0016110934
1354.3953026115114,1354.3953026115114,1.000956,0.0016129791
1354.396691506579,1354.396691506579,0.9996407,0.001610833
1354.3980804021126,1354.3980804021126,1.0006406,0.0016124796
1354.39946929718,1354.39946929718,0.9998044,0.0016121817
1354.4008581922471,1354.4008581922471,1.0001115,0.0016111038
1354.4022470873147,1354.4022470873147,0.99776477,0.0016105789
1354.4036359823826,1354.4036359823826,1.0016468,0.0016132173
1354.4050248774506,1354.4050248774506,0.99849933,0.0016106502
1354.4064137725181,1354.4064137725181,1.0000539,0.0016122052
1354.4078026675852,1354.4078026675852,0.9996631,0.0016113557
1354.4091915631184,1354.4091915631184,1.0014344,0.0016124096
1354.410580458186,1354.410580458186,1.0002723,0.001611283
1354.4119693532539,1354.4119693532539,1.0022798,0.0016134504
1354.4133582483219,1354.4133582483219,0.99861246,0.001610189
1354.4147471433891,1354.4147471433891,0.998261,0.001610599
1354.4161360384564,1354.4161360384564,0.9988107,0.0016116081
1354.417524933524,1354.417524933524,0.99994916,0.0016113551
1354.418913828592,1354.418913828592,0.9996112,0.0016114563
1354.4203027236595,1354.4203027236595,1.0010096,0.0016120394
1354.421691618726,1354.421691618726,1.0004689,0.0016129224
1354.4230805133284,1354.4230805133284,0.9990563,0.0016107145
1354.4244694083964,1354.4244694083964,0.9995878,0.0016122065
1354.4258583034643,1354.4258583034643,0.9969835,0.0016091437
1354.4272471985319,1354.4272471985319,0.999514,0.0016117787
1354.4286360935985,1354.4286360935985,0.99950147,0.0016116186
1354.4300249886664,1354.4300249886664,0.99909693,0.0016114633
1354.4314138837344,1354.4314138837344,0.9987428,0.0016108504
1354.432802778801,1354.432802778801,1.0030966,0.0016133733
1354.434191673403,1354.434191673403,0.99829245,0.0016113071
1354.4355805684709,1354.4355805684709,0.9995248,0.0016117467
1354.4369694635388,1354.4369694635388,1.0032641,0.0016131328
1354.4383583586068,1354.4383583586068,1.0016787,0.0016130164
1354.4397472532078,1354.4397472532078,1.0003113,0.0016116857
1354.4411361482753,1354.4411361482753,0.999734,0.0016105023
1354.4425250433433,1354.4425250433433,0.9994486,0.0016115755
1354.4439139384108,1354.4439139384108,1.0021809,0.001612625
1354.4453028330124,1354.4453028330124,1.0025294,0.0016123932
1354.4466917280797,1354.4466917280797,1.0002646,0.0016121812
1354.4480806231477,1354.4480806231477,1.0026493,0.0016128805
1354.44946951775,1354.44946951775,0.99898905,0.0016116824
1354.4508584128175,1354.4508584128175,0.99970245,0.0016115777
1354.452247307885,1354.452247307885,0.9982299,0.0016113033
1354.4536362024865,1354.4536362024865,0.99870646,0.001612041
1354.455025097554,1354.455025097554,0.99806803,0.0016102608
1354.456413992622,1354.456413992622,1.000324,0.0016115112
1354.4578028872243,1354.4578028872243,1.0010597,0.0016121427
1354.4591917822918,1354.4591917822918,0.9999355,0.001611171
1354.4605806768934,1354.4605806768934,0.99724406,0.0016100318
1354.4619695719607,1354.4619695719607,1.0008427,0.0016117943
1354.463358466563,1354.463358466563,0.9989043,0.0016102194
1354.4647473616305,1354.4647473616305,0.998976,0.001610839
1354.4661362562315,1354.4661362562315,0.99978757,0.0016115794
1354.4675251512995,1354.4675251512995,0.9989416,0.00161084
1354.4689140459018,1354.4689140459018,1.0027394,0.0016137095
1354.4703029409698,1354.4703029409698,1.000681,0.0016122301
1354.4716918355716,1354.4716918355716,1.0005599,0.0016122531
1354.4730807306382,1354.4730807306382,0.99941206,0.0016114558
1354.4744696252405,1354.4744696252405,1.0001203,0.0016117629
1354.4758585203085,1354.4758585203085,0.99847955,0.0016107373
1354.4772474149097,1354.4772474149097,1.0014981,0.0016127668
1354.4786363095113,1354.4786363095113,0.99847823,0.0016108716
1354.4800252045793,1354.4800252045793,1.0019625,0.0016127969
1354.4814140991818,1354.4814140991818,0.9998466,0.0016115529
1354.4828029937844,1354.4828029937844,0.9997347,0.0016115032
1354.484191888851,1354.484191888851,0.9996362,0.0016118515
1354.4855807834524,1354.4855807834524,1.0012419,0.0016121847
1354.486969678055,1354.486969678055,1.0016221,0.001612135
1354.4883585731222,1354.4883585731222,0.99949634,0.0016117784
1354.489747467724,1354.489747467724,0.9984497,0.0016099483
1354.4911363623255,1354.4911363623255,1.002326,0.0016129239
1354.4925252573937,1354.4925252573937,1.0014257,0.00161186
1354.4939141519963,1354.4939141519963,1.0001516,0.0016116473
1354.4953030465977,1354.4953030465977,0.99673855,0.0016097698
1354.4966919411995,1354.4966919411995,1.0010695,0.0016118387
1354.4980808362668,1354.4980808362668,0.9995328,0.0016108026
1354.4994697308684,1354.4994697308684,0.9978724,0.0016104811
1354.5008586254708,1354.5008586254708,0.9989307,0.0016102606
1354.5022475200733,1354.5022475200733,0.9985598,0.0016102508
1354.503636414675,1354.503636414675,1.0004747,0.0016113045
1354.5050253092768,1354.5050253092768,1.0014321,0.0016115555
1354.5064142038782,1354.5064142038782,1.0001954,0.0016120706
1354.5078030989464,1354.5078030989464,0.9990399,0.0016112556
1354.509191993548,1354.509191993548,0.9966846,0.0016096809
1354.510580888149,1354.510580888149,1.0024747,0.0016125859
1354.5119697827513,1354.5119697827513,0.99988323,0.0016111963
1354.5133586773538,1354.5133586773538,0.99846584,0.001610793
1354.5147475719564,1354.5147475719564,0.99900055,0.0016104298
1354.5161364665578,1354.5161364665578,0.99701846,0.0016097252
1354.5175253611587,1354.5175253611587,1.000637,0.0016120353
1354.5189142557613,1354.5189142557613,1.0004957,0.0016118237
1354.5203031503638,1354.5203031503638,0.9995286,0.0016118202
1354.5216920449648,1354.5216920449648,0.99886537,0.00161057
1354.5230809395664,1354.5230809395664,1.000858,0.0016116207
1354.524469834169,1354.524469834169,1.0029632,0.0016129516
1354.5258587287713,1354.5258587287713,0.9987926,0.0016106236
1354.5272476233736,1354.5272476233736,0.99771094,0.0016112502
1354.5286365179745,1354.5286365179745,1.001587,0.0016115287
1354.5300254125764,1354.5300254125764,0.99906075,0.0016114819
1354.5314143071787,1354.5314143071787,0.99922556,0.001611319
1354.53280320178,1354.53280320178,1.0020044,0.0016124301
1354.5341920959163,1354.5341920959163,0.9992681,0.0016107426
1354.5355809905182,1354.5355809905182,0.99971116,0.0016112291
1354.5369698851205,1354.5369698851205,0.9987444,0.0016109195
1354.5383587797228,1354.5383587797228,0.99783725,0.0016107897
1354.5397476743246,1354.5397476743246,1.0020479,0.0016119109
1354.541136568926,1354.541136568926,1.0018219,0.0016128384
1354.542525463528,1354.542525463528,1.0021052,0.0016120618
1354.5439143576639,1354.5439143576639,1.0000571,0.0016112876
1354.5453032522664,1354.5453032522664,1.0000203,0.0016118659
1354.5466921468687,1354.5466921468687,1.0022117,0.0016131841
1354.5480810414701,1354.5480810414701,1.0005007,0.0016115465
1354.5494699356063,1354.5494699356063,0.9995346,0.0016106766
1354.5508588302082,1354.5508588302082,1.0010546,0.0016122869
1354.5522477248105,1354.5522477248105,1.0002114,0.0016114595
1354.553636619412,1354.553636619412,0.9995011,0.0016111566
1354.5550255135474,1354.5550255135474,1.0020995,0.0016127644
1354.55641440815,1354.55641440815,1.0002407,0.0016116345
1354.5578033027523,1354.5578033027523,0.99843305,0.0016105833
1354.559192196889,1354.559192196889,0.9991331,0.0016110069
1354.5605810914908,1354.5605810914908,0.99749774,0.0016106676
1354.5619699860918,1354.5619699860918,1.0000457,0.0016113014
1354.5633588802284,1354.5633588802284,0.9978402,0.0016109741
1354.5647477748307,1354.5647477748307,1.0041833,0.0016138837
1354.566136668966,1354.566136668966,0.9989326,0.0016096648
1354.5675255635679,1354.5675255635679,0.99993956,0.0016113942
1354.5689144577045,1354.5689144577045,0.9989152,0.0016108411
1354.5703033523068,1354.5703033523068,1.000786,0.0016115011
1354.5716922469092,1354.5716922469092,1.0026292,0.0016125331
1354.5730811410444,1354.5730811410444,0.99848336,0.0016116452
