time,time,flux,flux_err
1354.1143113691926,1354.1143113691926,1.0000617706939532,0.0017433054575250715
1354.1231078538458,1354.1231078538458,0.9991908425030758,0.001743389467264903
1354.1314413657974,1354.1314413657974,0.999957139381133,0.001743708147894503
1354.1390804185692,1354.1390804185692,0.9987077564115456,0.0015917469458182221
1354.1460250121324,1354.1460250121324,1.001335072613435,0.0015926475189380423
1354.1529696058121,1354.1529696058121,1.0015114343518328,0.0015929378399763803
1354.1599141996026,1354.1599141996026,1.001242709357502,0.00159350196134385
1354.1668587935037,1354.1668587935037,1.0010647482045598,0.0015927630823145474
1354.1738033875154,1354.1738033875154,0.9970095540285637,0.001591444699237133
1354.1807479816318,1354.1807479816318,1.0005888436735784,0.0015926345139237897
1354.187692575859,1354.187692575859,0.9990068405306014,0.0015920243690482657
1354.1946371702022,1354.1946371702022,0.9993973392269109,0.0015928775845036557
1354.2015817646388,1354.2015817646388,1.0003387423292383,0.0015925098773932566
1354.2085263591744,1354.2085263591744,0.9987093679767887,0.0015920323122900547
1354.2154709538202,1354.2154709538202,0.9992335314419805,0.0015919286112939016
1354.222415548565,1354.222415548565,1.0013085982064152,0.0015915956626240887
1354.2293601434035,1354.2293601434035,0.9995005465632228,0.001591843096921473
1354.2363047383406,1354.2363047383406,1.0010696622411874,0.0015909526539036449
1354.2432493333768,1354.2432493333768,0.9979936464830651,0.0015897872628821085
1354.250193928506,1354.250193928506,1.0028965487891566,0.001591502695567816
1354.257138523722,1354.257138523722,0.9993590457184055,0.0015902192167809015
1354.2640831190379,1354.2640831190379,0.9993721611229036,0.0015904427154911753
1354.2710277144404,1354.2710277144404,1.000643155043912,0.0015904028100818773
1354.2779723099306,1354.2779723099306,1.0004562039205236,0.001590590606567494
1354.284916905508,1354.284916905508,0.9995372265466873,0.001590513071850853
1354.2918615011727,1354.2918615011727,0.999551128605486,0.0015906919781967308
1354.2988060969187,1354.2988060969187,1.0004805425860046,0.0015913865184823798
1354.3057506927466,1354.3057506927466,0.9998946730637327,0.001590943609340283
1354.312695288656,1354.312695288656,1.0010252591297601,0.0015916697605822556
1354.3196398846467,1354.3196398846467,0.999116309506447,0.0015909345956201548
1354.3265844807127,1354.3265844807127,0.9985279830830722,0.0015906988687767244
1354.3335290768666,1354.3335290768666,0.9999410602455867,0.0015913144424087166
1354.3404736730959,1354.3404736730959,1.0014743883081814,0.0015913698859920083
1354.3474182693833,1354.3474182693833,1.0001797974194517,0.001591255749249964
1354.3543628657696,1354.3543628657696,0.9975492570450154,0.0015904498037772673
1354.361307462203,1354.361307462203,1.0010696194224722,0.001591658075379274
1354.3682520587176,1354.3682520587176,0.9997535033148603,0.0015906038872140912
1354.3751966553077,1354.3751966553077,1.0015070970332272,0.0015911682779830745
1354.3821412519617,1354.3821412519617,1.0010543734476962,0.0015908095914347476
1354.389085848686,1354.389085848686,0.9993859334757769,0.0015900497445145334
1354.396030445474,1354.396030445474,0.9995043266028099,0.0015898796084526739
1354.402975042332,1354.402975042332,0.9981708418431431,0.0015902567911443163
1354.4099196392426,1354.4099196392426,1.0016172882475847,0.0015908362070654112
1354.4168642362285,1354.4168642362285,1.0004816862159647,0.001590204885784647
1354.4238088332672,1354.4238088332672,0.9997187841658708,0.0015892006706614598
1354.4307534303807,1354.4307534303807,1.0002006060713646,0.0015900577229201157
1354.4376980275415,1354.4376980275415,0.999094328986347,0.0015892290002029747
1354.4446426247664,1354.4446426247664,1.0005668712558287,0.0015894940001202288
1354.4515872220431,1354.4515872220431,0.9995848019762761,0.001588604427840893
1354.4585318193901,1354.4585318193901,0.9972795853647118,0.001587725915632953
1354.4654764167722,1354.4654764167722,1.0018338176317503,0.0015896178908008439
1354.4724210142292,1354.4724210142292,1.0024886312096306,0.0015899127633804387
1354.479365611728,1354.479365611728,1.0005389771721036,0.0015894901751164262
1354.4863102092843,1354.4863102092843,0.9989615683141349,0.0015890109888386564
1354.493254806887,1354.493254806887,0.9989686540862144,0.0015883896735171851
1354.5001994045547,1354.5001994045547,1.0000377116168297,0.0015894748392891278
1354.5071440022505,1354.5071440022505,1.0005885427283485,0.0015893318179098115
1354.5140886000106,1354.5140886000106,1.000291775056944,0.00159000832244756
1354.521033197812,1354.521033197812,0.9986857544538934,0.0015888866042051471
1354.5279777956591,1354.5279777956591,1.0002369951368582,0.0015895482311449962
1354.534922393565,1354.534922393565,1.0001540507291793,0.00159081590265316
1354.5418669915057,1354.5418669915057,1.0011957792224562,0.0015904898677851355
1354.5488115894868,1354.5488115894868,0.9978053722127698,0.001589293767210713
1354.5557561875153,1354.5557561875153,1.0001893290532893,0.0015895879515724133
1354.5627007855892,1354.5627007855892,1.0016865099014953,0.0015901301009084295
1354.5696453837045,1354.5696453837045,0.9990930396411215,0.0015887164638216111
1354.5765899818548,1354.5765899818548,0.9996691169117528,0.0015890502657634406
1354.5835345800574,1354.5835345800574,1.0014266446867608,0.0015894209289072994
1354.5904791782891,1354.5904791782891,0.9975631192952905,0.0015874580586709708
1354.5974237765556,1354.5974237765556,0.999629360531222,0.001589026375503336
1354.6043683748744,1354.6043683748744,1.0020351276121446,0.0015891260516640963
1354.611312973217,1354.611312973217,0.999193153274059,0.0015877905384742877
1354.6182575716055,1354.6182575716055,1.001569359116104,0.0015881320015278342
1354.625202170018,1354.625202170018,0.9996848605761972,0.001588130405742915
1354.6321467684706,1354.6321467684706,1.0001057564850808,0.0015875633142755825
1354.6390913669643,1354.6390913669643,1.0003908292822468,0.0015872038170758017
1354.646035965487,1354.646035965487,0.9972846795635378,0.0015868819829520549
1354.652980564039,1354.652980564039,1.0000879754803909,0.001587542502045757
1354.6599251626315,1354.6599251626315,1.0005675318983187,0.001587682343516603
1354.6668697612358,1354.6668697612358,1.0021846344494896,0.0015886579560553163
1354.6738143598805,1354.6738143598805,0.9991124617170044,0.0015884046542898554
1354.6807589585544,1354.6807589585544,1.0016216064763381,0.0015885857862438315
1354.6877035572638,1354.6877035572638,1.0006319522176013,0.0015883807309854628
1354.6946481560014,1354.6946481560014,0.9979441339925306,0.0015875398570132896
1354.7015927547513,1354.7015927547513,0.9992318372778296,0.0015875235620713493
1354.7085373535422,1354.7085373535422,0.997098697859176,0.0015871323063478202
1354.7154819523555,1354.7154819523555,1.0006074285574438,0.0015879247311579535
1354.722426551193,1354.722426551193,1.0009716794309225,0.0015885335347857823
1354.7293711500704,1354.7293711500704,1.0007424374121947,0.001588368132477306
1354.7363157489542,1354.7363157489542,1.0020618839976114,0.001589042711560611
1354.743260347855,1354.743260347855,1.0007513828815942,0.001588501294930992
1354.7502049467969,1354.7502049467969,0.9996399718630578,0.001589313182764792
1354.757149545756,1354.757149545756,0.9996260524999082,0.001588536115435271
1354.764094144733,1354.764094144733,1.0000828707415876,0.001589309919173543
1354.7710387437387,1354.7710387437387,0.9983776008291677,0.0015881084622615827
1354.7779833427505,1354.7779833427505,1.000312810827522,0.0015887597597157251
1354.7849279418085,1354.7849279418085,1.0003973032812077,0.001588178694720928
1354.7918725408667,1354.7918725408667,0.9976672190618846,0.0015875819005269753
1354.7988171399484,1354.7988171399484,1.0018639450111289,0.001589301911599432
1354.8057617390532,1354.8057617390532,0.9974076926264571,0.001587257852038679
1354.8127063381755,1354.8127063381755,1.0004100059204908,0.0015888342619312349
1354.8196509373092,1354.8196509373092,1.00191782926854,0.0015886548699675282
1354.826595536478,1354.826595536478,1.0022403516581673,0.0015885859812987569
1354.833540135653,1354.833540135653,1.0007577858229428,0.001588585623215135
1354.8404847348272,1354.8404847348272,1.0001229773459173,0.0015891726974437536
1354.847429334037,1354.847429334037,0.9986320999752495,0.0015883230351273075
1354.8543739332524,1354.8543739332524,0.9977935039775925,0.0015875861295678387
1354.861318532491,1354.861318532491,0.9985188853762942,0.0015881258147922082
1354.8682631317358,1354.8682631317358,1.0000209368002175,0.001588568733131512
1354.8752077309975,1354.8752077309975,1.001488392183815,0.0015889733848828825
1354.882152330271,1354.882152330271,0.9997888564426531,0.0015889386036804134
1354.8890969295621,1354.8890969295621,1.0013385243937032,0.0015893648924181019
1354.896041528865,1354.896041528865,0.9990022718457106,0.0015883797796629514
1354.9029861281851,1354.9029861281851,1.0016794002026557,0.0015886503926606228
1354.9099307275053,1354.9099307275053,1.0011068515330916,0.0015891478710729622
1354.9168753268368,1354.9168753268368,1.000075311019675,0.0015882409418403512
1354.9238199261863,1354.9238199261863,0.9966687998319109,0.0015872173350274794
1354.9310423095144,1354.9310423095144,1.0001477512973758,0.00158819982663829
1354.9390980447838,1354.9390980447838,1.0011648994619304,0.001589557246299426
1354.9460426441624,1354.9460426441624,0.9995951835417642,0.001588599264872638
1354.9529872435464,1354.9529872435464,0.9992115645249797,0.0015885051872094335
1354.959931842942,1354.959931842942,1.0024587591803815,0.0015895791267612897
1354.96687644235,1354.96687644235,0.9977290372992818,0.0015880510551701007
1354.973821041763,1354.973821041763,0.9988802219810908,0.001588001450368834
1354.9807656411824,1354.9807656411824,1.0007435764537171,0.0015880683709314281
1354.987710240607,1354.987710240607,1.0010221651950437,0.0015881573151505727
1354.9946548400437,1354.9946548400437,0.9991653318987946,0.0015876870709334713
1355.001599439486,1355.001599439486,1.0012472396000782,0.0015890070621432928
1355.0085440389284,1355.0085440389284,1.0009419480492967,0.0015882721606524826
1355.0154886383884,1355.0154886383884,0.9997626461336437,0.0015880217286731297
1355.0224332378307,1355.0224332378307,0.9989644978777072,0.0015871863357583636
1355.0293778372966,1355.0293778372966,1.0013310343094433,0.0015889749427711747
1355.0363224367622,1355.0363224367622,0.998403270593123,0.0015877558672054645
1355.0432670362395,1355.0432670362395,1.0001564829339333,0.0015886094342020068
1355.0502116357227,1355.0502116357227,0.9986662115618288,0.0015872380601940853
1355.0571562351943,1355.0571562351943,1.0011900975540649,0.0015876894893919011
1355.0641008346834,1355.0641008346834,0.9991783386206967,0.00158715735108842
1355.071045434166,1355.071045434166,1.0014181754272062,0.0015878375498157848
1355.0779900336552,1355.0779900336552,0.9998176696172901,0.001586857050952481
1355.084934633144,1355.084934633144,0.9981946287209323,0.001585210317839336
1355.0918792326388,1355.0918792326388,0.9989181336490974,0.0015862576447480902
1355.0988238321338,1355.0988238321338,1.001511858442306,0.0015870414021252471
1355.1057684316343,1355.1057684316343,1.0018320636672353,0.0015870640151240043
1355.1127130311293,1355.1127130311293,1.0021022758977927,0.001587413938838933
1355.1196576306297,1355.1196576306297,0.9986017450949664,0.0015862159978714042
1355.1266022301243,1355.1266022301243,1.000135354197039,0.0015870490130375427
1355.1335468296252,1355.1335468296252,0.9999952211174957,0.0015871779331144598
1355.1404914291315,1355.1404914291315,0.9997190560120947,0.001586840530926971
1355.1474360286265,1355.1474360286265,0.9984057422699374,0.0015870330902826133
1355.1543806281268,1355.1543806281268,0.9985810034519329,0.001586734459612972
1355.161325227628,1355.161325227628,1.0003044285939569,0.001587613207685674
1355.168269827123,1355.168269827123,1.001290338626665,0.0015878792270976531
1355.175214426617,1355.175214426617,0.9990481031340274,0.0015868009613597006
1355.182159026112,1355.182159026112,1.0016590176041682,0.0015875223963798066
1355.1891036256075,1355.1891036256075,0.9989887977553831,0.0015862730677297311
1355.1960482251015,1355.1960482251015,1.0006252197449064,0.0015868852389274817
1355.2029928245906,1355.2029928245906,1.0013854578441161,0.0015872959470716382
1355.2099374240738,1355.2099374240738,0.9986334259627224,0.0015860933447241065
1355.216882023563,1355.216882023563,1.0003687189145292,0.0015868131163391075
1355.2238266230347,1355.2238266230347,1.0005022026195618,0.0015871438716399042
1355.230771222529,1355.230771222529,1.0010682550058934,0.0015876417647933821
1355.2377158219947,1355.2377158219947,0.9987196190974519,0.0015864780987037395
1355.2446604214604,1355.2446604214604,0.9984147307853506,0.0015863196020712382
1355.2516050209263,1355.2516050209263,0.9997722797389634,0.001586192423987779
1355.258549620392,1355.258549620392,0.9978085161192987,0.0015858034229616568
1355.2654942198576,1355.2654942198576,1.0008651286680377,0.001587136038602483
1355.2724388193114,1355.2724388193114,1.0008314323287717,0.0015865186025015617
1355.27938341876,1355.27938341876,1.0031015021521317,0.001587775642973545
1355.2863280182023,1355.2863280182023,0.9996316261334414,0.0015865912340665444
1355.2932726176446,1355.2932726176446,1.0000664015956138,0.0015854150565836125
1355.3002172170814,1355.3002172170814,0.9989174887076079,0.0015849350825495618
1355.3071618165063,1355.3071618165063,0.9988079724078277,0.0015848867054915404
1355.3141064159313,1355.3141064159313,0.9996566705644685,0.001586375935962545
1355.3210510153503,1355.3210510153503,1.001366202760828,0.0015871888468812659
1355.3279956147578,1355.3279956147578,1.001439059274885,0.0015870891269723808
1355.336051350068,1355.336051350068,1.0005819223705246,0.0015870070559647227
1355.3432737334429,1355.3432737334429,0.9975732550052487,0.0015863430446439529
1355.3502183328328,1355.3502183328328,1.00149795691678,0.0015874498872385935
1355.3571629322112,1355.3571629322112,0.9974858035129024,0.001585874991504815
1355.3641075315895,1355.3641075315895,1.0005543536689783,0.0015873440174524345
1355.3710521309617,1355.3710521309617,1.0008138413723717,0.0015866906002030088
1355.3779967303174,1355.3779967303174,1.0003206065298627,0.0015871715348585325
1355.3849413296723,1355.3849413296723,0.9999365652431307,0.0015864964103892275
1355.3918859290213,1355.3918859290213,0.9996427761057657,0.0015872167161602815
1355.4002194482232,1355.4002194482232,0.9985415991738804,0.0015867543287618516
1355.4071640475606,1355.4071640475606,1.0017657291086732,0.001587216868367913
1355.414108646881,1355.414108646881,1.0005260462236023,0.0015872783571124365
1355.4210532461839,1355.4210532461839,0.9969719131964432,0.0015857610954021645
1355.4279978454922,1355.4279978454922,1.004252421009964,0.0015886602484192908
1355.4349424447835,1355.4349424447835,1.0002383612688637,0.001586516172512406
1355.4418870440686,1355.4418870440686,0.9995638631084699,0.0015876882917634102
1355.4488316433478,1355.4488316433478,0.9973623348732543,0.0015868430799381504
1355.4557762426102,1355.4557762426102,1.001368360532638,0.0015882268884894898
1355.4627208418663,1355.4627208418663,0.9998469326798292,0.001588342486677745
1355.4696654411168,1355.4696654411168,0.9999032429683534,0.001588433230778171
1355.4766100403554,1355.4766100403554,0.9988605820342038,0.0015876518901870996
1355.4835546395882,1355.4835546395882,1.001338499569013,0.0015888980977143106
1355.4904992388037,1355.4904992388037,0.9993494275832328,0.0015876197044517697
1355.497443838013,1355.497443838013,1.0007699177450058,0.0015883401166160841
1355.5043884372108,1355.5043884372108,0.9980271978926725,0.0015867059698308696
1355.5113330364031,1355.5113330364031,0.9999147407631923,0.0015872833140830225
1355.5182776355778,1355.5182776355778,1.0017813775746325,0.0015881014506157836
1355.5252222347467,1355.5252222347467,0.9988746674771269,0.0015870857813070315
1355.532166833898,1355.532166833898,1.0029475357456892,0.0015876344840427287
1355.539111433038,1355.539111433038,0.9985768230291612,0.0015855866773297274
1355.5460560321774,1355.5460560321774,0.9988079408298279,0.0015863153775615673
1355.5530006312997,1355.5530006312997,1.0003642380419033,0.0015869471204081795
1355.5599452304164,1355.5599452304164,1.0003041774816395,0.001587332759440847
1355.5668898295094,1355.5668898295094,1.001207033048353,0.001587954326534424
1355.5738344285967,1355.5738344285967,0.9978334961271115,0.001585984289160226
1355.5807790276726,1355.5807790276726,1.0008954473064788,0.001587448903765031
1355.5877236267363,1355.5877236267363,1.0002134356947123,0.0015867490772695923
1355.594668225795,1355.594668225795,0.9989588220776888,0.001586811688239459
1355.6016128248295,1355.6016128248295,0.9994937353677675,0.0015868835062613066
1355.6085574238589,1355.6085574238589,1.0018355806711738,0.0015879261574317874
1355.6155020228766,1355.6155020228766,1.000464266617742,0.0015871864955607662
1355.622446621882,1355.622446621882,0.9979523172504019,0.001586323520470563
1355.6293912208705,1355.6293912208705,1.0021865992636094,0.001588091611533219
1355.6363358198475,1355.6363358198475,1.001166619971967,0.0015872417515085118
1355.6432804188182,1355.6432804188182,0.9986548343371743,0.0015860465451900895
1355.650225017772,1355.650225017772,0.999407792379001,0.0015864326208370268
1355.6571696167136,1355.6571696167136,0.9990827407695276,0.0015864186579176865
1355.664114215638,1355.664114215638,1.0003220523799397,0.0015866953010209145
1355.671058814551,1355.671058814551,0.9999871534047085,0.0015870019201048736
1355.6780034134515,1355.6780034134515,0.9993712817848502,0.001586775140173528
1355.6849480123353,1355.6849480123353,1.0006710301834443,0.0015871270150782679
1355.6918926112194,1355.6918926112194,1.000704512973075,0.0015869930713700926
1355.6988372100736,1355.6988372100736,0.9993378306758258,0.001586358405863501
1355.7057818089165,1355.7057818089165,1.0000283201971187,0.0015867102146128122
1355.712726407754,1355.712726407754,0.999808547750954,0.0015865638845576717
1355.7196710065732,1355.7196710065732,1.0007523803069274,0.0015866578592329118
1355.7266156053813,1355.7266156053813,1.0001685097205435,0.0015871197935586746
1355.7335602041717,1355.7335602041717,1.0013781660169196,0.0015868904660275723
1355.7407825869,1355.7407825869,0.9990616589852982,0.0015864457191281547
1355.7488383214538,1355.7488383214538,0.999287616720842,0.0015872729863816346
1355.7557829202208,1355.7557829202208,0.9994183771631221,0.0015864622238000372
1355.7627275189298,1355.7627275189298,0.999202670732289,0.0015871423284489702
1355.7696721176567,1355.7696721176567,1.0007627897315126,0.0015875102277177634
1355.776616716359,1355.776616716359,1.000653902649555,0.0015877606688140245
1355.783561315045,1355.783561315045,0.9989303292612683,0.0015866184641165758
1355.7905059137136,1355.7905059137136,0.998971870776062,0.001586910586308151
1355.7974505123761,1355.7974505123761,1.0001871825092887,0.0015874283443941361
1355.8043951110208,1355.8043951110208,1.0010936333429068,0.0015868800312248336
1355.8113397096483,1355.8113397096483,0.9999893471854477,0.001586699212118015
1355.8182843082589,1355.8182843082589,1.0028769516244802,0.0015876303279610403
1355.8252289068744,1355.8252289068744,1.000135281842891,0.0015866275413570115
1355.832173505438,1355.832173505438,0.9972601919934713,0.0015854547763940632
1355.839118104013,1355.839118104013,0.999827099101522,0.0015862228325292504
1355.8460627025647,1355.8460627025647,1.0025041610540768,0.0015875277599022891
1355.853007301105,1355.853007301105,0.9987455520075942,0.0015863101499652044
1355.8599518996277,1355.8599518996277,1.000735741657014,0.0015866847763439883
1355.8668964981273,1355.8668964981273,1.000100773223815,0.0015866223337139846
1355.8738410966212,1355.8738410966212,1.001051862813822,0.0015871475245554285
1355.8807856950916,1355.8807856950916,1.0012277942283656,0.0015875260415880638
1355.8877302935616,1355.8877302935616,0.9993413898185395,0.0015868160823246566
