time,time,flux,flux_err
1354.1165049390609,1354.1165049390609,0.9993140010965336,0.000293760893377214
1354.125301348063,1354.125301348063,1.0001983690248577,0.0002938316062935678
1354.1336347881622,1354.1336347881622,1.0003098579433731,0.0002938320938480648
1354.141968228262,1354.141968228262,1.0005958929256416,0.0002938656852411353
1354.149607214929,1354.149607214929,1.0000414437416214,0.0002681789053390471
1354.1565517483346,1354.1565517483346,1.000059664080074,0.0002681850706428582
1354.1634962817402,1354.1634962817402,0.9998227617940568,0.0002681192234768006
1354.1704408150997,1354.1704408150997,0.9999263690998326,0.000268161297652131
1354.1773853484588,1354.1773853484588,0.99988982839473,0.00026814391448387245
1354.184329881818,1354.184329881818,0.999851778358904,0.00026815011911338873
1354.1912744151773,1354.1912744151773,1.0002216816746163,0.00026817142879677054
1354.1982189484902,1354.1982189484902,0.9997603457437743,0.0002681583175787438
1354.2051634818029,1354.2051634818029,0.9999769799193773,0.0002681841308211461
1354.2121080151153,1354.2121080151153,0.9999552245360498,0.0002682073144495938
1354.219052548428,1354.219052548428,1.0004160649250857,0.0002682618038904017
1354.2259970817406,1354.2259970817406,1.0001547495008487,0.000268186319978722
1354.2329416150067,1354.2329416150067,0.9999094997371397,0.00026818628021341113
1354.2398861483193,1354.2398861483193,1.0000420229924187,0.0002681894200735586
1354.2468306815858,1354.2468306815858,0.9997830661304927,0.00026813798474440196
1354.2537752147587,1354.2537752147587,0.9996426641671381,0.0002680999693458862
1354.2607197480243,1354.2607197480243,0.999880989386108,0.00026817747439996265
1354.2676642812444,1354.2676642812444,0.9999001993819385,0.0002681147165820038
1354.2746088144636,1354.2746088144636,0.9999702629495836,0.0002681511095195892
1354.2815533476366,1354.2815533476366,0.999976593614232,0.00026814145982341134
1354.2884978808095,1354.2884978808095,1.0007146471902229,0.0002682201428633318
1354.2954424139357,1354.2954424139357,1.0002591039167563,0.00026819563602816404
1354.302386947109,1354.302386947109,1.0000467971554992,0.00026810674619447757
1354.309331480282,1354.309331480282,0.999842319813799,0.00026810576979198367
1354.3162760133616,1354.3162760133616,0.9997052590422525,0.00026808949895568574
1354.323220546488,1354.323220546488,0.9996573412230376,0.00026809101343475855
1354.330165079568,1354.330165079568,1.0001400261410034,0.00026814796707861336
1354.337109612648,1354.337109612648,1.000086481038848,0.00026816789143496126
1354.344054145681,1354.344054145681,1.0002631257441243,0.0002681591021660882
1354.3509986787142,1354.3509986787142,0.9999903709296575,0.00026814421091199517
1354.357943211701,1354.357943211701,0.9998634715778554,0.0002681481816923379
1354.3648877447808,1354.3648877447808,0.9998408275834058,0.0002681142009274356
1354.3718322777208,1354.3718322777208,1.0001822195673205,0.0002681650075928864
1354.378776810708,1354.378776810708,0.999749478768868,0.0002681310205420365
1354.385721343601,1354.385721343601,0.9998719722196542,0.00026811973784937273
1354.392665876495,1354.392665876495,1.0001847433378892,0.00026818308941111996
1354.399610409435,1354.399610409435,1.000084269658279,0.000268136266451433
1354.406554942282,1354.406554942282,0.9998177281872078,0.0002681220618944584
1354.4134994751294,1354.4134994751294,1.000540725673412,0.0002682212343862688
1354.4204440079761,1354.4204440079761,1.0001605374789033,0.0002681595404055044
1354.4273885408231,1354.4273885408231,0.9996878674013283,0.00026807808801553284
1354.4343330736233,1354.4343330736233,0.9996028501942386,0.00026810558214401884
1354.441277606377,1354.441277606377,0.9999015467266738,0.0002681279972668889
1354.448222139131,1354.448222139131,1.0001387710021619,0.0002681453764261384
1354.4551666718387,1354.4551666718387,1.0000392991740845,0.00026816488257477936
1354.4621112045456,1354.4621112045456,1.000105122985929,0.00026816048794626
1354.4690557372066,1354.4690557372066,1.000165212240421,0.00026815400969724566
1354.4760002698672,1354.4760002698672,0.999922796353496,0.0002681443092047968
1354.482944802528,1354.482944802528,1.000120729737364,0.0002681720128876587
1354.4898893351424,1354.4898893351424,0.9999316716997241,0.00026813134067526584
1354.4968338677563,1354.4968338677563,1.000322714298485,0.0002681779389869842
1354.503778400324,1354.503778400324,0.999795684526033,0.0002681075511539949
1354.510722932845,1354.510722932845,0.9999401704743803,0.000268132432403449
1354.517667465366,1354.517667465366,0.9995476336735974,0.0002680591559193207
1354.5246119978406,1354.5246119978406,0.9998046756086127,0.00026810354819223754
1354.5315565303615,1354.5315565303615,1.0002524710975247,0.0002681827065118723
1354.5385010627429,1354.5385010627429,0.9999240176845536,0.0002681124367122506
1354.5454455951246,1354.5454455951246,1.000149452161287,0.00026817228381266706
1354.5523901275053,1354.5523901275053,1.0000453641271752,0.00026814002350570594
1354.5593346598876,1354.5593346598876,0.9998696099984755,0.00026808098901173386
1354.5662791922682,1354.5662791922682,1.0008444352642083,0.0002682004965087695
1354.5732237246496,1354.5732237246496,1.0001632832411411,0.00026813729235729847
1354.5801682567983,1354.5801682567983,0.9998117970617763,0.0002680768298537459
1354.5871127891794,1354.5871127891794,0.999714391411389,0.00026807395952721237
1354.594057321328,1354.594057321328,0.9996825834002309,0.0002680627925030662
1354.6010018535699,1354.6010018535699,0.9995925392788465,0.00026805409256460425
1354.607946385718,1354.607946385718,0.9999402177421995,0.0002681171764204284
1354.614890917867,1354.614890917867,1.0002903878079308,0.0002681381317073589
1354.621835450015,1354.621835450015,0.9999626244342295,0.0002681223908858707
1354.628779982117,1354.628779982117,1.0002608246766898,0.0002681405425141526
1354.6357245141262,1354.6357245141262,1.0002927181964574,0.00026813671212063577
1354.642669046228,1354.642669046228,0.9999595364839147,0.0002680887546573164
1354.6496135781902,1354.6496135781902,1.000027609619595,0.00026810280811342176
1354.656558110199,1354.656558110199,0.9998245342804595,0.0002680809432329103
1354.6635026421147,1354.6635026421147,0.9999277918603022,0.0002681087026407311
1354.6704471740773,1354.6704471740773,0.9999476885270944,0.00026811697753978566
1354.677391705946,1354.677391705946,0.9999528643786004,0.00026810852887497255
1354.684336237815,1354.684336237815,1.0002170393984116,0.0002681829534187847
1354.6912807695912,1354.6912807695912,0.9996447151041903,0.0002681128667211459
1354.6982253014135,1354.6982253014135,1.0002622725267922,0.00026816587248193203
1354.7051698331898,1354.7051698331898,0.9998436186441483,0.00026812002419161394
1354.712114364966,1354.712114364966,1.0001139960046503,0.00026814004162111686
1354.719058896695,1354.719058896695,1.0000635642420015,0.00026812791998989053
1354.7260034283315,1354.7260034283315,0.9997151909160145,0.0002680541042812965
1354.7329479600144,1354.7329479600144,1.0000553445735325,0.00026813513228275915
1354.7398924916506,1354.7398924916506,1.0000898270226992,0.0002681498801925049
1354.7468370232402,1354.7468370232402,1.00021567479622,0.00026814006656193364
1354.7537815547835,1354.7537815547835,1.0000600527740353,0.00026812174713920127
1354.7607260862799,1354.7607260862799,0.9998492223907753,0.00026808289251173726
1354.7676706177767,1354.7676706177767,1.0001997834982914,0.00026815723298219765
1354.7746151492731,1354.7746151492731,0.9997120353095946,0.0002680855662301943
1354.7815596807236,1354.7815596807236,1.000129701667221,0.00026814383598844924
1354.7885042121268,1354.7885042121268,1.000023313772298,0.000268136073069784
1354.7954487434833,1354.7954487434833,0.9999116462387676,0.0002681332155392485
1354.8023932748406,1354.8023932748406,0.9997556607436329,0.00026810543064535616
1354.8093378060578,1354.8093378060578,0.9999952675268089,0.0002681176597633608
1354.8162823374612,1354.8162823374612,1.000136419093854,0.0002681279518660073
1354.8232268687248,1354.8232268687248,1.0000112128372955,0.0002681109388508524
1354.8301713999422,1354.8301713999422,1.0001565087526756,0.00026814489711877087
1354.8371159310202,1354.8371159310202,1.000302120182448,0.0002681407172848918
1354.8440604621435,1354.8440604621435,0.9999296919149268,0.00026812075302673304
1354.8510049933143,1354.8510049933143,0.9995361241866172,0.00026805910735127074
1354.8579495243453,1354.8579495243453,0.9999767814144107,0.00026810583144558115
1354.8648940554228,1354.8648940554228,1.0001407098641626,0.0002681347578384399
1354.8718385864538,1354.8718385864538,0.9998188268032031,0.00026810905652310444
1354.8787831173915,1354.8787831173915,1.0002071090643754,0.00026814139903449594
1354.885727648376,1354.885727648376,0.9997929970170423,0.0002680907791182894
1354.8926721792673,1354.8926721792673,1.0001212175220136,0.0002681449524522708
1354.8996167101586,1354.8996167101586,1.0001029287300631,0.00026814545609982806
1354.9065612410027,1354.9065612410027,1.0000743066516742,0.00026814143853680426
1354.9135057718013,1354.9135057718013,0.9999144208173849,0.00026810822320168183
1354.920450302599,1354.920450302599,1.0000993264977915,0.0002681169425697495
1354.9273948333043,1354.9273948333043,0.9996496762772213,0.0002680536308460377
1354.9348949265068,1354.9348949265068,1.0001506444320718,0.0002681559548324581
1354.942672800818,1354.942672800818,1.0000321557660379,0.0002681260407877776
1354.9496173314765,1354.9496173314765,0.9999055119504767,0.00026810102202049673
1354.9565618620884,1354.9565618620884,1.0003560315513171,0.00026813233115466025
1354.9635063926069,1354.9635063926069,0.9999988908264662,0.00026811030831701076
1354.9704509231724,1354.9704509231724,0.9997213305824106,0.00026808416886254756
1354.977395453691,1354.977395453691,0.999969356606474,0.00026810553266741217
1354.9843399841168,1354.9843399841168,0.9998584264239676,0.00026809818402556495
1354.9912845145423,1354.9912845145423,1.0001834264485585,0.0002681452989065417
1354.9982290449677,1354.9982290449677,1.000420842905849,0.0002681825414359072
1355.0051735753,1355.0051735753,0.9998277061404979,0.0002681142112572716
1355.0121181056327,1355.0121181056327,1.0002611364987817,0.00026813103662080156
1355.0190626359185,1355.0190626359185,0.9999209371021731,0.00026810102919718306
1355.0260071661583,1355.0260071661583,0.9994250451987681,0.0002680414937361131
1355.0329516963507,1355.0329516963507,0.9999945060266757,0.00026812561544409046
1355.03989622659,1355.03989622659,0.9998223666838932,0.0002680839444668003
1355.0468407566898,1355.0468407566898,0.9998131759060132,0.000268102847755516
1355.0537852867426,1355.0537852867426,1.0006315526943288,0.0002681944235091849
1355.0607298167956,1355.0607298167956,0.9998736133223367,0.0002681115839351373
1355.067674346849,1355.067674346849,1.0001022452773376,0.00026811040197316516
1355.0746188769015,1355.0746188769015,1.0000964039429205,0.00026814228600756027
1355.0815634069547,1355.0815634069547,1.0001236311458768,0.00026810976307248
1355.088507936775,1355.088507936775,0.9998503711004313,0.0002680678087516169
1355.0954524667347,1355.0954524667347,0.9996802057032257,0.00026805270265299293
1355.102396996602,1355.102396996602,1.0000118618428184,0.00026810596159295975
1355.1093415263754,1355.1093415263754,1.0000814702165313,0.00026814548058716264
1355.1162860561958,1355.1162860561958,0.9999427206422634,0.00026811359544009605
1355.1232305859692,1355.1232305859692,1.0001090094282368,0.0002681249507407657
1355.1301751156498,1355.1301751156498,1.0000726628665553,0.0002681084073120381
1355.137119645377,1355.137119645377,1.000275240992884,0.00026814894014627036
1355.1440641749643,1355.1440641749643,0.9997197129795665,0.0002681073041938135
1355.1510087045517,1355.1510087045517,1.0002298468946769,0.00026814528829497374
1355.1579532341389,1355.1579532341389,0.9997996829810095,0.0002680911954429664
1355.16489776368,1355.16489776368,0.9998848633138845,0.00026811198012381834
1355.1718422931742,1355.1718422931742,1.0001928969840126,0.00026815609427614724
1355.178786822622,1355.178786822622,0.9998325195363789,0.00026812259706792535
1355.1857313520695,1355.1857313520695,1.0000796927593716,0.00026811828257428995
1355.1926758814245,1355.1926758814245,0.9997842650348572,0.00026812136802416666
1355.1996204107786,1355.1996204107786,1.0003076010040695,0.00026816818736297816
1355.2065649400865,1355.2065649400865,0.9998149850523905,0.00026811150059893115
1355.2135094693483,1355.2135094693483,0.9998934554696948,0.00026810452899586574
1355.2204539986096,1355.2204539986096,0.9998861722748078,0.0002680797764209117
1355.2273985277777,1355.2273985277777,0.9999628600474569,0.00026808472232134095
1355.2343430569465,1355.2343430569465,1.0000120625222428,0.00026811211492845514
1355.2412875860678,1355.2412875860678,1.0001583067402344,0.00026810350266415374
1355.2482321151897,1355.2482321151897,1.0001909780182179,0.00026811197017979937
1355.2551766442182,1355.2551766442182,1.00027704099984,0.00026813928249651547
1355.2621211732005,1355.2621211732005,1.0000175629219377,0.00026808891125802773
1355.269065702229,1355.269065702229,1.000006090274344,0.0002681022531056421
1355.2760102312109,1355.2760102312109,0.9997537395743826,0.00026809611436549874
1355.2829547601,1355.2829547601,1.0002230873615856,0.0002681540785795215
1355.2898992889889,1355.2898992889889,0.999873353315143,0.0002680971516738727
1355.2968438176913,1355.2968438176913,0.9998389112238973,0.0002680990369123229
1355.3037883465338,1355.3037883465338,0.999846796862798,0.0002681172797891271
1355.3107328752365,1355.3107328752365,1.0004827502764346,0.00026816270410567205
1355.3176774039853,1355.3176774039853,0.9999294185229264,0.00026811728443155205
1355.3246219326418,1355.3246219326418,0.999788785219961,0.0002680760862468491
1355.3315664612978,1355.3315664612978,0.9996749787008421,0.00026805957381257565
1355.3398998956384,1355.3398998956384,1.0001350664201119,0.00026810540851608395
1355.3468444241548,1355.3468444241548,1.000054410229784,0.00026810219095015065
1355.3537889526713,1355.3537889526713,1.000102451838218,0.00026808979324102083
1355.3607334811877,1355.3607334811877,1.0006560951277483,0.00026816684252196535
1355.3676780096107,1355.3676780096107,0.9994448730796549,0.00026801510107262816
1355.3746225379875,1355.3746225379875,0.9998602167568329,0.0002680745144915994
1355.3815670663644,1355.3815670663644,1.0000449083257164,0.00026807837424524617
1355.3885115947407,1355.3885115947407,1.000266948132731,0.00026813010243118994
1355.3957339040867,1355.3957339040867,0.9998263878328404,0.0002680445175581992
1355.4037895568995,1355.4037895568995,0.9997643460304649,0.000268072561816052
1355.4107340850433,1355.4107340850433,1.0001537154454987,0.00026810366008471237
1355.4176786132339,1355.4176786132339,0.9996295314549212,0.00026802388048142013
1355.4246231413777,1355.4246231413777,1.0004932347909752,0.00026814595476752103
1355.4315676694284,1355.4315676694284,0.9997401829970254,0.0002680446387870754
1355.4385121975258,1355.4385121975258,0.9999046616740195,0.00026804923025644815
1355.44545672553,1355.44545672553,1.0002100676563286,0.0002681031337386575
1355.452401253487,1355.452401253487,1.0002711874333121,0.00026810725047412296
1355.4593457813985,1355.4593457813985,0.9997292912516519,0.00026806353938313817
1355.4662903092628,1355.4662903092628,1.0003291890410004,0.0002681283230440108
1355.4732348372204,1355.4732348372204,0.9997786691461167,0.00026804608138207065
1355.4801793649453,1355.4801793649453,1.0000146219048254,0.0002681095263328042
1355.4871238926698,1355.4871238926698,0.9998428507669409,0.00026808132724166604
1355.4940684206279,1355.4940684206279,1.0000820930826086,0.00026810607420741213
1355.5010129481195,1355.5010129481195,1.0001528519396234,0.0002681526255886498
1355.5079574758443,1355.5079574758443,0.999542047212351,0.00026807640797700094
1355.514902003569,1355.514902003569,0.9999879035017312,0.000268109485328446
1355.5218465310609,1355.5218465310609,1.0001052532849997,0.0002681312368779308
1355.528791058646,1355.528791058646,1.0003837600424652,0.00026816921031403893
1355.535735586138,1355.535735586138,1.0000171444126444,0.0002681051840297674
1355.5426801136298,1355.5426801136298,0.9996028116019511,0.0002680391320290281
1355.5496246410753,1355.5496246410753,0.9999388896343178,0.0002680956220293292
1355.5565691684274,1355.5565691684274,1.0005657456152297,0.0002681388387941034
1355.5635136957796,1355.5635136957796,0.9989711751224821,0.00026796821999223547
1355.570458223132,1355.570458223132,1.0002358962065434,0.0002681044829273878
1355.5774027503908,1355.5774027503908,0.9998502373584428,0.00026805897965430066
1355.5843472776037,1355.5843472776037,1.0001841387625166,0.00026812519372160665
1355.5912918048625,1355.5912918048625,1.0000903355355173,0.0002681123397212819
1355.5982363320286,1355.5982363320286,1.0002449044934112,0.00026812727424504665
1355.6051808591478,1355.6051808591478,1.0001630377894333,0.0002680923294119157
1355.6121253861743,1355.6121253861743,0.9994517873128131,0.00026803147516032646
1355.6190699132471,1355.6190699132471,1.0000089026923416,0.00026810616619891216
1355.6260144402734,1355.6260144402734,1.000196294144577,0.0002681108964815818
1355.6329589672064,1355.6329589672064,0.9996425681791973,0.0002680470619042907
1355.6399034941398,1355.6399034941398,0.9997953105671187,0.00026807668914953996
1355.6468480209794,1355.6468480209794,0.999846114759675,0.00026807855765392276
1355.6537925478665,1355.6537925478665,1.0004233149533839,0.0002681668396010438
1355.6607370746594,1355.6607370746594,0.9995256871381978,0.000268091567560396
1355.6676816014065,1355.6676816014065,1.000458282743276,0.0002681806254941792
1355.6746261282,1355.6746261282,0.9999710890628849,0.0002681119933997854
1355.6815706548537,1355.6815706548537,1.000256313795418,0.00026813505925707713
1355.6885151815538,1355.6885151815538,0.9998782119725911,0.00026810583177673726
1355.6954597081149,1355.6954597081149,0.9998141294167555,0.0002680799052441567
1355.7024042346752,1355.7024042346752,0.9997582479793212,0.0002680824471985769
1355.7093487612358,1355.7093487612358,0.9999126538205851,0.000268124069336943
1355.7162932877968,1355.7162932877968,0.999845779422861,0.0002681151167337903
1355.723237814124,1355.723237814124,1.0002591605069375,0.00026816031608492547
1355.730182340592,1355.730182340592,1.0000184346441574,0.00026810526320739493
1355.737126866966,1355.737126866966,1.0000776785648,0.0002681157571810379
1355.7446269553718,1355.7446269553718,0.9998339312214739,0.0002680864065038135
1355.7524048248408,1355.7524048248408,1.000222051040134,0.0002681424894057943
1355.7593493511217,1355.7593493511217,0.9995115285884821,0.0002680276513815366
1355.7662938773099,1355.7662938773099,0.9998836020837029,0.00026805440178643436
1355.7732384034982,1355.7732384034982,1.000325676181649,0.00026812091015553937
1355.7801829295927,1355.7801829295927,1.0003804052986067,0.0002681321983979758
1355.7871274556878,1355.7871274556878,1.0002735938268539,0.00026811090523656177
1355.7940719817366,1355.7940719817366,0.9998496002226505,0.0002680632792041516
1355.8010165077849,1355.8010165077849,0.999532250836852,0.0002680290326312544
1355.80796103374,1355.80796103374,1.0002227908412806,0.000268153027939187
1355.8149055596487,1355.8149055596487,0.9999750329220685,0.0002681199216645093
1355.8218500855571,1355.8218500855571,0.9999294013166299,0.00026809753586819164
1355.8287946114197,1355.8287946114197,0.9999391312242789,0.0002681171723096371
1355.8357391372817,1355.8357391372817,1.0001390365492138,0.0002681578903810756
1355.8426836630038,1355.8426836630038,1.0002204301209214,0.0002681519837407191
1355.849628188773,1355.849628188773,1.0000010037304066,0.00026811231575057465
1355.8565727144492,1355.8565727144492,0.9998289316038159,0.0002681198134590358
1355.863517240078,1355.863517240078,0.9991879362760425,0.00026802612292575604
1355.8704617657077,1355.8704617657077,0.9998354454933697,0.00026808743695235496
1355.8774062912903,1355.8774062912903,1.0004400998033114,0.0002681703552689004
