time,time,flux,flux_err
1491.6404219527706,1491.6404219527706,1.0001290908522729,0.00012518596836473016
1491.6487555200413,1491.6487555200413,0.9995755450073815,0.0001251198966238254
1491.656394623071,1491.656394623071,1.0000873845085916,0.00011424085892308469
1491.663339262435,1491.663339262435,1.000006543986706,0.00011422496961778176
1491.6702839014265,1491.6702839014265,1.0001726016235057,0.0001142376378801309
1491.677228540604,1491.677228540604,1.0001125135843907,0.00011424168532380935
1491.6841731796885,1491.6841731796885,1.000013588790877,0.00011421598081511945
1491.6911178186797,1491.6911178186797,0.9997323562724143,0.00011419196094028232
1491.6980624576713,1491.6980624576713,0.9999898199914027,0.00011418908653901622
1491.7050070965693,1491.7050070965693,0.999982751294804,0.00011420280794621315
1491.711951735561,1491.711951735561,0.9998258568137377,0.00011418690757518332
1491.718896374273,1491.718896374273,0.9999835843781912,0.00011417749642478206
1491.7258410130776,1491.7258410130776,0.999877492049172,0.00011413493217198937
1491.7327856516968,1491.7327856516968,0.9999992131154467,0.00011413935712553293
1491.7397302904087,1491.7397302904087,1.0002275650550594,0.00011413049592522654
1491.7466749290274,1491.7466749290274,1.0001202676179175,0.00011409574767930433
1491.7536195675527,1491.7536195675527,0.9998079492571502,0.00011410690428770558
1491.7605642060787,1491.7605642060787,1.0001729167271747,0.00011409279349410186
1491.767508844418,1491.767508844418,0.9998599726583709,0.00011408079526511059
1491.7744534826645,1491.7744534826645,0.9998230345951811,0.00011405920239180389
1491.7813981210036,1491.7813981210036,1.0001298567534642,0.00011406702080545227
1491.7883427592496,1491.7883427592496,0.9998686443148106,0.0001140379065216239
1491.7952873973097,1491.7952873973097,0.9998852961783712,0.00011402466056866332
1491.80223203537,1491.80223203537,1.0000581689303536,0.00011403578648855038
1491.8091766733367,1491.8091766733367,1.000045629424174,0.00011403418333871442
1491.8161213112103,1491.8161213112103,1.0000388229028463,0.00011402745923314238
1491.8230659491771,1491.8230659491771,1.0001863559990238,0.00011401601415559205
1491.8300105868643,1491.8300105868643,1.0001594660186564,0.00011399970183167884
1491.8369552245522,1491.8369552245522,1.0000066750689065,0.00011399478652042829
1491.8438998621464,1491.8438998621464,0.9999734181400759,0.00011400396800466084
1491.8508444996473,1491.8508444996473,0.999869378923664,0.00011399228620974945
1491.8577891369628,1491.8577891369628,0.9997836247967561,0.0001139745225918165
1491.8647337745574,1491.8647337745574,0.9999952560346193,0.00011397995666091996
1491.871678411686,1491.871678411686,0.9998470431418476,0.00011394648861757425
1491.8786230488145,1491.8786230488145,1.0000502970301384,0.00011394801068246843
1491.8855676859432,1491.8855676859432,1.0002338507675765,0.00011396974559004433
1491.8925123230717,1491.8925123230717,1.0001006993185284,0.00011394653560314587
1491.8994569598278,1491.8994569598278,1.000137652949661,0.00011395200976659447
1491.9064015967701,1491.9064015967701,0.9998218354726356,0.00011391740402321826
1491.9133462335267,1491.9133462335267,0.9999743114149056,0.00011393280172628815
1491.9202908700963,1491.9202908700963,0.9998375638532693,0.00011389636439866108
1491.927235506666,1491.927235506666,0.9999849211610725,0.0001139243008968093
1491.934180143236,1491.934180143236,0.9997033065940013,0.000113886329795702
1491.9411247795263,1491.9411247795263,1.0001756092555443,0.00011393500067339427
1491.948069415817,1491.948069415817,1.000300129862788,0.00011392604907421284
1491.9550140520146,1491.9550140520146,1.0001986992863838,0.00011391434052421231
1491.9619586882113,1491.9619586882113,1.0000578487642238,0.00011390350874604502
1491.9689033241295,1491.9689033241295,0.9997242028807877,0.00011387703728880656
1491.9758479600478,1491.9758479600478,0.9998854287623061,0.00011388226513360255
1491.9827925958723,1491.9827925958723,1.0000229451195142,0.00011388814035986322
1491.9897372315108,1491.9897372315108,0.9999930389031325,0.00011388216744255538
1491.9966818671498,1491.9966818671498,0.9998130438846653,0.00011387646180232645
1492.0036265026022,1492.0036265026022,1.0001067277789026,0.00011387965987326885
1492.0105711380543,1492.0105711380543,1.0002548891411078,0.00011388747328048155
1492.0175157734134,1492.0175157734134,0.9997754379638147,0.0001138655970365341
1492.0244604085863,1492.0244604085863,1.0002318512010329,0.00011388517002913919
1492.0314050437592,1492.0314050437592,1.0000396422752953,0.00011389041961584455
1492.0383496785598,1492.0383496785598,0.999829730361079,0.00011388358289283638
1492.0452943137327,1492.0452943137327,0.9999944455474118,0.00011387401159264412
1492.0522389485327,1492.0522389485327,0.9999780566485728,0.00011388257205463975
1492.0591835829607,1492.0591835829607,1.0000369857989315,0.0001138712650403595
1492.0661282177612,1492.0661282177612,0.9998351343890848,0.00011386382353755558
1492.0730728520957,1492.0730728520957,1.0003409595878587,0.0001138900263505892
1492.0800174866165,1492.0800174866165,1.0000464017274944,0.00011387889816359249
1492.0869621208583,1492.0869621208583,0.9998880434262878,0.00011386115560720975
1492.0939067550066,1492.0939067550066,1.0000867600274457,0.00011386869208137568
1492.1008513891552,1492.1008513891552,0.9999102152246412,0.0001138590685723477
1492.1077960230243,1492.1077960230243,0.9999236242743386,0.00011388157374677545
1492.114740656893,1492.114740656893,1.000036185184404,0.00011387960121980719
1492.121685290669,1492.121685290669,0.9998628231339559,0.000113885839677069
1492.1286299243518,1492.1286299243518,1.0001957587973707,0.00011386299326005206
1492.1355745577548,1492.1355745577548,1.0000052685682543,0.00011386764335965449
1492.1425191912517,1492.1425191912517,0.9999770311100725,0.00011388917159867344
1492.1494638244692,1492.1494638244692,0.9999851848262109,0.00011388975890891463
1492.1564084577792,1492.1564084577792,1.0002924067465422,0.000113909753103852
1492.16335309081,1492.16335309081,0.999783948198686,0.00011386635773166746
1492.170297723748,1492.170297723748,0.9999694391013488,0.00011388330631411784
1492.1772423566858,1492.1772423566858,0.9999106159174337,0.00011387147320420749
1492.1841869893437,1492.1841869893437,0.9998848666187585,0.00011385848390651525
1492.1911316220953,1492.1911316220953,1.0001688076937376,0.00011390182858670564
1492.1980762547537,1492.1980762547537,0.9998533252366008,0.0001138713672561588
1492.2050208870394,1492.2050208870394,1.0001550624483972,0.00011388582679176344
1492.211965519232,1492.211965519232,0.9999193129321349,0.00011387911656089602
1492.2189101515178,1492.2189101515178,1.000050255481201,0.0001138910995045233
1492.2258547836173,1492.2258547836173,1.0001939430616227,0.00011389755414868885
1492.2327994155305,1492.2327994155305,0.999994051453793,0.00011389517487171798
1492.239744047444,1492.239744047444,0.9998954710645565,0.00011389349356949784
1492.2466886790776,1492.2466886790776,0.999783263098611,0.00011388349994246593
1492.2536333108044,1492.2536333108044,1.0000224701527016,0.00011388600796528895
1492.2605779422524,1492.2605779422524,1.0000606278875783,0.00011388612057351684
1492.2675225737926,1492.2675225737926,0.9998254108708412,0.00011386156919323222
1492.2744672050542,1492.2744672050542,0.9998543401574045,0.00011389184911353876
1492.2814118361293,1492.2814118361293,1.000068197857254,0.00011387244472575896
1492.2883564672045,1492.2883564672045,0.999999832759511,0.00011386335757995808
1492.2953010981869,1492.2953010981869,1.0002800176667035,0.00011390638306662665
1492.3022457289824,1492.3022457289824,1.0000387171842438,0.00011390221713566532
1492.3091903596849,1492.3091903596849,0.9998710092744755,0.00011388789634807217
1492.3161349902944,1492.3161349902944,1.000076967817891,0.00011389337194585061
1492.3230796206244,1492.3230796206244,0.9998585924731959,0.00011388409142503986
1492.3300242512337,1492.3300242512337,0.9999677815969712,0.00011385993018047837
1492.3369688813775,1492.3369688813775,0.9998315655502246,0.00011386287671575748
1492.3439135115211,1492.3439135115211,1.0001748833052941,0.00011387589747082077
1492.3508581415717,1492.3508581415717,0.9998774065849801,0.00011388011561596221
1492.357802771343,1492.357802771343,1.0001893674522282,0.00011388615047575173
1492.3647474011145,1492.3647474011145,0.999997483946071,0.0001139152595371074
1492.3716920307922,1492.3716920307922,0.9998790192029541,0.00011387784518131268
1492.378636660284,1492.378636660284,1.0000243160094686,0.00011385110352761395
1492.385581289776,1492.385581289776,1.0000340295242427,0.00011385851339147866
1492.3925259190814,1492.3925259190814,0.99997535039811,0.00011387735304083351
1492.3994705482937,1492.3994705482937,0.999846213843532,0.00011388125299392026
1492.4064151773198,1492.4064151773198,0.9999628474721576,0.00011388585249989702
1492.4133598063463,1492.4133598063463,0.9999506516841805,0.00011387811312918887
1492.420304435093,1492.420304435093,0.9999798560270741,0.00011387856511636165
1492.4272490637468,1492.4272490637468,1.0000927389587377,0.00011388197801496616
1492.4341936924004,1492.4341936924004,0.99997790034297,0.00011385427290855145
1492.4411383208676,1492.4411383208676,0.9998572699228403,0.00011387778703560868
1492.4480829492422,1492.4480829492422,0.9998734117400959,0.00011385568723103393
1492.4550275775232,1492.4550275775232,1.0001857604552715,0.00011384292747378729
1492.461972205618,1492.461972205618,0.9999695325195447,0.00011388121966669864
1492.4689168336195,1492.4689168336195,1.000077195198702,0.00011387682472074973
1492.4758614614352,1492.4758614614352,0.9997407983256558,0.00011384015127110657
1492.4828060892505,1492.4828060892505,1.0000512557020584,0.00011388015493667302
1492.4897507168796,1492.4897507168796,1.0001367988260297,0.00011389175233421577
1492.496695344416,1492.496695344416,1.0000562881551471,0.00011389626391601474
1492.5036399717658,1492.5036399717658,0.999857551613014,0.00011388732273881763
1492.510584599022,1492.510584599022,0.9998914644123561,0.00011386095048525465
1492.5175292261858,1492.5175292261858,1.0002231476450953,0.0001139112510742336
1492.524473853256,1492.524473853256,0.9999020426531651,0.000113857854651953
1492.53141848014,1492.53141848014,0.9995944394169378,0.0001138500363780077
1492.5383631070242,1492.5383631070242,1.0000056134753925,0.00011386835122632105
1492.545307733629,1492.545307733629,1.000073819130859,0.00011386707718219667
1492.5522523602333,1492.5522523602333,1.000101018566508,0.00011386867063824879
1492.559196986652,1492.559196986652,0.9999520711816835,0.00011388694925319371
1492.5661416129776,1492.5661416129776,0.9997006064648177,0.00011385889628427457
1492.5730862391165,1492.5730862391165,1.0001687583968188,0.00011389186216775385
1492.5800308652554,1492.5800308652554,0.9998382976581516,0.00011386111410960783
1492.5869754912085,1492.5869754912085,1.0002680290368442,0.00011386391130750639
1492.5939201170675,1492.5939201170675,0.9998459912500854,0.00011386416143624289
1492.6008647426486,1492.6008647426486,0.9997012356821686,0.00011387180324835206
1492.6078093685085,1492.6078093685085,1.0001779337341543,0.00011387611602041198
1492.6147539939952,1492.6147539939952,1.0000913577710326,0.00011385375978989392
1492.6216986190168,1492.6216986190168,0.999847046833171,0.00011385372557736316
1492.6286432444108,1492.6286432444108,0.9999484789133121,0.00011388900001464965
1492.6355878695254,1492.6355878695254,0.999783780531572,0.00011382875661696452
1492.6425324944535,1492.6425324944535,1.000305992738984,0.00011387949023450276
1492.6494771193823,1492.6494771193823,1.0000347983235818,0.0001138733614690704
1492.6564217441241,1492.6564217441241,1.0001270854718767,0.00011378695251920666
1492.6633663687728,1492.6633663687728,1.00012078038912,0.00011389020998370201
1492.6703109932357,1492.6703109932357,1.0000680920177025,0.00011384295241465405
1492.6772556176984,1492.6772556176984,0.9998293867730117,0.00011389116099072964
1492.6842002418816,1492.6842002418816,0.9997671653282086,0.00011386390351152348
1492.6911448660653,1492.6911448660653,1.0000329721012635,0.00011386580313216034
1492.698089490062,1492.698089490062,1.0002438366492155,0.00011389838360527974
1492.7050341139657,1492.7050341139657,0.9999727250298168,0.0001138875595186188
1492.7119787376837,1492.7119787376837,1.0001572354267088,0.00011384479390106795
1492.7189233614013,1492.7189233614013,0.9999822472214603,0.00011387787191505865
1492.7258679849324,1492.7258679849324,0.9999956968350112,0.00011388722576210827
1492.7328126081843,1492.7328126081843,0.9998683712914996,0.00011389736838054735
1492.7397572317159,1492.7397572317159,0.9999368814288374,0.00011386884338896086
1492.7467018549676,1492.7467018549676,1.0001350599723686,0.00011389790859642672
1492.7536464776606,1492.7536464776606,0.9996684804002198,0.00011386545591189642
1492.76059110082,1492.76059110082,0.9998852845645503,0.0001138708994859974
1492.7675357235134,1492.7675357235134,1.0001583603850588,0.00011384699295704313
1492.7744803462992,1492.7744803462992,0.9999677052063468,0.00011389032375233291
1492.7814249687133,1492.7814249687133,0.9999099458601304,0.00011386953771875486
1492.7883695913129,1492.7883695913129,1.0001271996229861,0.00011385622510045931
1492.7953142135407,1492.7953142135407,0.9999537337848962,0.00011387489778847417
1492.8022588356753,1492.8022588356753,1.000028134152996,0.00011385368998537829
1492.8092034579026,1492.8092034579026,1.0001995701083426,0.00011388310497169604
1492.8161480796643,1492.8161480796643,0.9999666203557066,0.00011387228577205866
1492.8230927016127,1492.8230927016127,0.9998136109391875,0.00011385413490128545
1492.8300373232814,1492.8300373232814,0.9999644516951618,0.00011391757106884574
1492.8369819448567,1492.8369819448567,0.9999705548893993,0.00011385362431307771
1492.8439265663394,1492.8439265663394,0.9999104840484885,0.00011387996145705565
1492.8508711877287,1492.8508711877287,1.0001119754911576,0.00011390527163476178
1492.8578158089315,1492.8578158089315,0.9999574886705321,0.00011389310717289614
1492.8647604300415,1492.8647604300415,0.9999897700642414,0.00011385697700052523
1492.871705050872,1492.871705050872,1.0001612156587885,0.00011389781770991916
1492.878649671702,1492.878649671702,0.9999534700142452,0.00011388190490798306
1492.8855942925327,1492.8855942925327,1.000126330804996,0.00011388481005208834
1492.8925389132705,1492.8925389132705,1.000134711107186,0.0001138910456954196
1492.899483533728,1492.899483533728,0.9997141849635668,0.00011384003738345669
1492.906428154,1492.906428154,0.9996275498940268,0.00011384620983397782
1492.913372774272,1492.913372774272,1.0001231303418368,0.00011389954431497706
1492.9203173943567,1492.9203173943567,1.000206553374769,0.00011388262943327077
1492.9272620144432,1492.9272620144432,1.0000021457756287,0.00011387745853278976
1492.9342066342492,1492.9342066342492,1.0001207128155976,0.00011388612049222864
1492.9411512541483,1492.9411512541483,1.000534948979291,0.00011391943423111617
1492.948095873675,1492.948095873675,0.9999552440132116,0.00011386176395503043
1492.9550404932017,1492.9550404932017,0.9997241083813547,0.0001138523853405979
1492.9619851126351,1492.9619851126351,0.999676541334922,0.00011386186934347087
1492.9689297319753,1492.9689297319753,0.9999105167677144,0.00011386980092706586
1492.9758743510367,1492.9758743510367,1.0001067382885127,0.00011389776475547047
1492.9828189700977,1492.9828189700977,1.000186908937585,0.00011390545962894161
1492.989763588972,1492.989763588972,1.0003705370118474,0.00011389182228179674
1492.9967082076607,1492.9967082076607,1.0000538791697424,0.00011390693245691048
1493.0036528265355,1493.0036528265355,0.9999652221945416,0.00011391926531723843
1493.0105974451308,1493.0105974451308,1.0000033857327477,0.00011389438942506266
1493.0175420634464,1493.0175420634464,0.9997624252581353,0.0001139037223607332
1493.0244866816697,1493.0244866816697,0.99999590885159,0.00011389040546681608
1493.0314312998921,1493.0314312998921,0.9999891863273227,0.00011387664815100165
1493.038375917929,1493.038375917929,1.0000656825026017,0.00011390353974974888
1493.0453205358724,1493.0453205358724,0.9999224076637694,0.00011389418429888715
1493.0522651536294,1493.0522651536294,1.0001407702192615,0.0001138961465970145
1493.0592097713866,1493.0592097713866,0.9999928227202162,0.000113856490330644
1493.0661543889578,1493.0661543889578,0.9998298594155864,0.00011383666779461422
1493.0730990064353,1493.0730990064353,1.0001024820197975,0.00011389222283732196
1493.0800436237264,1493.0800436237264,0.9999611224199845,0.00011389014838243151
1493.086988240925,1493.086988240925,1.0001255621508707,0.00011385878884556109
1493.09393285803,1493.09393285803,1.0001536402584363,0.00011386724575309078
1493.1008774749494,1493.1008774749494,1.000075873091054,0.00011387307626976734
1493.1078220918687,1493.1078220918687,0.9998702414881595,0.00011387434901007907
1493.114766708508,1493.114766708508,1.0002028060894257,0.0001139018607644481
1493.1217113251475,1493.1217113251475,0.9999136385797882,0.00011387959777538869
1493.128655941508,1493.128655941508,0.9999976750159207,0.00011386412749816962
1493.1356005581474,1493.1356005581474,0.9999646537640734,0.000113858527413338
1493.1425451743212,1493.1425451743212,0.9999485095662056,0.0001138453347308157
1493.1494897904952,1493.1494897904952,0.9998694191868879,0.00011390299705261633
1493.1564344062033,1493.1564344062033,1.0000776345721343,0.00011391442181383597
1493.1633790221908,1493.1633790221908,1.0000029436117244,0.00011389799714268138
1493.1703236378994,1493.1703236378994,1.000235608667808,0.00011390952158957814
1493.1772682536077,1493.1772682536077,1.0000975696569738,0.0001139046758964917
1493.1842128690364,1493.1842128690364,1.0000465197392336,0.00011391561385139956
1493.1911574844653,1493.1911574844653,0.9997499490147288,0.00011388879294771891
1493.1981020997077,1493.1981020997077,0.9998719281667736,0.00011389227507648928
1493.205046714857,1493.205046714857,0.9999364838100531,0.00011388326005894883
1493.2119913299134,1493.2119913299134,0.9999766105151673,0.00011386796163113
1493.2189359447839,1493.2189359447839,1.0000721484818211,0.0001139029208517736
1493.2258805595602,1493.2258805595602,1.0000178105684807,0.00011388147580819778
1493.232825174151,1493.232825174151,1.000249699401094,0.00011389183859615459
1493.239769788835,1493.239769788835,1.000161086680395,0.00011387686261134166
1493.246714403239,1493.246714403239,0.9999809725035913,0.0001139047708304192
1493.2536590174573,1493.2536590174573,0.9997772420131066,0.00011387650537940643
1493.2606036315824,1493.2606036315824,0.9999532067262493,0.0001138980260959798
1493.2675482458003,1493.2675482458003,0.9999316850226044,0.00011389038601501552
1493.2744928597392,1493.2744928597392,1.0000843641181052,0.0001138986245605291
1493.2814374735851,1493.2814374735851,1.0000168471442918,0.00011389887462319455
1493.2883820871514,1493.2883820871514,0.9999057989196725,0.00011390584247137443
1493.2953267008106,1493.2953267008106,1.000181369995106,0.00011392409566974245
1493.3022713141909,1493.3022713141909,0.9998723289989048,0.0001138957852990796
1493.3092159274777,1493.3092159274777,0.9999691095040939,0.00011390436004030987
1493.316160540764,1493.316160540764,1.0000452803368376,0.00011389976286458189
1493.3231051538648,1493.3231051538648,0.9999847755151887,0.00011389200042797477
1493.3300497667792,1493.3300497667792,0.9998163500132996,0.00011389717957995679
1493.3369943796001,1493.3369943796001,1.0000951083538063,0.00011389738690556249
1493.3439389922348,1493.3439389922348,1.0001287340037366,0.00011390280212346033
1493.3508836049632,1493.3508836049632,0.9999355455845775,0.00011390489583392408
1493.3578282175047,1493.3578282175047,0.9999744897654397,0.00011388056640112277
1493.3647728297674,1493.3647728297674,1.0000829695596662,0.0001139101178917983
1493.3717174421226,1493.3717174421226,1.0000836690187005,0.00011389821557924644
1493.3786620541985,1493.3786620541985,0.9999992962702757,0.00011389236535162012
1493.3856066661815,1493.3856066661815,0.9998964428529307,0.00011388307613384794
