time,time,flux,flux_err
1325.3034882974491,1325.3034882974491,0.9998028062270322,0.0002817137650451882
1325.3118216061077,1325.3118216061077,1.0004642800909211,0.0002817905993714989
1325.3201549146895,1325.3201549146895,0.9998287887471401,0.00028175144607719716
1325.327793780863,1325.327793780863,1.0000821376348483,0.00025725513491964654
1325.334738204629,1325.334738204629,0.9996833003584389,0.0002572435301682078
1325.3416826283951,1325.3416826283951,1.0001153620724241,0.00025736026449710514
1325.348627051882,1325.348627051882,0.9999011090688692,0.0002573696898426842
1325.3555714754618,1325.3555714754618,0.9999895582716005,0.00025742712019964577
1325.3625158990417,1325.3625158990417,1.000057003702997,0.0002574850036317712
1325.3694603225285,1325.3694603225285,0.9998821189194989,0.0002575221261857046
1325.3764047458285,1325.3764047458285,1.0001772480275204,0.0002576179380325993
1325.3833491691291,1325.3833491691291,1.0002212225767084,0.00025766797743044403
1325.3902935924295,1325.3902935924295,0.9999460349071729,0.00025772525943794936
1325.39723801573,1325.39723801573,1.0001327812936653,0.0002577853509648749
1325.4041824390304,1325.4041824390304,0.9999051719982651,0.00025778867359851063
1325.411126862331,1325.411126862331,0.9995242712787269,0.0002577879595848652
1325.4180712855382,1325.4180712855382,1.0002287559899532,0.00025793393270382575
1325.4250157084662,1325.4250157084662,1.0000542268697048,0.0002579509072428509
1325.4319601317663,1325.4319601317663,0.9999946017623149,0.0002579715234360603
1325.438904554601,1325.438904554601,1.0001985429709346,0.0002580290157255409
1325.4458489777153,1325.4458489777153,0.9995086039186987,0.0002579602384085214
1325.452793400643,1325.452793400643,1.000303516073741,0.0002580835344690115
1325.4597378235712,1325.4597378235712,0.9999921924768195,0.000258082936923135
1325.4666822464055,1325.4666822464055,1.0001481967756964,0.00025810483784324356
1325.4736266693337,1325.4736266693337,0.9999100432453669,0.0002580969207549528
1325.4805710921687,1325.4805710921687,1.0000205270054148,0.00025812441346005323
1325.48751551491,1325.48751551491,0.9997841200272418,0.00025813873135840395
1325.4944599376518,1325.4944599376518,1.0002757803504472,0.000258215195793217
1325.5014043603937,1325.5014043603937,1.0001395161877584,0.0002582463454765547
1325.5083487831348,1325.5083487831348,0.9998057469029895,0.0002582073898561881
1325.5152932057838,1325.5152932057838,0.9997295135345302,0.0002582409038611814
1325.522237628432,1325.522237628432,0.9998744339083157,0.0002582601471949067
1325.5291820509872,1325.5291820509872,1.0001580195811992,0.0002583440461561132
1325.5361264736357,1325.5361264736357,1.000126908607094,0.00025832626962281276
1325.543070896191,1325.543070896191,1.0001969596977678,0.00025839411551307557
1325.5500153187468,1325.5500153187468,0.9999406979376249,0.0002583960759550808
1325.5569597412086,1325.5569597412086,1.0003406822263305,0.0002584319130200869
1325.5639041636714,1325.5639041636714,0.9997565961595279,0.00025841522185504325
1325.5708485861335,1325.5708485861335,0.9997952836740716,0.00025845907393638246
1325.5777930085023,1325.5777930085023,0.9998919583621442,0.00025850660832050555
1325.5847374309649,1325.5847374309649,1.0001369466018406,0.00025857545069375444
1325.5916818533337,1325.5916818533337,1.0001746468183779,0.0002586098873746017
1325.5986262757028,1325.5986262757028,0.9998416061903388,0.00025858480008137937
1325.605570698072,1325.605570698072,0.9995627308413629,0.000258561767623459
1325.6125151203478,1325.6125151203478,1.0003975169462336,0.0002586803707546768
1325.619459542624,1325.619459542624,0.9999027596776504,0.00025864398274328326
1325.626403964993,1325.626403964993,0.9997558985466174,0.0002586516264871288
1325.6333483870826,1325.6333483870826,1.0000364089527278,0.0002586635743898378
1325.6402928094517,1325.6402928094517,1.000355476114599,0.0002587358455746546
1325.6472372316343,1325.6472372316343,1.0001175603441248,0.0002587281839416829
1325.6541816537242,1325.6541816537242,1.0002775347628523,0.0002587721669231287
1325.6611260760003,1325.6611260760003,0.9998419421356617,0.00025871564421135653
1325.6680704982762,1325.6680704982762,0.9996633055731816,0.0002587180060706523
1325.6750149203658,1325.6750149203658,1.00003982129456,0.00025879021929051127
1325.6819593425487,1325.6819593425487,0.99970493411845,0.00025874593934397804
1325.6889037645456,1325.6889037645456,1.0000201570514233,0.00025881016082210053
1325.6958481865418,1325.6958481865418,1.0002362313559356,0.00025886934171616215
1325.702792608725,1325.702792608725,1.0000742138786722,0.000258860155890137
1325.7097370308147,1325.7097370308147,1.000071193408831,0.0002589312576033948
1325.716681452718,1325.716681452718,0.9999359040799854,0.0002589257246743068
1325.7236258749008,1325.7236258749008,1.0000496636634988,0.0002589905503917642
1325.7305702968042,1325.7305702968042,0.9997525636510417,0.00025897608213715554
1325.7375147188936,1325.7375147188936,1.0001572595132175,0.000259046539377727
1325.7444591407975,1325.7444591407975,0.9997273759044265,0.0002590413930171902
1325.7514035627937,1325.7514035627937,1.0002474354284205,0.00025914075292146534
1325.7583479847904,1325.7583479847904,0.9999124589516569,0.0002591528973810239
1325.765292406694,1325.765292406694,1.0001508666124441,0.00025923547211276275
1325.7722368285972,1325.7722368285972,1.0000090468098175,0.00025926249706587003
1325.7791812505009,1325.7791812505009,1.0001903657233198,0.00025934803806501
1325.786125672404,1325.786125672404,1.0001754866710697,0.00025937678008866263
1325.7930700943077,1325.7930700943077,0.9997458938446945,0.0002594043062269048
1325.8000145162111,1325.8000145162111,0.9996109872412868,0.0002594215824402358
1325.8069589380216,1325.8069589380216,1.0000498889953797,0.0002595016934202889
1325.813903359925,1325.813903359925,1.0000673224185928,0.00025954953699730066
1325.820847781735,1325.820847781735,1.0001080399291584,0.00025960821374318357
1325.8277922035456,1325.8277922035456,1.0001743268843448,0.0002596397803041544
1325.8347366252626,1325.8347366252626,0.9999125405836662,0.0002596627852784463
1325.8416810471663,1325.8416810471663,0.9998917841697537,0.0002596683692281769
1325.8486254689767,1325.8486254689767,1.0001219656836127,0.00025972072192273065
1325.8555698906935,1325.8555698906935,0.999787273303523,0.00025969045638423474
1325.862514312411,1325.862514312411,1.0000562477494002,0.0002597410458861938
1325.869458734221,1325.869458734221,0.9998589564989487,0.0002597182400096492
1325.8764031559385,1325.8764031559385,1.0001285839842284,0.0002597296272709941
1325.8833475776555,1325.8833475776555,1.0000581165593396,0.00025971197670766443
1325.890291999466,1325.890291999466,1.0000590303563066,0.0002597140770418318
1325.897236420997,1325.897236420997,1.000252834222111,0.0002597438365658945
1325.9041808428071,1325.9041808428071,0.9998415691213088,0.00025968278670902313
1325.9111252644311,1325.9111252644311,0.9998702218646065,0.00025970868428718024
1325.918069686148,1325.918069686148,0.9999517853469705,0.0002597340088465818
1325.9250141077723,1325.9250141077723,0.9999542522368419,0.0002597273088370406
1325.9319585294897,1325.9319585294897,1.0000763831576056,0.00025973350747896895
1325.9389029510203,1325.9389029510203,1.0003315522797875,0.00025976270809212516
1325.9458473727377,1325.9458473727377,0.999686312021405,0.0002597339503390298
1325.9527917942687,1325.9527917942687,1.0000683558124146,0.0002597644895806359
1325.9597362158925,1325.9597362158925,0.9997223345130118,0.0002597544263446733
1325.9675139681267,1325.9675139681267,0.9999788899486445,0.0002597682045659288
1325.9750139433352,1325.9750139433352,0.9999644996522145,0.0002598238771151885
1325.9819583650526,1325.9819583650526,1.0001523237926375,0.0002598452821024509
1325.9889027865831,1325.9889027865831,1.000358809346006,0.00025990836914931506
1325.995847208114,1325.995847208114,0.999956617872418,0.00025989028261276
1326.0027916296451,1326.0027916296451,1.000154289271798,0.00025995057672777714
1326.0097360510827,1326.0097360510827,0.999820076848404,0.00025996571694074215
1326.0166804727069,1326.0166804727069,1.0000536122942212,0.0002600409039611222
1326.0236248941446,1326.0236248941446,0.9999044341550333,0.00026008203846156013
1326.0305693156756,1326.0305693156756,0.9997830205604428,0.00026011701125289844
1326.0375137371134,1326.0375137371134,0.9999219359105931,0.00026017353785491663
1326.0444581586441,1326.0444581586441,0.9997852236777234,0.00026017188186329345
1326.0514025800821,1326.0514025800821,1.0003655920822454,0.00026022462285932773
1326.0583470015197,1326.0583470015197,1.0000423209371463,0.0002602348923735811
1326.0652914229574,1326.0652914229574,1.0000223038930716,0.00026025157865937354
1326.0722358443957,1326.0722358443957,1.0000095854866298,0.000260242170730436
1326.0791802658327,1326.0791802658327,0.9998670710974056,0.00026026080652265184
1326.0861246872714,1326.0861246872714,1.000037963918497,0.00026031705530535755
1326.0930691086155,1326.0930691086155,0.999864207386232,0.00026031139506857263
1326.1000135300535,1326.1000135300535,1.000049800271841,0.0002603266308966079
1326.1069579513983,1326.1069579513983,1.0004702640270806,0.00026039457035831467
1326.1139023727428,1326.1139023727428,0.9998238115719934,0.0002603455289026973
1326.1208467941808,1326.1208467941808,0.999804155097807,0.0002603689058063679
1326.127791215525,1326.127791215525,0.9998995927929645,0.00026038277701841687
1326.1347356368701,1326.1347356368701,0.9999701216421519,0.00026040571402035896
1326.1416800581212,1326.1416800581212,0.9999757169110426,0.0002603869195315368
1326.1486244794662,1326.1486244794662,1.000024630754819,0.0002604335661285775
1326.1555689008105,1326.1555689008105,1.0000868729293277,0.0002604397751171646
1326.1625133220618,1326.1625133220618,1.000509505699245,0.00026047862267561763
1326.169457743314,1326.169457743314,0.9999414824172369,0.00026045970831966534
1326.1764021647512,1326.1764021647512,0.9993097830101163,0.00026037133019675017
1326.18334658591,1326.18334658591,1.0000004313082962,0.0002604420830046964
1326.1902910071615,1326.1902910071615,1.0002752725979762,0.00026050344790033036
1326.1972354284126,1326.1972354284126,0.9999866125169723,0.0002604701076174285
1326.2041798495716,1326.2041798495716,0.9999303736495959,0.0002604807806365905
1326.2111242709157,1326.2111242709157,1.000422957336705,0.0002605415548020943
1326.2180686919814,1326.2180686919814,1.0000277581642103,0.00026051329210377566
1326.2250131132328,1326.2250131132328,0.9999599069603144,0.00026051798124586287
1326.231957534391,1326.231957534391,0.9997568397296261,0.0002604882977785564
1326.2389019555496,1326.2389019555496,0.999928114083459,0.00026053448048245236
1326.2458463768005,1326.2458463768005,0.9999909577875453,0.00026056521827222043
1326.2527907977735,1326.2527907977735,0.9999521110696881,0.00026057722951957154
1326.2597352191176,1326.2597352191176,1.000432632159789,0.0002606542837570051
1326.2666796401832,1326.2666796401832,0.999618937026181,0.00026055229700780084
1326.2736240611553,1326.2736240611553,1.000115093453335,0.0002606235864396777
1326.2805684823136,1326.2805684823136,0.9999880170899413,0.00026063626200451787
1326.2875129035651,1326.2875129035651,0.9999009332942318,0.000260620375594991
1326.2944573245372,1326.2944573245372,0.9999117394226053,0.0002606345841737723
1326.3014017455093,1326.3014017455093,0.9999843978491393,0.00026063415188202165
1326.3083461664814,1326.3083461664814,0.9999144962206195,0.0002606656131548398
1326.3152905875468,1326.3152905875468,1.0000162404976038,0.0002606848396354356
1326.3222350088913,1326.3222350088913,1.0000559096962474,0.00026067841479134393
1326.3291794298632,1326.3291794298632,1.0001379903181278,0.00026072703750654766
1326.3361238508362,1326.3361238508362,1.0001351171485757,0.0002607423495227725
1326.3430682718079,1326.3430682718079,0.9999175136228786,0.00026072659614465396
1326.350568246458,1326.350568246458,0.9998407716418672,0.0002607387795526911
1326.3597348821409,1326.3597348821409,1.0000834683039677,0.0002607903066419146
1326.366679303113,1326.366679303113,1.0000825834819598,0.0002608232033077246
1326.373623724085,1326.373623724085,1.0000307312097427,0.00026081939819618303
1326.3805681446845,1326.3805681446845,1.0000349755703428,0.00026087140055092194
1326.3875125655636,1326.3875125655636,0.9996872444060836,0.0002608705268166496
1326.3944569865357,1326.3944569865357,1.0000725842758993,0.0002609054692820532
1326.401401407508,1326.401401407508,0.9998541121429403,0.00026090406477781203
1326.40834582848,1326.40834582848,1.0002378919702228,0.00026098122544702045
1326.4152902491733,1326.4152902491733,1.0003219109076524,0.00026104932607448584
1326.4222346699585,1326.4222346699585,0.9996629276212131,0.00026096444335645244
1326.4291790909308,1326.4291790909308,0.9998589947935617,0.000261049550816249
1326.4361235117165,1326.4361235117165,1.0007893290814873,0.0002611894467404111
1326.4430679324093,1326.4430679324093,1.0001104297803156,0.0002611376773084393
1326.4500123533817,1326.4500123533817,0.9993942971332442,0.00026106833100804214
1326.456956773888,1326.456956773888,0.9997533265664709,0.00026113130975532323
1326.4639011948602,1326.4639011948602,0.9996005289343675,0.00026116810753667
1326.4708456154597,1326.4708456154597,1.0000344663340655,0.00026118715844396494
1326.4777900363388,1326.4777900363388,0.9998038819618345,0.00026119509012901795
1326.4847344568454,1326.4847344568454,1.000256166158809,0.00026128255051442414
1326.491678877724,1326.491678877724,1.000419526549967,0.00026132210957593733
1326.498623298324,1326.498623298324,1.0000908047241217,0.000261283722397794
1326.5055677190164,1326.5055677190164,1.0001301146892287,0.00026132654605538357
1326.5125121397093,1326.5125121397093,1.0001668442465812,0.00026134502824096747
1326.5194565603088,1326.5194565603088,0.9998790605824777,0.0002613495365377971
1326.5264009809086,1326.5264009809086,0.9997356820116702,0.0002613985931856508
1326.533345401508,1326.533345401508,1.000170355779011,0.0002614934467839951
1326.5402898221078,1326.5402898221078,1.0000559233552602,0.0002615118818634145
1326.5472342427074,1326.5472342427074,0.9997686087632879,0.00026153824927559947
1326.5541786633069,1326.5541786633069,0.9999412636591003,0.0002616040036245098
1326.5611230838133,1326.5611230838133,0.9999606067939567,0.00026162691079187567
1326.56806750432,1326.56806750432,0.9999803457084655,0.0002616486570971375
1326.5750119248264,1326.5750119248264,0.9995812163206098,0.00026158359440671376
1326.5819563453329,1326.5819563453329,1.0002664472336096,0.00026171137946026863
1326.588900765839,1326.588900765839,0.9999856765516316,0.00026170250049632293
1326.5958451862527,1326.5958451862527,1.0000413618718356,0.0002617624914949992
1326.6027896067592,1326.6027896067592,1.0006469856979296,0.0002618304992385434
1326.6097340271724,1326.6097340271724,1.0002213754643765,0.00026180720328135157
1326.6166784475859,1326.6166784475859,1.0001597935776965,0.00026184864626411033
1326.623622868092,1326.623622868092,0.9992310652222155,0.00026174897826161637
1326.6305672885057,1326.6305672885057,1.0000039356810013,0.0002618411980896263
1326.6375117087323,1326.6375117087323,0.9999206065877813,0.0002618619732248232
1326.644456129146,1326.644456129146,0.9997736042869858,0.00026183326089512955
1326.651400549466,1326.651400549466,1.0001517912916766,0.00026190864151758047
1326.6583449697864,1326.6583449697864,0.9996566609628005,0.0002618548401663563
1326.6652893901999,1326.6652893901999,1.0000763518514306,0.00026190016225240717
1326.6722338103336,1326.6722338103336,1.0005678883061087,0.0002619230743856849
1326.6791782307473,1326.6791782307473,1.0004823008515156,0.0002618875348387598
1326.686122650881,1326.686122650881,0.9999837818031875,0.0002618127142868457
1326.6941781783703,1326.6941781783703,0.9993034027952543,0.0002617278791236852
1326.7014003755294,1326.7014003755294,0.999700970708228,0.00026173829247003855
1326.7083447956634,1326.7083447956634,1.000274686408585,0.00026178895351234677
1326.715844769475,1326.715844769475,0.999928520268794,0.0002617207162228996
1326.7236225199395,1326.7236225199395,0.9998483339316284,0.0002617186310116909
1326.7305669401667,1326.7305669401667,0.999979999400727,0.0002617213607851483
1326.7375113603005,1326.7375113603005,1.0003038175067158,0.0002617166512767483
1326.744455780435,1326.744455780435,1.0003239169934957,0.0002616851046151197
1326.7514002004752,1326.7514002004752,0.9998428881563889,0.0002616356784292081
1326.7583446205158,1326.7583446205158,0.9998426410526948,0.00026164042432386456
1326.765289040557,1326.765289040557,0.9997194549452267,0.0002615850429781892
1326.7722334605976,1326.7722334605976,1.0005788294265778,0.0002616909197131729
1326.7791778806386,1326.7791778806386,1.0000343350418532,0.00026165334074780767
1326.7861223005862,1326.7861223005862,0.9999180245413652,0.0002616324326003815
1326.793066720627,1326.793066720627,0.9996049539218106,0.00026159294723188803
1326.8000111405745,1326.8000111405745,1.0002237923851278,0.0002617081102201877
1326.8069555605225,1326.8069555605225,0.9999172745051327,0.00026168854142220903
1326.81389998047,1326.81389998047,0.9998492924920466,0.0002616930430094189
1326.8208444003242,1326.8208444003242,1.00019672796398,0.0002617385370573491
1326.827788820179,1326.827788820179,0.9996083194571135,0.0002616734572242228
1326.8347332402197,1326.8347332402197,0.999917652000408,0.0002617082841345958
1326.8416776599813,1326.8416776599813,1.000690507137828,0.0002618075927725407
1326.8486220798359,1326.8486220798359,0.9999771121848419,0.0002617323077178548
1326.8555664995972,1326.8555664995972,0.9997804350128897,0.0002616887000911783
1326.8625109194516,1326.8625109194516,1.0003049839882443,0.0002617232118219335
1326.8694553392136,1326.8694553392136,0.999816686550278,0.000261639973660879
1326.8763997587887,1326.8763997587887,0.9999747875675766,0.0002616231187745162
1326.8833441786428,1326.8833441786428,0.9998238303793482,0.0002615856425182729
1326.8902885983114,1326.8902885983114,0.9997050350419286,0.00026152816564162733
1326.8972330179793,1326.8972330179793,1.0003366685364548,0.000261551369771956
1326.9041774376478,1326.9041774376478,0.9999056101681102,0.0002614271238548037
1326.9111218574092,1326.9111218574092,1.0001435486672237,0.00026138198220489585
1326.9180662769845,1326.9180662769845,1.000180614207681,0.00026131611548964854
1326.9250106965596,1326.9250106965596,0.9998182411999018,0.0002612474758955793
1326.9319551161348,1326.9319551161348,0.9999626724583333,0.0002611784053446709
1326.93889953571,1326.93889953571,1.0003917983790656,0.0002611878732333732
1326.9458439552848,1326.9458439552848,0.9995658784379049,0.00026102901589190804
1326.952788374767,1326.952788374767,0.9995449313259448,0.00026096373220976457
1326.9597327943418,1326.9597327943418,1.0003886886154754,0.00026101831941495815
1326.9666772138244,1326.9666772138244,0.9999239014779903,0.0002609125015512976
1326.9736216332133,1326.9736216332133,1.0007869796068807,0.00026098217912241367
1326.980566052788,1326.980566052788,1.0001347530848717,0.00026086346175655835
1326.9875104721773,1326.9875104721773,0.9999999635954302,0.00026080888809681404
1326.994454891566,1326.994454891566,0.9997250943545746,0.0002607426138971151
1327.001399310862,1327.001399310862,1.000058199719888,0.0002607867218711556
1327.0083437303438,1327.0083437303438,1.0001600580764296,0.00026078934410948026
1327.0152881495464,1327.0152881495464,1.000167296205138,0.0002607829551522771
1327.0222325689351,1327.0222325689351,1.000119826616372,0.0002607702709252913
1327.029176988231,1327.029176988231,0.99985168453124,0.00026074466372228236
1327.036121407434,1327.036121407434,0.9996608947894998,0.0002607331051462204
1327.0430658268224,1327.0430658268224,0.9999950424164045,0.0002607589808323424
1327.0500102460253,1327.0500102460253,0.9998009160490897,0.00026077123352686264
1327.0569546651345,1327.0569546651345,1.0001938334391043,0.0002608280830403501
1327.064732414668,1327.064732414668,0.9998682030234681,0.0002608076312874455
