time,time,flux,flux_err
1325.3039172349675,1325.3039172349675,0.9995066274378012,0.0010065956264517222
1325.3122505154536,1325.3122505154536,1.0003502371496151,0.0010070977578226792
1325.320583795475,1325.320583795475,1.0010818829837758,0.001007666243296814
1325.3282226354938,1325.3282226354938,0.9997884149427708,0.0009201950912079441
1325.3351670352317,1325.3351670352317,0.9983232729213473,0.0009203930420536765
1325.3421114350626,1325.3421114350626,0.9995115620487252,0.0009208799384334817
1325.3490558348008,1325.3490558348008,1.001189474608629,0.0009219346877871852
1325.3560002344457,1325.3560002344457,1.0015888689028114,0.0009223215319099594
1325.3629446339971,1325.3629446339971,0.9985135171943502,0.000922229802044861
1325.369889033549,1325.369889033549,0.9999817652100514,0.0009232801889083164
1325.3768334330075,1325.3768334330075,0.998177577607023,0.0009233125069452123
1325.38377783228,1325.38377783228,1.0013605529164291,0.0009245221930113725
1325.3907222316454,1325.3907222316454,1.000701438042727,0.0009252691555846676
1325.3976666308245,1325.3976666308245,1.000610682192936,0.0009253980447543261
1325.4046110300035,1325.4046110300035,0.9991413819206141,0.0009256690457666594
1325.41155542909,1325.41155542909,1.0008516578079316,0.0009263453000378731
1325.4184998281758,1325.4184998281758,0.9990312815373052,0.0009263445732934628
1325.4254442269823,1325.4254442269823,0.9988960027854542,0.0009264918608025577
1325.4323886260684,1325.4323886260684,1.0002962377423263,0.0009268539669215339
1325.4393330247817,1325.4393330247817,0.9991773130473668,0.0009270009601010206
1325.4462774235885,1325.4462774235885,1.0007217332873428,0.0009273490283284271
1325.4532218223949,1325.4532218223949,1.0003510524768142,0.000927981728946356
1325.4601662210157,1325.4601662210157,1.0010267269366504,0.0009281732199450368
1325.4671106196358,1325.4671106196358,1.0003253281806213,0.0009280096515925648
1325.474055018163,1325.474055018163,1.0002650402070539,0.0009280956623536207
1325.4809994165971,1325.4809994165971,0.9991458575092125,0.0009279339541643231
1325.4879438151243,1325.4879438151243,0.9998515639125116,0.000928447301570476
1325.4948882135586,1325.4948882135586,0.9989959247511313,0.0009286606750991409
1325.5018326118995,1325.5018326118995,1.0011074236289224,0.000929220956897606
1325.5087770102405,1325.5087770102405,1.0001687502679732,0.0009296021226862088
1325.5157214084886,1325.5157214084886,0.9989756287968689,0.0009297710785137389
1325.522665806736,1325.522665806736,1.0018335449000983,0.0009306291882244754
1325.5296102048908,1325.5296102048908,0.9998502252590148,0.0009306287518378557
1325.5365546029523,1325.5365546029523,0.9991648989018092,0.0009304606806386795
1325.543499001107,1325.543499001107,1.0000222620976966,0.0009307799850189393
1325.550443399169,1325.550443399169,0.9995270451651358,0.0009308668003461917
1325.5573877970442,1325.5573877970442,0.9994045570317308,0.0009307334338459474
1325.5643321951059,1325.5643321951059,0.9998911971294483,0.0009314402335757135
1325.571276592888,1325.571276592888,0.9993371412889058,0.000931514406413171
1325.5782209909494,1325.5782209909494,1.0014300824002298,0.0009321199539188907
1325.5851653886389,1325.5851653886389,0.9999019789616636,0.0009321184516747988
1325.5921097863277,1325.5921097863277,1.0011040306400316,0.0009326337086157348
1325.5990541842027,1325.5990541842027,0.9994619561895572,0.0009319583945681135
1325.6059985821714,1325.6059985821714,1.0021771134136155,0.0009331782760032718
1325.6129429798602,1325.6129429798602,0.9989549059377154,0.0009323760982412362
1325.61988737727,1325.61988737727,0.9980441420819032,0.0009320736987165366
1325.6268317747729,1325.6268317747729,0.9998929082640343,0.0009328760736745419
1325.633776172462,1325.633776172462,1.0002818679454812,0.0009328755551048293
1325.6407205701512,1325.6407205701512,0.9998615523393883,0.0009330982149991793
1325.6476649675603,1325.6476649675603,0.9989466312024804,0.0009328982645827282
1325.6546093650636,1325.6546093650636,1.0010319240305203,0.0009335559374870848
1325.6615537625662,1325.6615537625662,1.0007760051640442,0.0009336817280436074
1325.6684981599758,1325.6684981599758,1.0009146161619207,0.0009336282990868291
1325.6754425572922,1325.6754425572922,0.9997581404522367,0.0009336322969709145
1325.6823869547952,1325.6823869547952,0.9989551100972942,0.0009331838074825493
1325.6893313521118,1325.6893313521118,0.9997164754153409,0.0009336068393998382
1325.6962757493352,1325.6962757493352,1.000387061674738,0.000934209474990956
1325.7032201466518,1325.7032201466518,1.000238326836516,0.0009347033045675425
1325.7101645438752,1325.7101645438752,1.0006322659522993,0.0009350612265813151
1325.717108941098,1325.717108941098,0.9989579889118672,0.0009348698135994737
1325.7240533383217,1325.7240533383217,1.001204265981956,0.0009360424910539846
1325.7309977355453,1325.7309977355453,0.9990557056055014,0.000935581664950303
1325.7379421325822,1325.7379421325822,0.9999257555660703,0.0009364583934895066
1325.7448865298059,1325.7448865298059,1.0005402360280216,0.0009369824568736683
1325.7518309268428,1325.7518309268428,0.9995178916944039,0.000937144002673406
1325.7587753239732,1325.7587753239732,0.9992738968966911,0.0009377033101147377
1325.7657197210103,1325.7657197210103,1.0010230674323748,0.0009384795239229697
1325.7726641180473,1325.7726641180473,0.9996174421676514,0.0009383165755171379
1325.7796085149914,1325.7796085149914,1.000042966601577,0.000939033570064534
1325.7865529120284,1325.7865529120284,0.9994321290078684,0.0009391687455046382
1325.7934973088793,1325.7934973088793,0.9998842885308601,0.0009397964774503449
1325.8004417060097,1325.8004417060097,1.0002563346930564,0.000940011069688205
1325.8073861028606,1325.8073861028606,1.0007425391272409,0.0009406357334951285
1325.814330499618,1325.814330499618,1.0004915741109697,0.0009405376669252457
1325.821274896562,1325.821274896562,0.9995632634800284,0.0009407305370668295
1325.828219293413,1325.828219293413,0.9992048786803844,0.0009408927535412396
1325.835163690264,1325.835163690264,1.0005223268913181,0.0009414822347323744
1325.8421080870216,1325.8421080870216,0.9998118299412762,0.000941726630152372
1325.8490524838726,1325.8490524838726,0.9995286113758979,0.0009418314268492574
1325.8559968806298,1325.8559968806298,1.000004391692785,0.0009421808102892032
1325.862941277388,1325.862941277388,1.0007462618006007,0.0009423542221149356
1325.8698856740525,1325.8698856740525,1.0008110118542999,0.0009423660876256232
1325.8768300708105,1325.8768300708105,0.9999974557933824,0.000942071880620419
1325.8837744674752,1325.8837744674752,0.9991801443752959,0.0009419768901473464
1325.8907188641394,1325.8907188641394,1.0001109879316428,0.0009420751072381276
1325.8976632608042,1325.8976632608042,0.9997346709706596,0.000941935842132061
1325.9046076574691,1325.9046076574691,0.9986935343791679,0.0009417016198594371
1325.91155205404,1325.91155205404,1.0001774230988134,0.0009421927828872198
1325.9184964506117,1325.9184964506117,1.0011397842078114,0.0009422636066123823
1325.925440847183,1325.925440847183,0.9991380049749706,0.0009419940434814067
1325.9323852438479,1325.9323852438479,1.0005988782602089,0.0009424256110820277
1325.9393296404191,1325.9393296404191,1.002038034587279,0.0009427799530177817
1325.9462740368976,1325.9462740368976,0.9991281360397115,0.0009422797155276567
1325.9532184334691,1325.9532184334691,1.0000865639246155,0.0009422716190779067
1325.9601628298542,1325.9601628298542,0.9993577272894962,0.0009423664936206832
1325.9679405538693,1325.9679405538693,0.9987416039357326,0.0009420979901964537
1325.9754405020694,1325.9754405020694,1.000027430016806,0.0009423490868164923
1325.9823848985477,1325.9823848985477,1.0004453766502048,0.0009429678114273341
1325.9893292949328,1325.9893292949328,1.0002332550036528,0.0009427913583251403
1325.9962736913178,1325.9962736913178,1.0003127983630864,0.0009429494494469084
1326.0032180877035,1326.0032180877035,1.0001121706246656,0.0009428611359802617
1326.0101624840884,1326.0101624840884,0.9991443885525768,0.0009430638686056739
1326.0171068804739,1326.0171068804739,1.000312482544233,0.0009434883370474321
1326.0240512767657,1326.0240512767657,1.0000092773561844,0.0009437535144041283
1326.0309956731512,1326.0309956731512,0.9997668458730035,0.0009444099169784023
1326.037940069443,1326.037940069443,1.0008181154831446,0.0009447149678737095
1326.0448844657349,1326.0448844657349,1.0010823106989257,0.0009450840254632928
1326.0518288619342,1326.0518288619342,1.0002805092197717,0.0009446420890113827
1326.0587732582262,1326.0587732582262,1.0000873132814891,0.0009448494111763725
1326.065717654518,1326.065717654518,0.999303626507999,0.0009449356873567537
1326.072662050717,1326.072662050717,0.998813133394561,0.0009449914164238949
1326.0796064470087,1326.0796064470087,0.9998017799062792,0.0009454915768210166
1326.0865508431154,1326.0865508431154,0.9977179600006568,0.0009450828795486976
1326.0934952392208,1326.0934952392208,1.0007257211368454,0.000946168153009715
1326.1004396355133,1326.1004396355133,1.0019998100184826,0.0009467879244514466
1326.1073840317122,1326.1073840317122,0.999829902615423,0.0009463209905064485
1326.1143284278176,1326.1143284278176,0.9993916186250077,0.0009463349661898969
1326.1212728239236,1326.1212728239236,1.0016790478770763,0.0009469357272373753
1326.1282172199358,1326.1282172199358,0.9992704354027524,0.0009462357971905403
1326.1351616160423,1326.1351616160423,1.0000890284895871,0.0009462392284633933
1326.1421060122407,1326.1421060122407,1.000405946040669,0.0009465102242282198
1326.1490504081607,1326.1490504081607,1.0002106767095469,0.0009469161940080034
1326.1559948042664,1326.1559948042664,0.9993810400805344,0.0009467174976124186
1326.162939200279,1326.162939200279,0.9977987809804887,0.0009465730964572317
1326.1698835962918,1326.1698835962918,0.9989130308447921,0.0009469267932337005
1326.1768279923042,1326.1768279923042,1.001223620075255,0.0009476280943018593
1326.183772388224,1326.183772388224,1.0019201780435278,0.0009476176992192382
1326.1907167843297,1326.1907167843297,1.0008698575216977,0.0009474216946833768
1326.1976611802488,1326.1976611802488,0.9984610592732792,0.0009469969581853647
1326.204605576169,1326.204605576169,0.9990905266357772,0.0009471213334509837
1326.211549972088,1326.211549972088,0.9986432610317406,0.000946670844842646
1326.2184943680081,1326.2184943680081,0.9999801090763765,0.000946950901736277
1326.2254387639273,1326.2254387639273,1.0002927719564618,0.0009471081578372009
1326.232383159754,1326.232383159754,1.0004179919984821,0.0009468795453084879
1326.2393275556733,1326.2393275556733,1.0008799481938355,0.0009473691251818687
1326.2462719514995,1326.2462719514995,1.001488951739866,0.0009473564227559155
1326.2532163473265,1326.2532163473265,0.9997848352100605,0.000947063771610786
1326.2601607431525,1326.2601607431525,1.0006397113167864,0.0009466188063345255
1326.2671051389793,1326.2671051389793,0.9974548055473808,0.0009460051395494582
1326.2740495347125,1326.2740495347125,0.9990893983964414,0.0009466310307479284
1326.2809939304457,1326.2809939304457,1.000165108753431,0.000947039816100155
1326.2879383262723,1326.2879383262723,1.0010747874502581,0.0009472170223412278
1326.2948827220055,1326.2948827220055,1.0001617264374238,0.000947078918417116
1326.3018271177384,1326.3018271177384,1.0005213179748342,0.000947045300181443
1326.3087715133784,1326.3087715133784,1.000968181575852,0.000947367498208108
1326.315715909112,1326.315715909112,1.0004643005564577,0.000947383422136026
1326.3226603048454,1326.3226603048454,0.9980894456499405,0.0009466532323726391
1326.3296047004853,1326.3296047004853,0.9997287596042446,0.0009472267790543706
1326.336549096126,1326.336549096126,0.9993132678225312,0.000947674522585328
1326.343493491766,1326.343493491766,0.999512403863702,0.0009476841097579867
1326.350993439035,1326.350993439035,1.00193385939285,0.0009485822677245831
1326.3601600412835,1326.3601600412835,0.9997369805807569,0.0009482030026896806
1326.3671044367372,1326.3671044367372,1.0004725818625164,0.0009484223349338721
1326.3740488324706,1326.3740488324706,1.0003404123193715,0.000948893991645188
1326.3809932278314,1326.3809932278314,0.9990967025342312,0.000948746545745893
1326.3879376235648,1326.3879376235648,0.9995782202602493,0.0009487847871307795
1326.3948820190185,1326.3948820190185,0.9999560830328511,0.0009492894642242419
1326.4018264143792,1326.4018264143792,1.0007208032851953,0.000949279940833817
1326.4087708099264,1326.4087708099264,1.0005770921783417,0.0009496758858003372
1326.4157152055668,1326.4157152055668,0.9992741587771397,0.000949227793626642
1326.4226596009273,1326.4226596009273,1.0003474291935048,0.000950157935435792
1326.429603996288,1326.429603996288,0.9986478440056576,0.0009493925208961869
1326.4365483916488,1326.4365483916488,1.0004924079767468,0.0009502901964579429
1326.4434927870093,1326.4434927870093,1.0003804554314337,0.0009506405445510423
1326.4504371823705,1326.4504371823705,1.0000404749846292,0.0009506404896876212
1326.4573815777312,1326.4573815777312,0.9998762016959528,0.0009508015206573974
1326.464325973092,1326.464325973092,0.9998657975432093,0.0009509550904185911
1326.4712703684525,1326.4712703684525,1.0006667410941348,0.0009512413318279258
1326.4782147638132,1326.4782147638132,1.0000212517184484,0.0009509936544449151
1326.4851591591746,1326.4851591591746,0.9992491121516631,0.0009512572922422337
1326.4921035545347,1326.4921035545347,0.999751528765683,0.0009515951928414864
1326.499047949896,1326.499047949896,1.0002175520972914,0.0009520675847591786
1326.5059923451631,1326.5059923451631,0.9999301961061077,0.0009518034171239002
1326.5129367401516,1326.5129367401516,1.0012414860181331,0.0009522552526269812
1326.5198811355124,1326.5198811355124,0.9987620330908431,0.0009519323511441941
1326.5268255308733,1326.5268255308733,1.0000887839699395,0.0009523431627990757
1326.5337699257682,1326.5337699257682,1.0005698716583837,0.0009527500202469348
1326.540714321129,1326.540714321129,0.9992730746586342,0.0009525311630221986
1326.5476587162104,1326.5476587162104,0.9991590298494815,0.0009525878191357131
1326.554603111385,1326.554603111385,1.0003192134351078,0.0009538059545040823
1326.561547506466,1326.561547506466,1.0008005720920132,0.0009538015356939918
1326.5684919016408,1326.5684919016408,1.0017405614261188,0.0009540520424302932
1326.5754362966286,1326.5754362966286,1.0006930923204573,0.0009538586231403855
1326.5823806918038,1326.5823806918038,0.9975807993736525,0.0009530352901433832
1326.5893250867914,1326.5893250867914,1.0002288419880478,0.0009538254873632225
1326.5962694817802,1326.5962694817802,0.999662404056641,0.0009540437630704277
1326.6032138768612,1326.6032138768612,0.9993804724967756,0.0009540787372359684
1326.6101582718495,1326.6101582718495,1.00021383731448,0.0009544354126961998
1326.6171026668376,1326.6171026668376,0.9998861283720721,0.0009547367090281305
1326.6240470617327,1326.6240470617327,1.002598158660432,0.000955258915343321
1326.6309914567212,1326.6309914567212,0.9996971981669663,0.0009547820641831323
1326.6379358516158,1326.6379358516158,0.9994538904218182,0.0009545230329391242
1326.6448802465113,1326.6448802465113,0.9982850221009055,0.0009542510995362791
1326.6518246414064,1326.6518246414064,1.000645605378843,0.0009546252508627675
1326.6587690363012,1326.6587690363012,0.9994367767119989,0.0009546452759761854
1326.6657134311968,1326.6657134311968,0.9991406877747646,0.0009543533595004897
1326.6726578259052,1326.6726578259052,1.0004641374016707,0.0009545569300291129
1326.6796022208007,1326.6796022208007,1.0015949356803833,0.0009545534970133425
1326.6865466156025,1326.6865466156025,0.9999550974643139,0.0009541018319592613
1326.6946021135689,1326.6946021135689,0.9996021309850441,0.0009536907871625655
1326.701824283999,1326.701824283999,1.000255412328447,0.0009535631261173778
1326.708768678801,1326.708768678801,0.9999907267233488,0.0009531192740220177
1326.7162686250456,1326.7162686250456,1.000158084127318,0.000953354153130305
1326.7240463471978,1326.7240463471978,0.9992607252714143,0.0009530172002533607
1326.7309907417205,1326.7309907417205,0.9998660573005196,0.0009528274451090647
1326.7379351365223,1326.7379351365223,1.0001318032229836,0.0009530431594850638
1326.7448795310452,1326.7448795310452,0.9999464253778608,0.0009528679338076494
1326.7518239256606,1326.7518239256606,1.000406021530691,0.0009529108211547042
1326.758768320276,1326.758768320276,1.00124809877986,0.0009530794485954399
1326.7657127147988,1326.7657127147988,0.9990835065879262,0.0009526079909454694
1326.7726571094142,1326.7726571094142,0.9996160226095855,0.0009529246648102395
1326.77960150403,1326.77960150403,0.9993817548716439,0.0009526350557259904
1326.7865458984597,1326.7865458984597,1.0006562711119569,0.0009533485808817601
1326.7934902929824,1326.7934902929824,1.0006162300000097,0.0009530906661602623
1326.8004346874118,1326.8004346874118,0.9995913542381226,0.0009532542142975028
1326.8073790818412,1326.8073790818412,1.0008412109047318,0.0009532817521994781
1326.8143234762706,1326.8143234762706,0.9999757068358175,0.0009535456728693798
1326.8212678706998,1326.8212678706998,0.9988141144142197,0.0009530969056254302
1326.8282122651294,1326.8282122651294,0.9983248983901458,0.0009529974110874878
1326.8351566594656,1326.8351566594656,1.0014106874791797,0.0009534224458950747
1326.8421010538023,1326.8421010538023,0.9998189343218573,0.0009533402514070467
1326.8490454482314,1326.8490454482314,0.9999873385801076,0.0009532991958340814
1326.8559898424746,1326.8559898424746,1.0006048153814042,0.0009532009401073778
1326.8629342368108,1326.8629342368108,1.0007642854870338,0.0009530611082278158
1326.8698786310545,1326.8698786310545,0.9993809635317096,0.0009525501461282273
1326.8768230252977,1326.8768230252977,0.9996746369973485,0.0009524730953210794
1326.8837674194472,1326.8837674194472,1.0004885428167445,0.0009522349647284314
1326.8907118136908,1326.8907118136908,0.9987126197508852,0.0009514070118096322
1326.89765620784,1326.89765620784,1.000385931034217,0.0009516117360980475
1326.904600602084,1326.904600602084,0.9995834119290917,0.000951051515470904
1326.9115449962337,1326.9115449962337,1.0004085663707543,0.0009506698331769444
1326.9184893902907,1326.9184893902907,1.000544396018678,0.0009501690485701434
1326.9254337844407,1326.9254337844407,1.0005086466346098,0.0009495904539701452
1326.9323781784976,1326.9323781784976,0.9993925817683718,0.0009492089751659855
1326.9393225725548,1326.9393225725548,1.0007440663618923,0.0009490742079468623
1326.9462669665181,1326.9462669665181,1.0011142372250188,0.0009487679510095791
1326.9532113605753,1326.9532113605753,0.9992266516321827,0.000947891241525128
1326.9601557545388,1326.9601557545388,0.9984925202483483,0.000947380967112549
1326.967100148503,1326.967100148503,1.0003432368922727,0.0009477357832188655
1326.9740445424668,1326.9740445424668,1.0000526499691627,0.0009474111396189155
1326.98098893643,1326.98098893643,0.9999673049370607,0.0009468640343573032
1326.9879333303013,1326.9879333303013,0.9986618269992225,0.0009462361930084071
1326.9948777241716,1326.9948777241716,1.000198080821905,0.0009463661586330472
1327.0018221179496,1327.0018221179496,1.001277658103469,0.0009464196357383874
1327.008766511913,1327.008766511913,0.9997803582553845,0.0009460956218667925
1327.0157109057836,1327.0157109057836,1.0000240970385943,0.0009460930212027733
1327.022655299375,1327.022655299375,1.001222981566499,0.0009460246046914122
1327.0295996932455,1327.0295996932455,0.9995626059068098,0.000945677678810948
1327.0365440869305,1327.0365440869305,0.9993729671247866,0.0009456028388494213
1327.0434884807073,1327.0434884807073,1.000909512036096,0.000946042374654427
1327.0504328742988,1327.0504328742988,0.9995846985321941,0.000945860574372288
1327.057377268076,1327.057377268076,0.9996626650430389,0.0009460304896665494
1327.0651549889249,1327.0651549889249,0.9993915592157119,0.0009462294124290088
1327.0726549339583,1327.0726549339583,1.0006227454749577,0.0009467405036509234
1327.0795993276429,1327.0795993276429,0.9997052347927717,0.0009466031873071497
