time,time,flux,flux_err
1410.9071773703824,1410.9071773703824,1.0001227764277203,0.00037305740755613195
1410.9148164102187,1410.9148164102187,1.000177973181862,0.00034054355353654636
1410.9217609919626,1410.9217609919626,0.9996610607835683,0.0003404780839224633
1410.9287055737989,1410.9287055737989,1.0001014112237638,0.0003405306369950156
1410.935650155752,1410.935650155752,0.9998039589587859,0.0003404622367110282
1410.9425947377517,1410.9425947377517,0.9995605434182817,0.00034040380430029463
1410.949539319844,1410.949539319844,0.9998511666044939,0.0003403985295856757
1410.9564839020309,1410.9564839020309,1.0002987870936368,0.00034047386795000033
1410.9648174007043,1410.9648174007043,1.0003702242631327,0.0003402593768765538
1410.9809288318997,1410.9809288318997,0.9995757330986568,0.00034000874765515257
1410.9884289809609,1410.9884289809609,0.9998240480325199,0.00034024863568144176
1410.9981513966125,1410.9981513966125,1.000100645644525,0.00033992340333897946
1411.0078738123805,1411.0078738123805,0.9998832281933883,0.00034026850488826077
1411.0148183951483,1411.0148183951483,1.0006842474722888,0.000340301410612575
1411.021762977986,1411.021762977986,1.0005519869570307,0.0003403858910351446
1411.0287075608942,1411.0287075608942,0.9999300034568778,0.0003401819326100591
1411.0356521438707,1411.0356521438707,0.9998593680889897,0.0003400948227282644
1411.0425967268957,1411.0425967268957,0.9999236411648449,0.0003401516260558247
1411.0506524432963,1411.0506524432963,0.9997531524682308,0.0003400707990603252
1411.0578748098044,1411.0578748098044,1.0001041378861821,0.00034016099095716035
1411.0648193930144,1411.0648193930144,1.0000534199423063,0.00034015562919385156
1411.071763976318,1411.071763976318,1.000025689551518,0.0003402327960181926
1411.0787085596453,1411.0787085596453,1.0002637767831117,0.000340191800618685
1411.0856531430413,1411.0856531430413,0.9999917023123549,0.00034008306595281426
1411.0925977264847,1411.0925977264847,0.9998157492647017,0.000340179726688791
1411.099542309998,1411.099542309998,0.9992405429491991,0.00034019014150050183
1411.1064868935105,1411.1064868935105,1.0003817512307858,0.00034017945022678107
1411.1134314771173,1411.1134314771173,1.0005463164690531,0.0003402733773405354
1411.1203760607925,1411.1203760607925,0.9998410727558241,0.00034020335783747685
1411.127320644492,1411.127320644492,1.0002108584134137,0.00034005227768538703
1411.134265228238,1411.134265228238,1.000277228802649,0.0003402832127430131
1411.1412098120297,1411.1412098120297,0.9998931839822461,0.0003400866165222721
1411.1481543958698,1411.1481543958698,0.999642407525261,0.0003401661104012069
1411.155098979778,1411.155098979778,1.0003076489314693,0.0003401383949248941
1411.162043563664,1411.162043563664,0.9999862206040714,0.0003401875451778325
1411.1689881476425,1411.1689881476425,0.9997330247612848,0.00033992583416526235
1411.175932731644,1411.175932731644,0.999892347737514,0.00034018554329492436
1411.1828773156933,1411.1828773156933,0.9996144192839866,0.00034005397044577885
1411.189821899788,1411.189821899788,1.000263860978639,0.0003401965590850369
1411.196766483883,1411.196766483883,1.0003777178096749,0.00034016894799475503
1411.2037110680715,1411.2037110680715,0.9997403479598399,0.00034003847458612547
1411.210655652259,1411.210655652259,0.9995129979788839,0.0003399555175424472
1411.2176002364945,1411.2176002364945,1.0001745978596783,0.00033994801652535754
1411.2245448207755,1411.2245448207755,1.0002173312762472,0.0003400799531349811
1411.2314894050803,1411.2314894050803,0.99984538271472,0.0003398962528865876
1411.2384339894083,1411.2384339894083,1.0007197695328305,0.0003401003514341867
1411.2453785737823,1411.2453785737823,0.999487552879873,0.00034003908632826993
1411.252323158181,1411.252323158181,0.9998000523612445,0.00034003700902432806
1411.2592677426014,1411.2592677426014,1.0002614482301253,0.0003401045794737122
1411.2662123270695,1411.2662123270695,1.0009448857301986,0.00034019569518635754
1411.2731569115601,1411.2731569115601,0.9998704092140744,0.00033985164887848334
1411.2801014960507,1411.2801014960507,0.999319282768159,0.0003397828491818342
1411.2870460806118,1411.2870460806118,0.999798951021841,0.00033995165189792297
1411.293990665149,1411.293990665149,0.9996023135653633,0.0003400734932543897
1411.30093524978,1411.30093524978,0.9985591512268368,0.0003399250929771912
1411.307879834364,1411.307879834364,1.0000870684178291,0.0003401465340417365
1411.3148244190177,1411.3148244190177,1.0005791044373886,0.0003402340736914239
1411.3217690036954,1411.3217690036954,1.000031275625248,0.00034018773758405523
1411.3287135883488,1411.3287135883488,1.0000911065421718,0.0003401063415850518
1411.335658173096,1411.335658173096,0.9998935383703493,0.000340048302414081
1411.342602757773,1411.342602757773,1.0000552189718555,0.0003401057053676574
1411.3495473425432,1411.3495473425432,1.0001439802229117,0.00034019531691721746
1411.356491927314,1411.356491927314,1.0005153460672367,0.0003401531208599763
1411.3634365120836,1411.3634365120836,0.9989790125208238,0.0003398304079587649
1411.3703810969248,1411.3703810969248,0.9999076093824595,0.00034003114921616094
1411.3773256817408,1411.3773256817408,1.000134926049978,0.00034023205854070293
1411.384270266581,1411.384270266581,1.0006276737489777,0.0003401110738585125
1411.3912148514214,1411.3912148514214,0.999857467409209,0.00034008590774656905
1411.3981594363077,1411.3981594363077,0.9999150138904375,0.00033992306880979516
1411.405104021195,1411.405104021195,1.0003574955533399,0.00034007905399601574
1411.4120486060815,1411.4120486060815,1.000671253704675,0.00034015338212664944
1411.4189931909916,1411.4189931909916,0.9999606450994392,0.0003398893983054442
1411.425937775925,1411.425937775925,0.9992846000995644,0.0003398809317416162
1411.4328823608807,1411.4328823608807,0.9997655729855479,0.0003398970651405587
1411.4398269457915,1411.4398269457915,0.9998851752040384,0.00033979704358610437
1411.446771530771,1411.446771530771,1.0000552252402533,0.0003399118098452196
1411.453716115751,1411.453716115751,1.0002836662904433,0.00034007233209006613
1411.4606607007313,1411.4606607007313,0.9998955931211485,0.0003400356828545097
1411.4676052857105,1411.4676052857105,1.0005078132446514,0.00033997318712186475
1411.4745498707146,1411.4745498707146,0.9999845399471379,0.0003400036735287362
1411.481494455717,1411.481494455717,1.000310867056426,0.00033998801884268094
1411.4884390407437,1411.4884390407437,0.9998829897695944,0.00034008216670871374
1411.49538362577,1411.49538362577,0.9999554072022114,0.00034006210548634755
1411.5023282107727,1411.5023282107727,0.9998611171450469,0.00034003878920112413
1411.509272795846,1411.509272795846,0.9997701133876106,0.0003399613878059547
1411.5162173808724,1411.5162173808724,0.9994287233706256,0.00033979929983760646
1411.5231619658991,1411.5231619658991,0.9997586159140388,0.0003400453391804042
1411.530106550972,1411.530106550972,1.0004035257622852,0.0003401304809339949
1411.5370511360215,1411.5370511360215,1.0006314398661829,0.00034008251795141756
1411.5439957210951,1411.5439957210951,0.9997474626923225,0.0003398510814973248
1411.5509403061442,1411.5509403061442,0.9997856056082174,0.0003399723218932858
1411.5578848912178,1411.5578848912178,1.0002683317516794,0.00034012148331148657
1411.5648294762668,1411.5648294762668,1.0000480078773537,0.0003400047121482067
1411.5717740613402,1411.5717740613402,0.9998650910263965,0.00033998149336212714
1411.57871864639,1411.57871864639,1.0002957861536714,0.0003400404040078868
1411.5856632314621,1411.5856632314621,0.999917691261464,0.0003401018491776493
1411.5926078165362,1411.5926078165362,0.9998086750254321,0.00034013934012160296
1411.5995524016316,1411.5995524016316,1.0000141255921282,0.00034015843371968714
1411.6064969867052,1411.6064969867052,0.9993212413395719,0.0003399887097027655
1411.6134415717547,1411.6134415717547,0.9999407043405688,0.00034010397337226736
1411.6203861568274,1411.6203861568274,1.0001525761053702,0.00034012238496152446
1411.6273307418778,1411.6273307418778,0.9999759512585931,0.0003401214940041889
1411.6342753269505,1411.6342753269505,0.9997450231891214,0.00034011281584113743
1411.6412199120002,1411.6412199120002,1.0000193024180501,0.00034003504827805054
1411.6481644970731,1411.6481644970731,1.0005819412929153,0.0003401589244123377
1411.6551090821226,1411.6551090821226,1.0004257138116,0.00034010089153273146
1411.662053667196,1411.662053667196,1.0000317776463574,0.0003400678318916127
1411.6689982521987,1411.6689982521987,0.9997969374318597,0.0003400389132107412
1411.6759428372488,1411.6759428372488,1.0001506360908337,0.00034001740075338357
1411.6828874222986,1411.6828874222986,0.9999016540484302,0.0003399061526948681
1411.6898320073249,1411.6898320073249,0.9998845554504248,0.0003400831089658961
1411.6967765923516,1411.6967765923516,1.0001143786895592,0.00034007656771849095
1411.7037211773543,1411.7037211773543,0.9996412584741907,0.0003399862497536517
1411.7106657623813,1411.7106657623813,1.0005251064218497,0.0003400732476906371
1411.717610347384,1411.717610347384,0.9996994247833031,0.00034006806461722245
1411.7245549323873,1411.7245549323873,1.0001921087168815,0.000340046013834892
1411.731499517367,1411.731499517367,1.0002321071554496,0.00034008745860345066
1411.7384441023469,1411.7384441023469,0.9996694910554924,0.0003399831819559854
1411.745388687327,1411.745388687327,1.0003094733014477,0.00034011119253584695
1411.7523332723065,1411.7523332723065,0.9999595055456154,0.00034006274799992396
1411.7592778572405,1411.7592778572405,1.000544956884998,0.00034017034288305245
1411.7662224421967,1411.7662224421967,0.9993332509306493,0.00034002894269170115
1411.77316702713,1411.77316702713,1.0000744739176373,0.0003400315001978224
1411.7801116120631,1411.7801116120631,1.0000068562773605,0.00034010822123582295
1411.7870561969728,1411.7870561969728,0.9998147847270292,0.0003400404632970655
1411.7940007818836,1411.7940007818836,1.0003570648578985,0.00034014019707124296
1411.8009453667933,1411.8009453667933,1.0000529973080368,0.00034011804367643637
1411.8078899516802,1411.8078899516802,1.0005592400626946,0.0003401180930951406
1411.8148345365437,1411.8148345365437,0.9994595132272291,0.00033998145852596475
1411.8217791214067,1411.8217791214067,0.999954501888016,0.00034007181193543366
1411.8287237062477,1411.8287237062477,1.0004672160250216,0.00034014333336972364
1411.8356682911103,1411.8356682911103,1.0002943617928717,0.0003400171049452783
1411.8426128759047,1411.8426128759047,0.9996687469252139,0.0003399709238327535
1411.8495574607443,1411.8495574607443,0.9997158622161058,0.0003400626141572686
1411.8565020455612,1411.8565020455612,0.9998961324302227,0.00034010959488681863
1411.8634466303317,1411.8634466303317,1.001031393992119,0.00034026064008563266
1411.8703912151018,1411.8703912151018,0.9993660279010586,0.0003399750828507195
1411.8773357998725,1411.8773357998725,1.0001701955556146,0.00034006492778231934
1411.8842803846424,1411.8842803846424,0.9996017059221287,0.0003400679926746061
1411.891224969297,1411.891224969297,1.0003405031426564,0.0003401890211152277
1411.8981695540665,1411.8981695540665,0.9997292822673419,0.00034009362068703955
1411.9051141387442,1411.9051141387442,0.9997738330309053,0.00034010896953412246
1411.9120587234445,1411.9120587234445,0.9999450886946516,0.00034006594488938133
1411.9190033080984,1411.9190033080984,1.0001319926301953,0.0003401090563812198
1411.925947892753,1411.925947892753,1.00032147682071,0.0003402350663759534
1411.932892477406,1411.932892477406,1.0005030347202382,0.00034014377226214773
1411.9398370620372,1411.9398370620372,1.0000379465960227,0.0003400411611736901
1411.9467816466208,1411.9467816466208,0.999477500960128,0.00034003070015006456
1411.953726231228,1411.953726231228,0.9998765477353275,0.00034011883732058986
1411.9606708157894,1411.9606708157894,0.9998923395165958,0.0003400572991207539
1411.9676154003496,1411.9676154003496,0.9998347597154007,0.00034003514022908787
1411.9745599848877,1411.9745599848877,0.999657680190146,0.0003399239110419624
1411.981504569425,1411.981504569425,1.000465833792442,0.0003400504699504633
1411.9884491538928,1411.9884491538928,1.0000082887026631,0.00034003939122586593
1411.9953937384303,1411.9953937384303,1.000644106489185,0.0003400260010983438
1412.002338322851,1412.002338322851,1.0000773773495513,0.0003401363672177678
1412.0092829073424,1412.0092829073424,0.9996592941015017,0.00033997638416108605
1412.0162274917627,1412.0162274917627,0.9996705893137209,0.00033999691503415144
1412.0231720761612,1412.0231720761612,1.0001267759640542,0.00034007498835899
1412.0301166605586,1412.0301166605586,0.9996793347829316,0.00033994443568009975
1412.0370612449333,1412.0370612449333,1.0005751255976256,0.00034012423886529356
1412.044005829308,1412.044005829308,1.000381778916076,0.00033989776151425495
1412.0509504136357,1412.0509504136357,0.9994135931332918,0.00033994992852119015
1412.057894997941,1412.057894997941,1.0000838334278852,0.000340086479316372
1412.064839582245,1412.064839582245,1.0000095197319858,0.00034007106147299776
1412.071784166527,1412.071784166527,0.9994132418762078,0.0003400470054944661
1412.0787287507612,1412.0787287507612,1.000064097030003,0.0003400770503439436
1412.0856733350427,1412.0856733350427,0.9997643052685854,0.0003399401443996966
1412.0926179192543,1412.0926179192543,1.000437249781796,0.0003400907485140099
1412.0995625034423,1412.0995625034423,0.9998779304923063,0.00034003095347252767
1412.1065070876314,1412.1065070876314,1.0002556470730979,0.00034006208727530257
1412.113451671749,1412.113451671749,1.000909498997141,0.00034023483158167626
1412.120396255891,1412.120396255891,0.9998146088624142,0.00034002339191285217
1412.127340839986,1412.127340839986,0.9996901790548354,0.0003399727372785829
1412.1342854240813,1412.1342854240813,1.000462848809639,0.00034009408855894456
1412.1412300081531,1412.1412300081531,0.9996147056936889,0.0003398920405105479
1412.1481745922015,1412.1481745922015,1.0005460012289928,0.0003401198555219772
1412.155119176204,1412.155119176204,0.9995899596273521,0.00033993299582517984
1412.1620637602055,1412.1620637602055,0.9998568796916423,0.00034007251962784495
1412.1690083442077,1412.1690083442077,1.0000767629943668,0.000340070902568151
1412.1759529281396,1412.1759529281396,0.9995507392613241,0.0003400119749917884
1412.1828975120952,1412.1828975120952,0.9999335629658702,0.00034016588269605277
1412.1898420960038,1412.1898420960038,1.0000958629457206,0.0003400780298245313
1412.1967866798893,1412.1967866798893,1.0002559874265158,0.0003401229148122946
1412.203731263729,1412.203731263729,1.0005121762978049,0.00034013926730402797
1412.2106758475907,1412.2106758475907,0.999683730284825,0.0003400330270055676
1412.2176204313835,1412.2176204313835,0.9999902827518297,0.0003400076492638212
1412.2245650151758,1412.2245650151758,0.9995867844409402,0.0003400023548769408
1412.2315095989684,1412.2315095989684,0.9997976694648176,0.0003400545524880849
1412.2384541827146,1412.2384541827146,1.0009184043471397,0.00034013613215795656
1412.2453987664362,1412.2453987664362,1.0000793437886697,0.0003400276241618928
1412.2531767001458,1412.2531767001458,1.0002725341404015,0.00034005109315225497
1412.2617879839336,1412.2617879839336,0.9997466186532247,0.00033952122873617113
1412.2717881843269,1412.2717881843269,1.000026252633055,0.00033982033973592674
1412.2831773014414,1412.2831773014414,0.9992056281043776,0.0003395064406396578
1412.2912330184004,1412.2912330184004,1.0000915836136008,0.0003397495177789773
1412.2981776019137,1412.2981776019137,0.9998629948624874,0.000340029447037857
1412.3051221854266,1412.3051221854266,1.0001484448478768,0.0003400245605181609
1412.3120667689166,1412.3120667689166,0.9998523651505966,0.0003399659227220415
1412.31901135236,1412.31901135236,1.0004257032198534,0.0003401887417158134
1412.3259559358028,1412.3259559358028,1.0001835011838383,0.00033992323215468947
1412.3329005192,1412.3329005192,1.0001034680758432,0.0003402130076043064
1412.339845102596,1412.339845102596,0.9997001252112204,0.0003399825151162701
1412.346789685947,1412.346789685947,1.0000908973596263,0.0003398177885750093
1412.353734269273,1412.353734269273,1.0001732357513684,0.0003399106120956446
1412.3606788526001,1412.3606788526001,0.9996219079481297,0.00033974145139373805
1412.3676234358568,1412.3676234358568,0.9997234113241827,0.0003399271262916624
1412.3745680190905,1412.3745680190905,0.9997454503601115,0.00034001746917444145
1412.3815126023244,1412.3815126023244,1.0008300698990447,0.00034015426555756006
1412.3884571855342,1412.3884571855342,1.000400901664333,0.0003401190923994263
1412.3954017686988,1412.3954017686988,1.0005401197863186,0.00034014246820065857
1412.402346351839,1412.402346351839,0.9996888534004833,0.00033988497639156443
1412.4092909349563,1412.4092909349563,1.0002066760147241,0.00033985862988937553
1412.4162355180736,1412.4162355180736,0.999447415945923,0.0003396452690944883
1412.4231801011206,1412.4231801011206,1.0004452179475205,0.0003400649260850764
1412.4301246841453,1412.4301246841453,0.9995717658447998,0.000339943623073774
1412.437069267169,1412.437069267169,0.9998995456990935,0.00034003887567453145
1412.4440138501702,1412.4440138501702,0.9998211662268304,0.0003398426320100537
1412.4509584331008,1412.4509584331008,0.9999369131897037,0.0003399189349604925
1412.457903016032,1412.457903016032,1.000004763590279,0.00033967445555274287
1412.4648475989395,1412.4648475989395,1.0009453069660403,0.00033990582507066266
1412.4717921818008,1412.4717921818008,0.9998434654350469,0.00033972608870756684
1412.4787367646618,1412.4787367646618,0.9996666305587928,0.00033939942105546794
1412.485681347476,1412.485681347476,1.0003340064236543,0.00033997727657039364
1412.4926259302679,1412.4926259302679,1.000121642652876,0.0003399943118719857
1412.499570513012,1412.499570513012,0.9997906568584997,0.00033974919917129494
1412.5065150957575,1412.5065150957575,0.9999154110178035,0.00033993149950627545
1412.5134596784553,1412.5134596784553,0.9999633257887741,0.00033994829932758346
1412.5204042611304,1412.5204042611304,1.000119328401421,0.00034003850903295346
1412.5273488437588,1412.5273488437588,0.9990362151515766,0.0003398925402379873
1412.53429342641,1412.53429342641,1.0005646888630302,0.00034008292681408106
1412.541238008992,1412.541238008992,0.9997592523517985,0.0003399544423413174
1412.54818259155,1412.54818259155,1.000587512349982,0.0003400894253011588
1412.5551271740856,1412.5551271740856,0.9997560860341519,0.00033997356668935173
1412.5620717565973,1412.5620717565973,0.99991294281474,0.00033996501709432304
1412.5690163390395,1412.5690163390395,1.0000169414742563,0.00034003587296424135
1412.5759609214815,1412.5759609214815,1.0000068414118382,0.0003400066307811614
1412.5829055039235,1412.5829055039235,1.000477077322999,0.000340069235548913
1412.5898500863427,1412.5898500863427,1.0000256676015948,0.0003400494944941268
1412.596794668691,1412.596794668691,0.9995300442006073,0.00033991108178734554
1412.6037392510173,1412.6037392510173,1.0000155342904173,0.00033996323491849534
1412.6106838332955,1412.6106838332955,1.0000149127223559,0.0003399599987561295
1412.6176284155986,1412.6176284155986,0.9998021958068646,0.00033990796064705395
1412.6245729978305,1412.6245729978305,1.000048078654832,0.0003396794105402244
1412.63151758004,1412.63151758004,0.9999994278737445,0.0003398963255962537
1412.6384621622028,1412.6384621622028,1.0001607414475142,0.0003399967883767485
1412.6454067443653,1412.6454067443653,0.9998825648049504,0.00033996318581893206
1412.6523513265051,1412.6523513265051,0.9998106816348669,0.0003399655379559301
1412.6592959085972,1412.6592959085972,1.0003116438452844,0.0003400182724703668
1412.6662404906674,1412.6662404906674,1.000184554824636,0.0003399957052912829
1412.6731850726896,1412.6731850726896,1.0000930027396941,0.0003399354916084741
1412.6801296546898,1412.6801296546898,1.00000829035563,0.0003396575420619632
1412.6870742366657,1412.6870742366657,0.999909275483585,0.0003398799238392775
1412.694018818596,1412.694018818596,0.9998696977221784,0.0003399304399806606
