time,time,flux,flux_err
1325.2993684682303,1325.2993684682303,1.0014782698108171,0.00035638650818869456
1325.3077019766868,1325.3077019766868,1.0017834302544788,0.0003566607062587673
1325.3160354853333,1325.3160354853333,1.0006610168162853,0.00035660848602543855
1325.3236745350744,1325.3236745350744,1.000051344550345,0.00032563950210128006
1325.3306191258787,1325.3306191258787,0.9999626107575728,0.00032577463595502814
1325.3375637168028,1325.3375637168028,0.9997288802411344,0.0003259111880225133
1325.344508307849,1325.344508307849,0.9996973882802394,0.0003260750071566097
1325.3514528990086,1325.3514528990086,0.9993496635505383,0.0003261607813276097
1325.3583974902876,1325.3583974902876,0.9990996498518936,0.00032637426559373216
1325.3653420816804,1325.3653420816804,0.9985769883538241,0.00032646137643720324
1325.372286673183,1325.372286673183,0.9996804962693725,0.0003267368568078849
1325.3792312648027,1325.3792312648027,0.9993423456687989,0.00032687645629037786
1325.3861758565272,1325.3861758565272,0.9988058877354815,0.0003270235803601835
1325.393120448362,1325.393120448362,0.9993934007854246,0.00032735294152128844
1325.4000650403045,1325.4000650403045,1.000089717745901,0.0003275899740563929
1325.4070096323492,1325.4070096323492,1.0001531578535534,0.0003277347484388604
1325.4139542245011,1325.4139542245011,0.999651130553662,0.00032780277189695085
1325.4208988167552,1325.4208988167552,0.9999794201441425,0.00032804780523207913
1325.427843409108,1325.427843409108,0.9996493120596919,0.0003281683307539893
1325.4347880015569,1325.4347880015569,0.9999098527888268,0.00032833954886624437
1325.4417325941135,1325.4417325941135,0.9996700201449282,0.0003285317518192385
1325.4486771867546,1325.4486771867546,1.0003665508588329,0.0003287752732619145
1325.4556217795005,1325.4556217795005,0.9997628307711646,0.0003289141570078392
1325.4625663723334,1325.4625663723334,1.0006872648192369,0.0003292194391339222
1325.4695109652628,1325.4695109652628,1.0001478127891583,0.00032937503394019475
1325.4764555582822,1325.4764555582822,1.0003929962477307,0.0003296154950766574
1325.4834001513916,1325.4834001513916,0.9996949563351176,0.00032980750507867284
1325.490344744589,1325.490344744589,0.9995196765513373,0.00033000712580661025
1325.497289337876,1325.497289337876,1.0000946774906494,0.0003303983079501441
1325.5042339312445,1325.5042339312445,0.9996101094184404,0.00033061248283796057
1325.5111785247009,1325.5111785247009,0.9998133908501149,0.0003308335767023039
1325.5181231182437,1325.5181231182437,1.0000345968032973,0.00033117801243831167
1325.5250677118627,1325.5250677118627,1.0011933980222818,0.0003316406860946581
1325.5320123055571,1325.5320123055571,1.000188860211223,0.00033176112071162534
1325.538956899342,1325.538956899342,0.9995697342471962,0.00033194641646923145
1325.5459014932028,1325.5459014932028,1.0001056796915742,0.0003322550761967954
1325.5528460871387,1325.5528460871387,0.9996195037562916,0.0003324789966739397
1325.5597906811481,1325.5597906811481,1.0006277853485739,0.0003328407816240111
1325.5667352752328,1325.5667352752328,1.0001869874884017,0.00033304421833317435
1325.5736798693986,1325.5736798693986,1.0001918848163396,0.0003332687597637389
1325.580624463629,1325.580624463629,0.9996357305710525,0.00033336963173029234
1325.5875690579317,1325.5875690579317,0.9998672044937893,0.0003336257974551471
1325.5945136523073,1325.5945136523073,1.0002460723842481,0.0003338731259555239
1325.6014582467528,1325.6014582467528,0.9999019043757309,0.00033392317828702465
1325.608402841265,1325.608402841265,0.999817463130724,0.00033408298965542307
1325.6153474358448,1325.6153474358448,0.9994781962847694,0.000334048661425658
1325.622292030488,1325.622292030488,1.0002493895099134,0.00033425960242777807
1325.6292366251953,1325.6292366251953,1.000218208707004,0.00033425217437236924
1325.6361812199698,1325.6361812199698,1.000064164322786,0.00033427194484631943
1325.6431258148023,1325.6431258148023,0.9997568962889671,0.0003342161491056971
1325.650070409699,1325.650070409699,1.0000646880503978,0.00033427869311060496
1325.6570150046596,1325.6570150046596,0.9999903366407971,0.0003342584254367636
1325.6639595996844,1325.6639595996844,1.0003936848472577,0.00033429396312094123
1325.6709041947584,1325.6709041947584,1.0001320690915434,0.0003342407935593035
1325.6778487898907,1325.6778487898907,0.9999267094001766,0.0003342343885236529
1325.6847933850845,1325.6847933850845,1.0000725127125683,0.000334275241046128
1325.691737980333,1325.691737980333,0.9998244638580699,0.0003343052444741546
1325.6986825756344,1325.6986825756344,1.0000517616454103,0.0003343355643316677
1325.705627170991,1325.705627170991,0.9993077560506975,0.0003343150866547097
1325.7125717664023,1325.7125717664023,1.0002035469686106,0.0003345215001541623
1325.7195163618665,1325.7195163618665,1.0000443224307223,0.0003345975164407614
1325.7264609573772,1325.7264609573772,1.0000937615721344,0.00033466692911460476
1325.733405552946,1325.733405552946,1.000287823338354,0.0003348151027736672
1325.7403501485558,1325.7403501485558,1.0000003741814214,0.00033483375649452174
1325.7472947442204,1325.7472947442204,1.000105022857714,0.0003349610502325361
1325.7542393399322,1325.7542393399322,0.999990632697062,0.0003350736834810401
1325.7611839356905,1325.7611839356905,0.9995633150983915,0.0003351308703858847
1325.768128531495,1325.768128531495,1.0004388013663443,0.0003353418242984658
1325.7750731273493,1325.7750731273493,0.9996709281491938,0.00033536840012668824
1325.7820177232438,1325.7820177232438,0.99940169927097,0.00033543557808593484
1325.7889623191795,1325.7889623191795,1.0003427747865015,0.000335690769755228
1325.7959069151646,1325.7959069151646,1.000625583218301,0.00033583580958498107
1325.8028515111905,1325.8028515111905,0.9994887087252111,0.00033573905635290335
1325.8097961072604,1325.8097961072604,1.00029910779014,0.00033593036662221383
1325.816740703367,1325.816740703367,1.0001145820024793,0.0003359479681931471
1325.8236852995155,1325.8236852995155,1.0004815614387037,0.00033605450759616016
1325.8306298957043,1325.8306298957043,0.9994136941045101,0.0003359519412873441
1325.837574491934,1325.837574491934,0.999985396124847,0.00033601521428890075
1325.8445190881985,1325.8445190881985,0.9995769946015874,0.00033597159763868085
1325.8514636844975,1325.8514636844975,1.0003313508181324,0.0003360119826775285
1325.8584082808436,1325.8584082808436,1.000026877008619,0.0003359268922681658
1325.8653528772159,1325.8653528772159,1.0001933320605343,0.0003358237215255148
1325.872297473629,1325.872297473629,0.9997425469203461,0.00033560349652989084
1325.8792420700797,1325.8792420700797,0.9997314506791071,0.00033545488746003515
1325.8861866665595,1325.8861866665595,1.0000210105079206,0.00033534368374936446
1325.8931312630743,1325.8931312630743,1.0000956710925393,0.00033523726583259937
1325.9000758596212,1325.9000758596212,1.0000228835818308,0.0003351296504185199
1325.9070204562026,1325.9070204562026,0.9999338185480344,0.00033500787527163416
1325.9139650528134,1325.9139650528134,1.0002692356808613,0.000334977829171525
1325.9209096494562,1325.9209096494562,1.000177732893673,0.00033490342632923656
1325.9278542461284,1325.9278542461284,1.000726259090037,0.0003349147868655834
1325.934798842835,1325.934798842835,0.9998409841553025,0.00033472370330188357
1325.9417434395684,1325.9417434395684,0.9994564809325516,0.0003346604026431472
1325.9486880363306,1325.9486880363306,0.9998495345479093,0.00033465032338376267
1325.9556326331217,1325.9556326331217,0.9992688391148293,0.0003345356256671993
1325.9634105815592,1325.9634105815592,0.9998406134224839,0.00033455490132558636
1325.970910746158,1325.970910746158,1.0005059159681249,0.0003346721154363211
1325.9778553430338,1325.9778553430338,0.9997647866547721,0.00033454106871119303
1325.9847999399383,1325.9847999399383,1.0006464929324566,0.00033470122369690607
1325.9917445368692,1325.9917445368692,1.0005790621359245,0.00033469319150592803
1325.9986891338208,1325.9986891338208,0.9998588796998418,0.00033463958502185146
1326.0056337307983,1326.0056337307983,0.9997821731981296,0.00033469698188800265
1326.0125783278022,1326.0125783278022,0.9997265374514648,0.0003347283895358408
1326.0195229248288,1326.0195229248288,0.9996867999352113,0.00033482175903105525
1326.0264675218764,1326.0264675218764,1.0000716260731703,0.00033497728046924665
1326.0334121189471,1326.0334121189471,1.000096458613459,0.0003350247581748108
1326.0403567160467,1326.0403567160467,0.9997510764054975,0.0003349387398728985
1326.0473013131555,1326.0473013131555,1.0006182361593008,0.00033503212167758866
1326.0542459102958,1326.0542459102958,0.9998003229196527,0.00033488610340309376
1326.0611905074536,1326.0611905074536,1.0001022862552753,0.0003349541416772921
1326.0681351046264,1326.0681351046264,0.9999533483685088,0.0003349474525047855
1326.0750797018247,1326.0750797018247,0.9998210010416351,0.0003349003369346813
1326.0820242990417,1326.0820242990417,1.000000953883148,0.00033493840262337356
1326.088968896278,1326.088968896278,1.0000339555776305,0.000334928340063022
1326.0959134935379,1326.0959134935379,1.0001729424598438,0.00033497285514151506
1326.1028580908066,1326.1028580908066,1.000001509726069,0.00033497036673754075
1326.1098026880952,1326.1098026880952,0.9998057852614549,0.00033489180869298663
1326.1167472854017,1326.1167472854017,1.0002798437396696,0.0003349863961470458
1326.1236918827283,1326.1236918827283,0.9996937280272556,0.00033488796893124304
1326.13063648007,1326.13063648007,0.9999116891531564,0.0003349035643415975
1326.1375810774196,1326.1375810774196,1.0001407445214747,0.00033488470371528713
1326.1445256747934,1326.1445256747934,1.0002492548767117,0.0003349005653054758
1326.151470272184,1326.151470272184,1.0001620964717008,0.00033490497286453363
1326.1584148695806,1326.1584148695806,0.9999334260606807,0.000334802770405265
1326.1653594670008,1326.1653594670008,1.0000679780145816,0.00033480260021726926
1326.172304064432,1326.172304064432,1.0003111218657552,0.00033483789576976586
1326.1792486618783,1326.1792486618783,0.9997743301590344,0.0003347248009430405
1326.1861932593333,1326.1861932593333,0.9998304839408574,0.00033470323553173517
1326.1931378568079,1326.1931378568079,0.9995829768051413,0.0003346257482290723
1326.2000824542895,1326.2000824542895,1.0005137492450853,0.0003347399126899431
1326.2070270517877,1326.2070270517877,1.0001599501549834,0.00033465735615775393
1326.2139716492954,1326.2139716492954,1.0001623313426413,0.00033462589647085975
1326.2209162468166,1326.2209162468166,0.9998616384460537,0.0003345775401508693
1326.2278608443503,1326.2278608443503,0.9999038445531541,0.0003345399288890406
1326.2348054418924,1326.2348054418924,0.9997970708324513,0.00033454772879404094
1326.2417500394517,1326.2417500394517,0.9998390722994845,0.0003345253702721785
1326.248694637012,1326.248694637012,0.9999253017267404,0.00033446485555650463
1326.2556392345828,1326.2556392345828,1.0002771885136168,0.00033454028896123236
1326.2625838321687,1326.2625838321687,1.0005675204624442,0.0003345482903932758
1326.2695284297633,1326.2695284297633,1.0001990252427193,0.00033447354038046066
1326.2764730273664,1326.2764730273664,0.9996231981421095,0.000334337363432077
1326.2834176249787,1326.2834176249787,0.9998968267707076,0.00033440259508232237
1326.2903622226022,1326.2903622226022,0.9999193002953358,0.00033432635050850197
1326.2973068202348,1326.2973068202348,0.9993770588806943,0.00033423091835404096
1326.3042514178667,1326.3042514178667,1.0004197392364973,0.00033434928302023047
1326.311196015511,1326.311196015511,0.9996663151781812,0.00033429181427025627
1326.3181406131666,1326.3181406131666,1.0002533164531682,0.00033430425866283497
1326.325085210825,1326.325085210825,0.9999805517787166,0.000334303969552629
1326.33202980849,1326.33202980849,0.9998910954945603,0.0003342851371677881
1326.3389744061656,1326.3389744061656,1.000614279410309,0.0003344032315527292
1326.346474571658,1326.346474571658,0.9997108745983422,0.00033432769286313073
1326.3556414406085,1326.3556414406085,1.000173865306603,0.00033440532083083214
1326.362586038299,1326.362586038299,0.9997743911491763,0.0003343781519477716
1326.3695306360041,1326.3695306360041,1.0009558154965121,0.0003345145315328565
1326.3764752337092,1326.3764752337092,0.9999035593449082,0.00033444526208418156
1326.3834198314144,1326.3834198314144,1.0000637704987732,0.00033447713486587044
1326.3903644291343,1326.3903644291343,0.9994033631895999,0.00033442324964260713
1326.397309026851,1326.397309026851,0.9998087719300013,0.0003344902659437025
1326.4042536245793,1326.4042536245793,1.0000466342876992,0.0003345282972636173
1326.411198222308,1326.411198222308,1.000204910256819,0.00033463549572001876
1326.4181428200393,1326.4181428200393,1.0002889247763953,0.00033463004135219244
1326.4250874177735,1326.4250874177735,1.0001342351124598,0.00033462675974194555
1326.4320320155134,1326.4320320155134,1.000107373393964,0.00033466102564968646
1326.4389766132563,1326.4389766132563,0.9998221319716618,0.00033462056080311677
1326.4459212110055,1326.4459212110055,1.000201169732893,0.0003347303903000913
1326.452865808751,1326.452865808751,0.9996417938876242,0.00033458111281153846
1326.4598104065028,1326.4598104065028,0.999169262614922,0.0003345821758626505
1326.4667550042573,1326.4667550042573,1.0004286434547927,0.00033479018531658056
1326.473699602012,1326.473699602012,1.0007536614345012,0.000334826891108478
1326.4806441997728,1326.4806441997728,0.999805200844772,0.00033475563242739214
1326.4875887975327,1326.4875887975327,1.0001090284541374,0.00033479666123673843
1326.4945333952905,1326.4945333952905,1.0000012385292056,0.00033478607504891674
1326.5014779930539,1326.5014779930539,1.0001207056994676,0.00033479200130514863
1326.5084225908201,1326.5084225908201,1.000055538754264,0.0003348394254287364
1326.5153671885832,1326.5153671885832,0.999159787459687,0.00033475019846105394
1326.5223117863468,1326.5223117863468,0.9995885767168119,0.00033478986237681606
1326.529256384116,1326.529256384116,1.000217865399338,0.00033497217171400077
1326.536200981882,1326.536200981882,1.0001936323397114,0.0003350033967589018
1326.5431455796515,1326.5431455796515,1.0004199264183775,0.0003350632119262197
1326.5500901774146,1326.5500901774146,1.0003254134179083,0.000335186663312618
1326.5570347751807,1326.5570347751807,1.0000965906623192,0.0003351661902313413
1326.5639793729501,1326.5639793729501,1.0004000988790789,0.00033517574965385776
1326.5709239707162,1326.5709239707162,0.9995269365658995,0.00033508272035222134
1326.577868568483,1326.577868568483,1.0000957286493415,0.00033511751578524986
1326.5848131662456,1326.5848131662456,0.9993655590346527,0.0003350537719675383
1326.5917577640096,1326.5917577640096,0.999915580026302,0.00033514788728881506
1326.5987023617727,1326.5987023617727,0.9997338472647158,0.0003351206428210099
1326.6056469595333,1326.6056469595333,1.0001541170164028,0.0003352274546719109
1326.6125915572936,1326.6125915572936,1.0000216572432226,0.00033519135255083324
1326.6195361550538,1326.6195361550538,1.0004597346162478,0.0003352839644938109
1326.626480752809,1326.626480752809,0.9997497450387913,0.0003351721821037165
1326.6334253505659,1326.6334253505659,1.0001208590962136,0.0003351540718152298
1326.640369948315,1326.640369948315,0.9995972058214351,0.0003350699089730393
1326.6473145460666,1326.6473145460666,1.0001603387196627,0.00033508492383008825
1326.6542591438154,1326.6542591438154,1.000292407799422,0.0003350807508952503
1326.6612037415587,1326.6612037415587,0.999578653865351,0.00033495642930867685
1326.6681483393013,1326.6681483393013,1.0009643005745867,0.00033505732516305245
1326.6750929370417,1326.6750929370417,0.9999238444719152,0.0003348933560390069
1326.6820375347786,1326.6820375347786,1.0001312689250663,0.00033483777238778204
1326.6900932681488,1326.6900932681488,0.9998434380101084,0.00033472057746006213
1326.697315649788,1326.697315649788,0.999429032396861,0.00033461467828415113
1326.7042602475135,1326.7042602475135,0.9997748951933604,0.0003346192414102237
1326.7117604130585,1326.7117604130585,0.9998942491717753,0.0003345385067972764
1326.7195383624999,1326.7195383624999,0.9995330848554028,0.00033447334393322
1326.7264829602168,1326.7264829602168,1.000928328641447,0.00033459761930971935
1326.733427557922,1326.733427557922,1.00045502543364,0.0003344581128541891
1326.7403721556273,1326.7403721556273,0.9997756583041205,0.0003342807910172054
1326.7473167533321,1326.7473167533321,0.999916349327344,0.0003343239030704079
1326.754261351034,1326.754261351034,0.9997241627304518,0.00033425240202296873
1326.7612059487278,1326.7612059487278,1.000015022861741,0.00033419977929824185
1326.7681505464154,1326.7681505464154,1.0000908297957856,0.0003341513537781406
1326.7750951441003,1326.7750951441003,0.9998771797846133,0.0003341098238098227
1326.7820397417793,1326.7820397417793,1.0001096485273564,0.00033414630033840194
1326.7889843394555,1326.7889843394555,0.9998849711718766,0.0003340903249900738
1326.7959289371254,1326.7959289371254,0.9998050010733252,0.00033408876184705204
1326.802873534787,1326.802873534787,1.0003265242412438,0.0003341134678678322
1326.8098181324453,1326.8098181324453,0.9997125224888188,0.00033405299586901295
1326.816762730098,1326.816762730098,1.0001705196525494,0.0003341084785613904
1326.823707327748,1326.823707327748,1.0002383595245803,0.00033413413054439976
1326.8306519253863,1326.8306519253863,1.0000897170515892,0.00033410955191089163
1326.8375965230248,1326.8375965230248,0.9998186814082134,0.00033402037647581995
1326.844541120651,1326.844541120651,1.0001897100504473,0.0003340626010642591
1326.8514857182836,1326.8514857182836,0.9997657572958802,0.0003339897555874209
1326.8584303158982,1326.8584303158982,0.9996864906908687,0.00033388981064267606
1326.8653749135137,1326.8653749135137,1.0001282036276478,0.00033389107146710817
1326.8723195111168,1326.8723195111168,1.0000467279290577,0.0003337746182097319
1326.879264108714,1326.879264108714,1.0000736990971566,0.00033375742172584994
1326.8862087063117,1326.8862087063117,1.0001243442774226,0.00033366002340637975
1326.8931533038972,1326.8931533038972,0.9997360572426374,0.0003335150530375399
1326.9000979014775,1326.9000979014775,1.00066926094878,0.0003334878596084125
1326.9070424990514,1326.9070424990514,1.0002738925439265,0.0003333323131859909
1326.9139870966112,1326.9139870966112,0.999485006403015,0.00033309108806725687
1326.9209316941708,1326.9209316941708,0.9995772380902286,0.0003329881009531093
1326.9278762917304,1326.9278762917304,0.9999258997765498,0.0003329183210063755
1326.934820889273,1326.934820889273,1.0002166714865337,0.0003328390918355446
1326.9417654868116,1326.9417654868116,0.9996281442254678,0.0003326358781875087
1326.9487100843394,1326.9487100843394,1.000255024179579,0.0003325823234923334
1326.9556546818642,1326.9556546818642,1.0004315654482707,0.00033253186550941973
1326.9625992793833,1326.9625992793833,0.999501708574704,0.0003322786288720861
1326.9695438768904,1326.9695438768904,0.9999038390655439,0.0003322675035054172
1326.9764884743856,1326.9764884743856,1.0004649656402536,0.0003322469764911539
1326.9834330718877,1326.9834330718877,1.0001870578179812,0.00033208803521490025
1326.9903776693654,1326.9903776693654,1.0000648953980058,0.0003320522967490827
1326.9973222668439,1326.9973222668439,0.999540925313573,0.0003319146095017645
1327.0042668643132,1327.0042668643132,1.0001373597957735,0.0003320095989032351
1327.0112114617737,1327.0112114617737,1.0000101007767135,0.0003319603809863632
1327.0181560592227,1327.0181560592227,1.0000577094867795,0.00033191577699973366
1327.0251006566687,1327.0251006566687,0.9999582387327418,0.0003318959442625145
1327.0320452541034,1327.0320452541034,0.9998213601035042,0.0003318869391617646
1327.0389898515346,1327.0389898515346,0.9999705136679216,0.0003318577953928066
1327.0459344489493,1327.0459344489493,1.0000157860009953,0.00033187541954353194
1327.052879046363,1327.052879046363,0.9993974447555145,0.00033179345877023777
1327.0606569954496,1327.0606569954496,1.000473542699081,0.0003319078698573786
