time,time,flux,flux_err
1325.2981800563068,1325.2981800563068,1.0003544327105451,0.00031292050094333093
1325.3065134126766,1325.3065134126766,0.9998701317568268,0.00031299079447992117
1325.314846769338,1325.314846769338,0.999568036609014,0.0003130082974215197
1325.323180126309,1325.323180126309,1.000133190328613,0.00031319128769715586
1325.330819037155,1325.330819037155,0.999874798474023,0.0002859483413597908
1325.3377635017596,1325.3377635017596,1.0001535281726146,0.00028612343278341436
1325.344707966574,1325.344707966574,0.9998886915175138,0.0002861690313793646
1325.3516524315976,1325.3516524315976,0.9997292969195843,0.00028628783346565747
1325.3585968968307,1325.3585968968307,1.000110232017984,0.00028646591254590946
1325.365541362274,1325.365541362274,1.0001618279853224,0.00028658147663574823
1325.3724858279024,1325.3724858279024,1.0001616701740326,0.0002867024383215721
1325.3794302937413,1325.3794302937413,1.0002121560200685,0.00028681538833454903
1325.386374759766,1325.386374759766,0.9999459629659141,0.0002869647675938164
1325.393319225977,1325.393319225977,0.999962817498077,0.00028707999540247473
1325.4002636923979,1325.4002636923979,1.0003107055699565,0.0002872224592360092
1325.4072081589813,1325.4072081589813,0.9996663462525808,0.00028723540723878306
1325.414152625798,1325.414152625798,0.9997751765005441,0.00028739650553344576
1325.4210970927538,1325.4210970927538,1.000212755303649,0.00028752390269991864
1325.4280415598964,1325.4280415598964,1.000074562270323,0.0002876382560287907
1325.4349860272252,1325.4349860272252,0.9997317406765914,0.0002876929820691275
1325.4419304947169,1325.4419304947169,0.9995570708832566,0.00028775504235431244
1325.448874962418,1325.448874962418,1.000283211437098,0.0002879237121768811
1325.455819430259,1325.455819430259,1.0000163619576992,0.00028796260647998326
1325.4627638983325,1325.4627638983325,0.9999740916672929,0.0002880578269327886
1325.4697083664996,1325.4697083664996,1.0001309858216154,0.0002881498987942422
1325.4766528348994,1325.4766528348994,1.0005984140025408,0.0002883158261594146
1325.4835973034155,1325.4835973034155,0.999887535638899,0.0002883492399954667
1325.490541772118,1325.490541772118,0.9998400484192509,0.0002884436129009
1325.4974862410065,1325.4974862410065,0.9995838031340284,0.00028849618639821225
1325.5044307100118,1325.5044307100118,0.9999716939917365,0.0002887082277627118
1325.5113751792496,1325.5113751792496,1.000387022470416,0.00028883558563767636
1325.5183196485573,1325.5183196485573,0.9994742744539336,0.0002888860812273391
1325.525264118028,1325.525264118028,1.0002288691486503,0.00028907427424433395
1325.5322085877083,1325.5322085877083,0.9999776787878533,0.0002891520286519904
1325.5391530575514,1325.5391530575514,0.9996664596736817,0.00028923842199837633
1325.546097527465,1325.546097527465,1.0005745551142973,0.000289437054411241
1325.5530419975407,1325.5530419975407,1.000096912417885,0.0002894680628346679
1325.5599864678031,1325.5599864678031,0.9996700322997547,0.000289555922185648
1325.5669309381822,1325.5669309381822,0.999998140707343,0.00028971217887139905
1325.573875408747,1325.573875408747,0.9999657559623835,0.00028977688434598186
1325.5808198794052,1325.5808198794052,1.0002841102806332,0.00028992311067022904
1325.5877643502492,1325.5877643502492,1.0000166788274214,0.0002899770694399906
1325.594708821164,1325.594708821164,1.0001311549613912,0.0002900317951332329
1325.6016532922877,1325.6016532922877,0.9998603140697462,0.0002900896882084853
1325.608597763528,1325.608597763528,1.0001996813526215,0.0002901639644634376
1325.6155422348613,1325.6155422348613,1.0000629732084558,0.00029018423985647683
1325.622486706358,1325.622486706358,0.9996676418373875,0.0002901549150200772
1325.6294311779707,1325.6294311779707,0.9997760965406233,0.0002901924185806501
1325.636375649723,1325.636375649723,1.0001123188522556,0.00029026435618663415
1325.643320121615,1325.643320121615,0.9997393259840989,0.00029022577797449767
1325.650264593624,1325.650264593624,1.0003785013855646,0.0002903120480485165
1325.657209065772,1325.657209065772,1.000048470571763,0.00029026364272474487
1325.6641535379902,1325.6641535379902,1.0000657202051404,0.0002902877701930081
1325.6710980103712,1325.6710980103712,1.0001029750241177,0.00029026100839176335
1325.678042482869,1325.678042482869,1.0001870862619322,0.000290307109070436
1325.684986955483,1325.684986955483,0.9997692948564127,0.0002903040275696963
1325.6919314281665,1325.6919314281665,0.9996075540262581,0.0002902725049800008
1325.6988759010371,1325.6988759010371,0.9999685806987415,0.00029035891794981414
1325.705820374,1325.705820374,1.0003740414382871,0.0002904599908021509
1325.7127648470564,1325.7127648470564,0.9997896531726778,0.0002904418862553514
1325.7197093202522,1325.7197093202522,0.9999575853730256,0.0002905186165463629
1325.7266537935416,1325.7266537935416,1.0002972150353817,0.0002906599005689446
1325.7335982669235,1325.7335982669235,1.0001822586418787,0.0002906551448028124
1325.7405427404456,1325.7405427404456,1.0000897973587208,0.0002907178886735905
1325.7474872140606,1325.7474872140606,1.0000098482400446,0.00029082369227358715
1325.754431687769,1325.754431687769,0.9996766496790809,0.000290825378099946
1325.7613761616171,1325.7613761616171,0.9992920137262061,0.0002908765165017457
1325.7683206355582,1325.7683206355582,1.0001222607412958,0.00029105170515548854
1325.7752651095457,1325.7752651095457,1.0003058978310073,0.0002911784888078299
1325.7822095836732,1325.7822095836732,1.0003095521565137,0.0002912005696820819
1325.7891540578937,1325.7891540578937,0.999959065391512,0.00029122854468172354
1325.7960985322072,1325.7960985322072,0.9999583022893901,0.00029130794783694834
1325.8030430066608,1325.8030430066608,0.9998459068644546,0.0002913466803300371
1325.8099874811837,1325.8099874811837,1.0001333147822504,0.00029145001156786826
1325.8169319557535,1325.8169319557535,1.000553596858163,0.00029152636568947774
1325.8238764304629,1325.8238764304629,0.9996503846951083,0.00029147133178418695
1325.8308209052423,1325.8308209052423,0.9998908907808417,0.00029154483406701324
1325.837765380138,1325.837765380138,1.0001309684218587,0.0002915832590069073
1325.8447098551035,1325.8447098551035,0.9999432999139243,0.00029158006711313075
1325.8516543301853,1325.8516543301853,0.9997665793032526,0.0002915253727291346
1325.8585988053371,1325.8585988053371,0.999805669611088,0.00029151106736080297
1325.865543280559,1325.865543280559,0.9997030694627739,0.00029144676781294105
1325.8724877558968,1325.8724877558968,1.0002579014083643,0.00029143377218003623
1325.879432231305,1325.879432231305,1.000508061449274,0.0002914063423337166
1325.886376706806,1325.886376706806,0.999949467282337,0.00029129081655913914
1325.8933211823537,1325.8933211823537,0.9998537690956686,0.00029124005077304106
1325.9002656580176,1325.9002656580176,1.0002195412585988,0.00029123606731755604
1325.9072101337747,1325.9072101337747,0.9995334654662507,0.00029112667242102436
1325.9141546095784,1325.9141546095784,1.000202795634703,0.00029111620077655164
1325.9210990854754,1325.9210990854754,0.9998059357481776,0.00029110011747696433
1325.9280435614655,1325.9280435614655,1.000223929333859,0.0002910793120510541
1325.9349880375253,1325.9349880375253,0.9998050307205967,0.00029100009866540817
1325.9419325136546,1325.9419325136546,1.0003665194571867,0.0002910394379524864
1325.9488769898082,1325.9488769898082,0.9998855224797595,0.0002909867760654813
1325.955821466124,1325.955821466124,0.9999654662715013,0.00029097742774860725
1325.963877058713,1325.963877058713,0.9997810172688055,0.00029097792265745704
1325.9710993141962,1325.9710993141962,1.0001470894277202,0.0002909724434961013
1325.9780437906982,1325.9780437906982,0.9999591338121541,0.0002910165195365056
1325.9849882672936,1325.9849882672936,1.000007419485455,0.00029100977211184403
1325.9919327439352,1325.9919327439352,1.0001885129355974,0.0002910667419669205
1325.9988772206707,1325.9988772206707,1.0003610153850917,0.0002911187965923149
1326.005821697429,1326.005821697429,0.9996264229868977,0.00029110491779338934
1326.0127661742804,1326.0127661742804,0.999471987605871,0.0002911541778884704
1326.0197106512485,1326.0197106512485,1.0003236576956693,0.0002913226690260565
1326.0266551282396,1326.0266551282396,0.9999516306562819,0.0002913692828346099
1326.0335996053004,1326.0335996053004,1.0003075550082028,0.0002914216409960153
1326.0405440824077,1326.0405440824077,1.000066882028252,0.0002913830624470167
1326.0474885595856,1326.0474885595856,0.9999438221169366,0.0002913725046380546
1326.0544330368557,1326.0544330368557,1.0000908237016373,0.00029141070175691514
1326.06137751415,1326.06137751415,0.999681540614976,0.0002913911942815388
1326.0683219915368,1326.0683219915368,0.9996636609478944,0.0002913910987058029
1326.0752664689703,1326.0752664689703,0.9999453947107982,0.00029145146590171193
1326.0822109464507,1326.0822109464507,1.0001020927706077,0.00029146697869975583
1326.0891554240238,1326.0891554240238,0.999947069734554,0.000291528894995317
1326.0960999016206,1326.0960999016206,1.0006643850970582,0.000291608319515968
1326.1030443793104,1326.1030443793104,1.0005641409285004,0.00029158819528891374
1326.1099888570461,1326.1099888570461,0.9996126500726771,0.0002914980818205929
1326.1169333348057,1326.1169333348057,0.9997369207990257,0.0002915382758418516
1326.1238778126583,1326.1238778126583,1.000297671880435,0.00029155684095572194
1326.130822290558,1326.130822290558,0.9994269530187418,0.00029150208679203636
1326.1377667685497,1326.1377667685497,0.9997288114143842,0.0002915345503086155
1326.144711246566,1326.144711246566,1.0001738912439346,0.0002916088889306969
1326.1516557245814,1326.1516557245814,1.0000696488860361,0.0002915998057146974
1326.15860020269,1326.15860020269,1.0003463065879366,0.00029165750254664705
1326.1655446808688,1326.1655446808688,0.9999741741106792,0.00029162208951491345
1326.1724891590704,1326.1724891590704,0.999637824839156,0.0002915788461892007
1326.1794336373657,1326.1794336373657,1.0000313760873745,0.0002916249218741522
1326.186378115684,1326.186378115684,1.0001596065692504,0.0002916252958719999
1326.1933225940254,1326.1933225940254,0.9998722851406656,0.0002916036375885648
1326.2002670724837,1326.2002670724837,1.0000267964423206,0.00029160247105672533
1326.2072115509416,1326.2072115509416,1.000264626542812,0.00029165510651551227
1326.2141560294695,1326.2141560294695,0.9999661184292868,0.0002915954065074296
1326.2211005079973,1326.2211005079973,1.0000328926071718,0.0002916225447874356
1326.2280449866182,1326.2280449866182,0.9996699288533664,0.0002915986016244623
1326.234989465309,1326.234989465309,0.9999887010709967,0.00029160065669924277
1326.2419339439996,1326.2419339439996,1.000434121250937,0.0002917015932365376
1326.2488784227842,1326.2488784227842,0.9996778585965366,0.00029159752885208067
1326.2558229015679,1326.2558229015679,1.000258085031189,0.0002916679139692741
1326.2627673804218,1326.2627673804218,0.9999985318500648,0.00029167443257571094
1326.2697118593223,1326.2697118593223,0.9995466901653094,0.00029162952166188167
1326.2766563382459,1326.2766563382459,1.0001060158596693,0.00029165381946763926
1326.2836008172162,1326.2836008172162,1.0003479796293449,0.0002917209353582238
1326.2905452962327,1326.2905452962327,1.0002772122639298,0.0002917080091636518
1326.2974897752963,1326.2974897752963,0.9999152170629462,0.00029166009659700395
1326.3044342544292,1326.3044342544292,1.0000876189873957,0.00029173027236848055
1326.3113787336092,1326.3113787336092,0.9999920421618471,0.0002917268624094497
1326.318323212789,1326.318323212789,0.9997194559565058,0.000291717020253107
1326.3252676919687,1326.3252676919687,1.0000726602543826,0.00029178483984204986
1326.3322121712417,1326.3322121712417,1.0000808964839927,0.00029182437980752326
1326.339156650538,1326.339156650538,0.99980283100845,0.00029185879747986907
1326.3472122465962,1326.3472122465962,1.0000113612979482,0.00029194535970835387
1326.3558234010582,1326.3558234010582,0.9998280871572878,0.0002919685160912632
1326.3627678804944,1326.3627678804944,1.000409985613865,0.0002920947894997415
1326.3697123599766,1326.3697123599766,1.0003297741467592,0.0002921382376589267
1326.3766568395058,1326.3766568395058,1.000136302864811,0.00029220447122374883
1326.383601319058,1326.383601319058,0.9999550442452794,0.00029221162208382587
1326.3905457986334,1326.3905457986334,0.9996672658296397,0.0002922667186095129
1326.3974902782793,1326.3974902782793,0.9997866707661641,0.0002923230044893978
1326.4044347579243,1326.4044347579243,1.000313355115317,0.0002924198319589942
1326.4113792376404,1326.4113792376404,0.9993490305168471,0.00029237700096797523
1326.4183237174016,1326.4183237174016,0.9997319212696001,0.0002925134332356207
1326.4252681971636,1326.4252681971636,0.9999434759940776,0.0002925431003932491
1326.4322126769252,1326.4322126769252,1.0001057092699617,0.0002926659660995578
1326.4391571567805,1326.4391571567805,1.0003983116549664,0.00029276210122498446
1326.4461016366588,1326.4461016366588,1.0001660499984202,0.00029273095657309086
1326.4530461165602,1326.4530461165602,0.999726659005504,0.0002927767797712167
1326.4599905964853,1326.4599905964853,1.000268016094563,0.0002929095163692731
1326.4669350764798,1326.4669350764798,0.9997451192087574,0.0002928434370306096
1326.473879556451,1326.473879556451,0.9997463375498222,0.0002929361185125195
1326.480824036516,1326.480824036516,0.9995599782948048,0.00029292218112414827
1326.487768516557,1326.487768516557,1.0007415056336089,0.00029312716972514373
1326.4947129966683,1326.4947129966683,0.9999300441151828,0.00029308626845257367
1326.5016574768022,1326.5016574768022,0.9998561807245837,0.0002931637486366905
1326.5086019569371,1326.5086019569371,0.9995203173549816,0.0002931744190973766
1326.5155464371412,1326.5155464371412,1.000850889919921,0.00029335201637985654
1326.522490917369,1326.522490917369,1.0000202587853235,0.0002933056501741322
1326.5294353976196,1326.5294353976196,1.0000225394810092,0.0002934238232432254
1326.5363798778933,1326.5363798778933,0.9997511090008221,0.00029343162982768467
1326.543324358238,1326.543324358238,1.0000507552381077,0.0002935733616072454
1326.5502688385816,1326.5502688385816,0.9997811718139868,0.00029362956110657543
1326.5572133189257,1326.5572133189257,1.000169871481461,0.00029369175910314265
1326.5641577992694,1326.5641577992694,0.9996973552746345,0.00029367737008698184
1326.5711022797298,1326.5711022797298,1.000035762304168,0.0002937743119829959
1326.5780467601671,1326.5780467601671,0.9999698355800908,0.0002937716735723566
1326.584991240627,1326.584991240627,1.0000303363956171,0.0002938661767896251
1326.5919357211344,1326.5919357211344,1.0003895535491611,0.0002939192495151956
1326.5988802016411,1326.5988802016411,0.9998564493547863,0.00029388502465979566
1326.6058246822179,1326.6058246822179,0.9999466425224692,0.0002939103933839123
1326.6127691627948,1326.6127691627948,0.9998057962220486,0.0002939471538941914
1326.6197136433943,1326.6197136433943,1.0001726046304182,0.0002940243129136727
1326.6266581240181,1326.6266581240181,0.9998285637666751,0.0002939911901415178
1326.6336026046877,1326.6336026046877,1.0002457776560807,0.0002940418872519731
1326.6405470853813,1326.6405470853813,0.9998618960887018,0.00029404212466916356
1326.6474915660745,1326.6474915660745,1.0006841063780636,0.0002941237928575157
1326.6544360468142,1326.6544360468142,0.9994612201084839,0.0002939407807926695
1326.6613805275772,1326.6613805275772,0.9997055405995109,0.00029395648394707144
1326.66832500834,1326.66832500834,1.0001224127093846,0.00029399068555603387
1326.67526948915,1326.67526948915,1.0000304594343237,0.00029391552115707074
1326.6822139700057,1326.6822139700057,1.0003643105062412,0.0002939325489014685
1326.6905473470008,1326.6905473470008,0.9996514994957455,0.00029380043336497394
1326.6974918279268,1326.6974918279268,1.00008970553334,0.0002937916675521577
1326.7044363087364,1326.7044363087364,1.0000585112446505,0.0002937354998480206
1326.7122141273735,1326.7122141273735,0.9999424296765156,0.0002936705136835376
1326.7197141668905,1326.7197141668905,0.9995698059225102,0.0002936010155664464
1326.7266586478158,1326.7266586478158,1.0003321494232476,0.0002936850237087013
1326.7336031288119,1326.7336031288119,1.0000660793927298,0.0002935487177025572
1326.7405476098315,1326.7405476098315,1.0001164619362812,0.0002935426302283854
1326.7474920908735,1326.7474920908735,0.999739213998468,0.0002934940670184211
1326.754436571916,1326.754436571916,1.0003549245878443,0.0002935178594205988
1326.7613810529815,1326.7613810529815,1.0003108052464267,0.00029350270185044
1326.7683255341174,1326.7683255341174,0.9993963870253323,0.00029342145583803446
1326.7752700152294,1326.7752700152294,1.0000573622313045,0.00029346960054046727
1326.7822144963652,1326.7822144963652,0.999820489211902,0.0002934712542556956
1326.789158977524,1326.789158977524,1.0000793883765102,0.00029349906050237076
1326.7961034586829,1326.7961034586829,1.0000989476141757,0.0002934946750569684
1326.8030479398888,1326.8030479398888,0.9999463551451496,0.0002935351478761237
1326.809992421117,1326.809992421117,0.9999081794363667,0.00029353942053860816
1326.8169369023458,1326.8169369023458,1.0000942656604734,0.0002935720099992331
1326.8238813835974,1326.8238813835974,1.0004089348885086,0.00029363263586740354
1326.8308258648963,1326.8308258648963,0.9994922673580767,0.00029354344246102583
1326.8377703461715,1326.8377703461715,1.000675179922104,0.0002936767878700177
1326.84471482747,1326.84471482747,0.9996802470299088,0.0002935651916125353
1326.8516593088384,1326.8516593088384,1.0001148737160672,0.0002936297537466018
1326.85860379016,1326.85860379016,0.9995688411117374,0.0002935547531601253
1326.865548271529,1326.865548271529,1.00002966139419,0.00029359043640816437
1326.8724927529206,1326.8724927529206,0.9998257166369646,0.0002934784537155648
1326.879437234312,1326.879437234312,1.0007685399903088,0.00029352234601931823
1326.8863817157503,1326.8863817157503,0.9998807420995979,0.0002933604798939673
1326.893326197165,1326.893326197165,0.9996677706668038,0.0002932595443089278
1326.9002706786505,1326.9002706786505,0.9997929466250502,0.0002931724340366341
1326.9072151600883,1326.9072151600883,1.0001304211723852,0.00029309970007681695
1326.9141596415498,1326.9141596415498,0.9999146748063434,0.00029298506602960144
1326.921104123058,1326.921104123058,0.9996875661091771,0.0002928342586992914
1326.9280486045661,1326.9280486045661,1.0001974746136493,0.00029281687151249
1326.9349930861674,1326.9349930861674,1.0000941689069733,0.0002926455099386869
1326.9419375676985,1326.9419375676985,1.0001573142914417,0.0002925793414682335
1326.9488820492536,1326.9488820492536,1.0001801794401355,0.00029254254350361355
1326.955826530831,1326.955826530831,1.0000838105003333,0.00029243863412621156
1326.9627710124562,1326.9627710124562,0.9998267934053062,0.00029229941721828606
1326.9697154940573,1326.9697154940573,1.0001351846796434,0.0002922995242424461
1326.9766599756815,1326.9766599756815,0.9997750433844036,0.00029221800048637533
1326.9836044573062,1326.9836044573062,1.0000795813718595,0.0002921811524489328
1326.9905489389773,1326.9905489389773,0.9997579118803046,0.00029211562220578203
1326.9974934206482,1326.9974934206482,1.00039143327402,0.00029211865528254606
1327.0044379023427,1327.0044379023427,0.9994385252059168,0.0002920500507723121
1327.011382384037,1327.011382384037,0.999884785103173,0.0002921041144102703
1327.0183268657547,1327.0183268657547,1.0003673087955405,0.00029216430057887714
1327.0252713474724,1327.0252713474724,0.9998816868315051,0.0002921018363091255
1327.0322158292367,1327.0322158292367,1.000773757818008,0.0002922287356099256
1327.0391603110006,1327.0391603110006,0.9998823543215003,0.0002920986422012917
1327.0461047927417,1327.0461047927417,1.0000606140452801,0.00029214678557265203
1327.053049274529,1327.053049274529,0.9997588161330466,0.0002921371397340646
1327.0611048734281,1327.0611048734281,0.9998257285073479,0.0002922221129916946
1327.068327134499,1327.068327134499,0.9998307380166931,0.00029224424707376454
