time,time,flux,flux_err
1354.115897803188,1354.115897803188,0.9993008015983339,0.0017327878162590696
1354.124694308524,1354.124694308524,1.001078627122652,0.0017333816199790637
1354.1330278399316,1354.1330278399316,1.0003871930865165,0.0017325426920340315
1354.140666910383,1354.140666910383,1.0014816015192018,0.0015815471098395788
1354.147611519948,1354.147611519948,1.000500176508511,0.0015811395715749066
1354.1545561295125,1354.1545561295125,0.9986670867099792,0.0015806665575499596
1354.1615007391003,1354.1615007391003,0.9973975676690621,0.0015795190122524008
1354.1684453486882,1354.1684453486882,0.9978770446730595,0.001579635142897238
1354.1753899582995,1354.1753899582995,1.000526299893171,0.001579705484369222
1354.1823345679345,1354.1823345679345,1.0002873627719095,0.0015801640626134828
1354.1892791775688,1354.1892791775688,1.0015559660317102,0.0015798327092746527
1354.1962237872035,1354.1962237872035,1.0007427797741015,0.0015793129754620287
1354.2031683968846,1354.2031683968846,1.0012238718510604,0.0015793670452051278
1354.2101130065655,1354.2101130065655,0.9994850335182661,0.00157805379578622
1354.2170576162466,1354.2170576162466,1.0005693315799573,0.0015766706359950484
1354.2240022259512,1354.2240022259512,0.9983321627490049,0.0015753999815412312
1354.2309468356323,1354.2309468356323,0.9988712168033708,0.001575276226804637
1354.2378914453368,1354.2378914453368,0.9997856122752848,0.0015752088977681942
1354.2448360550643,1354.2448360550643,0.999329061878061,0.0015752874436037313
1354.251780664792,1354.251780664792,0.9998197146704083,0.0015746586764354988
1354.2587252744966,1354.2587252744966,1.002266233852377,0.0015752567962088564
1354.2656698842707,1354.2656698842707,1.0003858214171715,0.0015744295624717814
1354.2726144939516,1354.2726144939516,1.0015844383239791,0.0015739199545490065
1354.2795591037493,1354.2795591037493,0.9969478901138247,0.0015716189824173776
1354.2865037134302,1354.2865037134302,1.0021742028885314,0.001573542473684905
1354.2934483232277,1354.2934483232277,0.9979280919009484,0.0015721139620799881
1354.3003929329323,1354.3003929329323,0.998383514582415,0.0015724468377271265
1354.3073375427064,1354.3073375427064,1.0005775443678746,0.0015734062166191357
1354.3142821524111,1354.3142821524111,1.0036219879865382,0.001574205688079948
1354.3212267621852,1354.3212267621852,1.001476804484406,0.001573173116066004
1354.3281713718893,1354.3281713718893,0.9982328587358748,0.001572072755400273
1354.3351159816639,1354.3351159816639,0.9993425266463609,0.0015723148580198934
1354.3420605913682,1354.3420605913682,0.9977885666477849,0.0015713821260911098
1354.349005201119,1354.349005201119,0.9974038462594109,0.0015711415317455513
1354.3559498108236,1354.3559498108236,1.0018557297500945,0.0015728293135523794
1354.3628944205514,1354.3628944205514,1.0021524781092492,0.0015729021679741274
1354.369839030279,1354.369839030279,1.0013528953744193,0.0015727424946880761
1354.3767836399834,1354.3767836399834,1.0006670091543977,0.0015724416466798205
1354.3837282496643,1354.3837282496643,0.9997146270579306,0.0015719014452571188
1354.3906728593688,1354.3906728593688,0.9982322315864394,0.0015713286876009695
1354.39761746905,1354.39761746905,0.9993787519433598,0.001571406432310659
1354.404562078731,1354.404562078731,0.9983868888618861,0.001570504501132447
1354.4115066884124,1354.4115066884124,0.9999299548036891,0.0015712966987742108
1354.4184512980466,1354.4184512980466,1.0005127458270746,0.0015719348270139578
1354.4253959077046,1354.4253959077046,1.0016194885742866,0.001572602080410538
1354.4323405173388,1354.4323405173388,1.0022323158537723,0.0015734294214696724
1354.4392851269502,1354.4392851269502,0.9997034974635449,0.001572369109396882
1354.4462297365617,1354.4462297365617,1.0006211912572984,0.001573048325705821
1354.453174346173,1354.453174346173,0.9981081647842387,0.0015724286647989868
1354.460118955761,1354.460118955761,0.9999968209429948,0.0015739659144402816
1354.4670635653256,1354.4670635653256,0.9999266587538352,0.0015742772251293776
1354.47400817489,1354.47400817489,1.000451125373742,0.00157512907625516
1354.480952784432,1354.480952784432,0.9977118718581931,0.0015747648340115872
1354.487897393973,1354.487897393973,1.0015888007147746,0.0015769233783052463
1354.4948420034912,1354.4948420034912,0.9974827365193676,0.0015751146012168127
1354.5017866129863,1354.5017866129863,1.001473160169632,0.0015775164599483482
1354.5087312224575,1354.5087312224575,0.9997072797505082,0.001577014216466045
1354.5156758319292,1354.5156758319292,1.0029522503691386,0.0015793067025883325
1354.5226204413777,1354.5226204413777,0.9987896293821761,0.0015781934462448517
1354.5295650508024,1354.5295650508024,1.0006736652289752,0.0015791401660699748
1354.5365096602045,1354.5365096602045,1.0001480947685635,0.0015806146695254628
1354.5434542696062,1354.5434542696062,1.0008672358744986,0.0015810583609221715
1354.5503988790076,1354.5503988790076,0.9997855135381595,0.001580487060174915
1354.5573434883631,1354.5573434883631,0.9982455002035711,0.0015802121853496242
1354.5642880976945,1354.5642880976945,0.9984897338149594,0.0015808380828377755
1354.5712327070034,1354.5712327070034,0.9979500757182252,0.0015803997999930327
1354.578177316312,1354.578177316312,1.0014176089799363,0.0015817773965918955
1354.5851219255742,1354.5851219255742,1.0016970163539112,0.0015822412388844568
1354.5920665348594,1354.5920665348594,1.000009776694203,0.001581386713279917
1354.5990111440747,1354.5990111440747,1.000120869729916,0.0015812471180204606
1354.60595575329,1354.60595575329,1.001159566079775,0.001581908593607405
1354.6129003625058,1354.6129003625058,1.0002945555587561,0.0015805163349452002
1354.6198449716278,1354.6198449716278,0.9995332293210717,0.0015798016866066047
1354.6267895807969,1354.6267895807969,0.9985823757158103,0.0015784701130455076
1354.6337341899193,1354.6337341899193,1.000471851887152,0.0015782821197457021
1354.640678799018,1354.640678799018,0.9977544684855909,0.0015770526067366273
1354.6476234080706,1354.6476234080706,0.9996755408003682,0.0015770763064028265
1354.6545680171464,1354.6545680171464,1.0008293674974387,0.0015767595863477653
1354.6615126261527,1354.6615126261527,1.0000597481646056,0.0015757389801970962
1354.668457235182,1354.668457235182,1.0007846213344147,0.0015748732021249813
1354.6754018441409,1354.6754018441409,1.0016706958892583,0.0015746127382189345
1354.6823464531235,1354.6823464531235,1.0015452116700196,0.0015737975360664038
1354.6892910620363,1354.6892910620363,0.9991999356769685,0.0015724456555938776
1354.6962356709257,1354.6962356709257,0.9974212428131288,0.0015713801113323787
1354.7031802798153,1354.7031802798153,0.9973054185350797,0.0015704593762715757
1354.7101248886584,1354.7101248886584,1.0036239967120852,0.001572814967241523
1354.717069497478,1354.717069497478,1.001017104696166,0.001571432611368388
1354.7240141062746,1354.7240141062746,0.9988467002181436,0.0015699432321217809
1354.7309587150476,1354.7309587150476,1.0005913565941664,0.0015700812259923612
1354.7379033237742,1354.7379033237742,1.000006168948046,0.0015704596183742918
1354.7448479324771,1354.7448479324771,1.0003044537954235,0.0015689336026410334
1354.7517925412037,1354.7517925412037,0.9988002280447198,0.0015681345203402038
1354.7587371498605,1354.7587371498605,1.0013694211549489,0.0015689780422280027
1354.7656817584939,1354.7656817584939,0.997913929150527,0.0015676202793953118
1354.7726263670806,1354.7726263670806,1.0002090986505179,0.0015682378907082885
1354.779570975644,1354.779570975644,1.0014006794342922,0.0015692845732044255
1354.7865155841841,1354.7865155841841,0.9992695642129716,0.001567309988599418
1354.7934601927013,1354.7934601927013,1.0006042306925247,0.0015679416710610821
1354.800404801172,1354.800404801172,0.9992134362305889,0.0015675094906180895
1354.8073494096423,1354.8073494096423,1.0016473199197589,0.0015683340268676988
1354.8142940180662,1354.8142940180662,0.9984986015232005,0.0015674457506042118
1354.8212386264663,1354.8212386264663,1.0004672860339137,0.0015678963190759194
1354.8281832348205,1354.8281832348205,1.0007177144936243,0.001567944898653482
1354.8351278431746,1354.8351278431746,0.9992662952333321,0.001567717177135794
1354.8420724514585,1354.8420724514585,1.0004472817180048,0.0015679296788874753
1354.8490170597197,1354.8490170597197,0.9995726371363739,0.0015672420999155012
1354.8559616679802,1354.8559616679802,0.9997185587643808,0.0015679225640280615
1354.8629062761715,1354.8629062761715,1.000349864133792,0.001567605238082007
1354.869850884363,1354.869850884363,0.9988880381611323,0.0015674787305939377
1354.876795492507,1354.876795492507,1.0007627399105912,0.0015680567326863738
1354.8837401006047,1354.8837401006047,0.9996011134820202,0.0015676609710319155
1354.890684708656,1354.890684708656,0.9994657864933529,0.0015676385674804228
1354.8976293167075,1354.8976293167075,1.001109108689812,0.0015682180450078992
1354.9045739247588,1354.9045739247588,0.999821967203666,0.00156856208902416
1354.9115185327635,1354.9115185327635,0.9975897039403676,0.001567924737383502
1354.9184631407213,1354.9184631407213,1.0021485875322107,0.0015696873033816342
1354.9254077486332,1354.9254077486332,1.002045096099229,0.001569781470680015
1354.9326301408205,1354.9326301408205,1.0006447164982217,0.0015697500391022138
1354.940685885927,1354.940685885927,1.0011289844257738,0.0015708567578979905
1354.947630493769,1354.947630493769,0.9983067360064425,0.001570258280461282
1354.954575101541,1354.954575101541,0.9970777016144916,0.0015697072451834348
1354.9615197092892,1354.9615197092892,1.0014815491742903,0.0015723350413241715
1354.9684643169917,1354.9684643169917,0.9979572754321472,0.0015714109206592202
1354.97540892467,1354.97540892467,0.9999874392671952,0.0015719952374734023
1354.982353532326,1354.982353532326,1.0008451657797484,0.0015733807362262743
1354.9892981399348,1354.9892981399348,1.0012527449387054,0.0015737316380845666
1354.9962427475202,1354.9962427475202,0.999314220813214,0.0015738038503978042
1355.0031873550597,1355.0031873550597,0.999825247932035,0.0015742820964031478
1355.0101319625987,1355.0101319625987,1.0006455949067365,0.0015748281955969806
1355.0170765700677,1355.0170765700677,1.0018261261665717,0.0015760273372841214
1355.0240211774903,1355.0240211774903,1.0007921130752309,0.0015757473484806009
1355.0309657848898,1355.0309657848898,0.9997013399495716,0.0015760759062699778
1355.037910392266,1355.037910392266,0.9981008228447369,0.0015761608929840553
1355.0448549995956,1355.0448549995956,1.000209984372945,0.0015773742889670442
1355.0517996069018,1355.0517996069018,0.9993721239261142,0.0015775345098235655
1355.0587442141616,1355.0587442141616,0.9988219762641201,0.001577888153539692
1355.065688821398,1355.065688821398,0.9999055300953996,0.001577905596964776
1355.0726334285641,1355.0726334285641,1.0007317721966558,0.0015778953523443568
1355.0795780357544,1355.0795780357544,0.9992858869722687,0.0015781653412117239
1355.086522642851,1355.086522642851,1.0000702896960805,0.001577576194032649
1355.0934672499477,1355.0934672499477,0.9986567380715112,0.0015763752047196853
1355.1004118569979,1355.1004118569979,0.9981336257738139,0.0015765104131441146
1355.1073564640244,1355.1073564640244,1.0004779976540359,0.0015769280788317634
1355.114301071005,1355.114301071005,1.0009863463577209,0.0015769513310590357
1355.1212456779153,1355.1212456779153,0.9998302867658383,0.0015757519172961982
1355.1281902848027,1355.1281902848027,0.9985443561209699,0.0015749446181600444
1355.13513489169,1355.13513489169,0.9999421398552546,0.001575014321694301
1355.1420794985536,1355.1420794985536,0.9985275417158939,0.0015747032545162403
1355.149024105348,1355.149024105348,1.0018411776904597,0.0015748455521648215
1355.155968712095,1355.155968712095,1.0003730115649132,0.0015735930936645489
1355.1629133188194,1355.1629133188194,0.9994792932038692,0.0015720378237984553
1355.1698579254974,1355.1698579254974,0.9994045212350207,0.0015720615982770408
1355.1768025321746,1355.1768025321746,1.000354845672406,0.001572144180348682
1355.183747138759,1355.183747138759,0.999811395473469,0.0015712623876944797
1355.1906917453673,1355.1906917453673,0.9997253413406518,0.001570208084004
1355.1976363518818,1355.1976363518818,1.0020894143058907,0.0015697757111173927
1355.2045809583965,1355.2045809583965,0.9980968079906125,0.0015685905261101367
1355.211525564841,1355.211525564841,1.000713991505163,0.0015686975830440223
1355.2184701712856,1355.2184701712856,0.9996803267441786,0.0015687203638556362
1355.2254147776607,1355.2254147776607,1.0002018516754096,0.0015679505271035455
1355.2323593840358,1355.2323593840358,0.997909597730254,0.0015659467191868632
1355.2393039903409,1355.2393039903409,1.0001197980890162,0.0015666901184464416
1355.2462485966457,1355.2462485966457,1.0031453751849395,0.0015673464811798495
1355.2531932028346,1355.2531932028346,0.9998782240708289,0.0015661982166723907
1355.2601378090467,1355.2601378090467,0.9992104397626538,0.0015653625263235432
1355.267082415212,1355.267082415212,0.9976851446644535,0.001564970008069604
1355.2740270213308,1355.2740270213308,1.0035173878057466,0.0015671473346463003
1355.2809716274264,1355.2809716274264,1.0005226678847403,0.0015658672260507867
1355.287916233452,1355.287916233452,1.000205004846587,0.0015661295497761667
1355.2948608394777,1355.2948608394777,0.9981829670257134,0.00156471281528972
1355.3018054454567,1355.3018054454567,0.9998658808714656,0.0015660315947111508
1355.3087500514125,1355.3087500514125,1.0004800015066642,0.0015661087589775827
1355.3156946572985,1355.3156946572985,0.9989973350862267,0.0015651122335437711
1355.3226392631616,1355.3226392631616,0.9975962565411185,0.0015648660618860302
1355.3295838689542,1355.3295838689542,1.0013250323804412,0.001566343320545977
1355.337639611686,1355.337639611686,0.9986461364128418,0.001565189118606662
1355.3448620016381,1355.3448620016381,1.0017359714426743,0.0015666892285464463
1355.3518066073611,1355.3518066073611,1.000295552244927,0.0015661638725807368
1355.3587512129911,1355.3587512129911,1.0010339033232942,0.0015665171432642337
1355.3656958186207,1355.3656958186207,1.000723130322601,0.0015667694864050373
1355.372640424204,1355.372640424204,1.0025358827179862,0.0015666486271016008
1355.379585029741,1355.379585029741,0.9973337622243268,0.001565136276840514
1355.3865296352546,1355.3865296352546,1.0002249333805648,0.001565432762449443
1355.393474240698,1355.393474240698,0.9985126655226463,0.0015661832348834036
1355.401807767193,1355.401807767193,0.9992036475996482,0.0015654628557064672
1355.40875237259,1355.40875237259,0.9978835087207113,0.001565707341681467
1355.4156969779408,1355.4156969779408,1.0004946188252126,0.0015671013308121418
1355.4226415832447,1355.4226415832447,1.0015085035654678,0.0015685770337585119
1355.4295861885016,1355.4295861885016,1.0010690109273361,0.0015676231059598082
1355.4365307936894,1355.4365307936894,1.0049355045318673,0.001570442155640847
1355.443475398947,1355.443475398947,0.9999654830407394,0.0015680302936894777
1355.4504200040878,1355.4504200040878,0.998389379201859,0.0015675003493224413
1355.4573646091592,1355.4573646091592,1.0012121514319887,0.0015684779054800097
1355.46430921423,1355.46430921423,1.0001903344770469,0.0015685849023531965
1355.4712538192548,1355.4712538192548,0.9982671505557222,0.0015685499634967748
1355.4781984242559,1355.4781984242559,0.9972088678408078,0.001568648252442154
1355.485143029187,1355.485143029187,0.9983945159721801,0.0015687135608500294
1355.4920876340955,1355.4920876340955,1.0006519754504863,0.0015702965475407782
1355.4990322390033,1355.4990322390033,1.0026489840223622,0.0015720609471195877
1355.505976843795,1355.505976843795,1.0016590097774034,0.0015714800236055146
1355.51292144861,1355.51292144861,1.000210470652616,0.0015716468572929813
1355.5198660533554,1355.5198660533554,1.0013183368787775,0.0015726837341803305
1355.5268106580538,1355.5268106580538,0.9998001781090131,0.0015728241992406557
1355.533755262752,1355.533755262752,1.0002647220418706,0.0015734399889622773
1355.5406998673811,1355.5406998673811,0.9993149454169137,0.0015737116595240027
1355.5476444719864,1355.5476444719864,1.000590511227415,0.0015751947239709325
1355.5545890765454,1355.5545890765454,0.9977164737420654,0.0015751235786706497
1355.5615336810345,1355.5615336810345,0.9989097408203689,0.0015761135874123428
1355.5684782855235,1355.5684782855235,1.0001175235016564,0.0015768047575392384
1355.5754228899427,1355.5754228899427,1.0007095451443382,0.0015775401946897607
1355.5823674943617,1355.5823674943617,0.9987723486862714,0.0015772975525859504
1355.589312098711,1355.589312098711,0.999444753348184,0.001577331964237166
1355.5962567030142,1355.5962567030142,1.0007462704794048,0.0015774350950211028
1355.6032013072931,1355.6032013072931,1.0013087393608195,0.0015773365368038045
1355.610145911526,1355.610145911526,0.9995201231293797,0.0015767313260402472
1355.6170905157126,1355.6170905157126,1.0004546742309375,0.0015759217856347423
1355.6240351198753,1355.6240351198753,1.001748961033566,0.0015759280628874172
1355.6309797239921,1355.6309797239921,0.998046177997362,0.0015742924981781473
1355.6379243280855,1355.6379243280855,0.9995408412241178,0.001574357326631188
1355.6448689320855,1355.6448689320855,1.0001219405834276,0.0015732063516498516
1355.6518135360625,1355.6518135360625,1.0014723062390218,0.0015738080105178616
1355.658758140039,1355.658758140039,0.9989581830575531,0.0015716814904712638
1355.6657027440156,1355.6657027440156,1.0001693574010797,0.0015713842034412392
1355.6726473478764,1355.6726473478764,0.9986110938148773,0.0015695194787305037
1355.679591951713,1355.679591951713,0.9993271322611192,0.0015698115629313072
1355.6865365555273,1355.6865365555273,1.0000517866627285,0.0015694556108551854
1355.6934811592714,1355.6934811592714,1.0027544009782683,0.0015699412429290758
1355.700425762992,1355.700425762992,0.9973367490850313,0.0015673894627479244
1355.707370366666,1355.707370366666,1.0010564588361262,0.001568044436003558
1355.7143149702936,1355.7143149702936,1.0002684699029794,0.001567279672725475
1355.7212595738974,1355.7212595738974,1.0021913148314465,0.0015677065676671699
1355.7282041774556,1355.7282041774556,0.9984981763799918,0.001565420325046819
1355.7351487809897,1355.7351487809897,1.0010000141358586,0.0015665125080914892
1355.7423711686133,1355.7423711686133,0.9983671645147123,0.0015654698412560814
1355.7504269085748,1355.7504269085748,0.9990724700713971,0.0015651134551567026
1355.7573715119693,1355.7573715119693,1.001758110754464,0.0015662979070296412
1355.7643161153176,1355.7643161153176,0.9987995019117324,0.0015645341872433014
1355.771260718619,1355.771260718619,1.0021367958166767,0.0015663176806555486
1355.7782053218973,1355.7782053218973,0.9998646692718962,0.0015653488849952627
1355.7851499251294,1355.7851499251294,1.0013349856875196,0.0015655053163622756
1355.7920945283145,1355.7920945283145,0.9994644411416674,0.0015645893017308542
1355.799039131453,1355.799039131453,0.9999443196439424,0.001564346608856541
1355.8059837345681,1355.8059837345681,1.0003908779972692,0.0015647052050183096
1355.812928337637,1355.812928337637,1.0002485343149634,0.001564462524932804
1355.8198729406595,1355.8198729406595,0.9983340398449949,0.001564108391494187
1355.8268175436583,1355.8268175436583,1.0012177090943013,0.0015647712049052544
1355.8337621466105,1355.8337621466105,1.0000884027794799,0.0015641128304021122
1355.8407067495164,1355.8407067495164,1.0005229143842747,0.0015648982377360308
1355.8476513523754,1355.8476513523754,1.0002188158001162,0.0015649131359001555
1355.8545959551882,1355.8545959551882,1.000370686362993,0.0015650586864017033
1355.8615405580008,1355.8615405580008,0.9994578347131876,0.0015641543945607874
1355.8684851607204,1355.8684851607204,0.9973033442141688,0.0015643216155105204
1355.87542976344,1355.87542976344,1.0005932098812795,0.001565476510741886
1355.882374366113,1355.882374366113,1.000225776272261,0.0015648448355439371
1355.8893189687392,1355.8893189687392,1.000119456660919,0.0015652897433250782
