time,time,flux,flux_err
1325.299763572266,1325.299763572266,0.9999682454280835,9.942973792504278e-05
1325.308096738452,1325.308096738452,0.9999379651338242,9.942053901919597e-05
1325.31642990491,1325.31642990491,1.0000822325201957,9.942987119505929e-05
1325.324763071639,1325.324763071639,1.0000091702809817,9.94216050686883e-05
1325.3324018080523,1325.3324018080523,1.0001087844408627,9.07725603533465e-05
1325.339346114099,1325.339346114099,0.999926373244419,9.076388116025235e-05
1325.3462904203443,1325.3462904203443,0.9999402628269427,9.07664523522127e-05
1325.3532347267403,1325.3532347267403,0.9999989266567235,9.077406854969924e-05
1325.3601790333457,1325.3601790333457,1.0000822193096952,9.078481975138096e-05
1325.3671233401267,1325.3671233401267,0.9999557852132369,9.078291559988475e-05
1325.3740676471164,1325.3740676471164,1.0001298790851696,9.078572953741891e-05
1325.3810119542693,1325.3810119542693,0.999955440173015,9.078500305444303e-05
1325.3879562616082,1325.3879562616082,0.9999931691851144,9.080186856949554e-05
1325.3949005691334,1325.3949005691334,0.9999148494126636,9.080078009371314e-05
1325.4018448768336,1325.4018448768336,0.9999824407937418,9.080445327211103e-05
1325.4087891847198,1325.4087891847198,1.0000551570527474,9.081400634651415e-05
1325.415733492769,1325.415733492769,0.9999646911492353,9.081333875121943e-05
1325.422677801028,1325.422677801028,1.0000096553076836,9.082007908024066e-05
1325.429622109415,1325.429622109415,0.9998660726752926,9.082063611400152e-05
1325.4365664179995,1325.4365664179995,1.0000300753488895,9.082666896477103e-05
1325.4435107267589,1325.4435107267589,1.0000706515849545,9.08294214287076e-05
1325.4504550356812,1325.4504550356812,1.0000837036602257,9.083110134093876e-05
1325.4573993447666,1325.4573993447666,0.9999533811964124,9.083586584239497e-05
1325.4643436540266,1325.4643436540266,0.9999319828668851,9.084067344085391e-05
1325.4712879634494,1325.4712879634494,1.0000956970647983,9.084787683771914e-05
1325.4782322730355,1325.4782322730355,0.9998563115227025,9.084290329214884e-05
1325.4851765827957,1325.4851765827957,1.0000815230064488,9.086021528369397e-05
1325.4921208927196,1325.4921208927196,0.999939134109515,9.085431634019573e-05
1325.4990652027946,1325.4990652027946,1.000092599072841,9.086908324332929e-05
1325.506009513044,1325.506009513044,0.9998505268898468,9.086334774820399e-05
1325.512953823433,1325.512953823433,0.9999775174914474,9.08714459121306e-05
1325.5198981339854,1325.5198981339854,0.9999074478999808,9.087714076915686e-05
1325.526842444689,1325.526842444689,1.0000333317331591,9.088531580677825e-05
1325.5337867555438,1325.5337867555438,1.0000006074052874,9.088960507023815e-05
1325.540731066573,1325.540731066573,1.0000972257840643,9.089629479542641e-05
1325.5476753777543,1325.5476753777543,1.0000361918360228,9.090067881011862e-05
1325.5546196890512,1325.5546196890512,0.9999934310655684,9.090171799101196e-05
1325.5615640005467,1325.5615640005467,1.0000179170390378,9.090017667230234e-05
1325.5685083121348,1325.5685083121348,1.0000268093820985,9.091058927252618e-05
1325.575452623921,1325.575452623921,0.9999734161603764,9.091789473091694e-05
1325.582396935824,1325.582396935824,1.0000065564588627,9.09232212198906e-05
1325.589341247877,1325.589341247877,0.9999758128747442,9.092338226827625e-05
1325.5962855600712,1325.5962855600712,0.9999049897967422,9.092344873086057e-05
1325.603229872416,1325.603229872416,0.9998843786368676,9.092636280084736e-05
1325.6101741848775,1325.6101741848775,1.0000696421982656,9.094169121577066e-05
1325.6171184974903,1325.6171184974903,1.0001314878646295,9.094202473528675e-05
1325.624062810266,1325.624062810266,0.9999851938713757,9.093381803015435e-05
1325.6310071231464,1325.6310071231464,0.9998875732942507,9.093165044403038e-05
1325.6379514361784,1325.6379514361784,1.0000774748745895,9.094904547296853e-05
1325.644895749338,1325.644895749338,1.0001069318120703,9.095229048780263e-05
1325.6518400626494,1325.6518400626494,0.9999882450827384,9.09525173990326e-05
1325.6587843760653,1325.6587843760653,0.9999226418428899,9.094979350286548e-05
1325.6657286896211,1325.6657286896211,1.0000519766919749,9.095327238318137e-05
1325.6726730033047,1325.6726730033047,0.9999926432513305,9.095448503895758e-05
1325.6796173171283,1325.6796173171283,0.9999614206115763,9.094832279553811e-05
1325.6865616310683,1325.6865616310683,1.000005889956002,9.095516295934003e-05
1325.6935059451475,1325.6935059451475,0.9999707546674259,9.096234748338999e-05
1325.7004502593325,1325.7004502593325,1.0000286729084793,9.095695835983343e-05
1325.7073945736445,1325.7073945736445,0.9999812947550417,9.096158234813183e-05
1325.714338888085,1325.714338888085,1.000003062989998,9.096349063546176e-05
1325.7212832026648,1325.7212832026648,1.0000367661131788,9.09685927095423e-05
1325.72822751735,1325.72822751735,0.9999776233396325,9.09666356903636e-05
1325.7351718321281,1325.7351718321281,0.999788934652712,9.09605938559271e-05
1325.7421161470575,1325.7421161470575,1.0000957254489484,9.097612650191942e-05
1325.7490604620914,1325.7490604620914,1.000005173631263,9.09719444716367e-05
1325.756004777254,1325.756004777254,1.0001121750034598,9.097989361132297e-05
1325.7629490925324,1325.7629490925324,1.0000572680511555,9.098480708605114e-05
1325.7698934079042,1325.7698934079042,1.0000814867950656,9.098568771438796e-05
1325.7768377233926,1325.7768377233926,1.0000635231533805,9.098952671497898e-05
1325.7837820389973,1325.7837820389973,0.9998880584518484,9.098047763438635e-05
1325.7907263547181,1325.7907263547181,0.9999049624769505,9.098797224698195e-05
1325.7976706705554,1325.7976706705554,0.9997627720187487,9.097836142486925e-05
1325.8046149864863,1325.8046149864863,1.0000627820656387,9.099452588467259e-05
1325.8115593025213,1325.8115593025213,1.0000815091208026,9.099499913083803e-05
1325.818503618685,1325.818503618685,1.000025484989058,9.098888586972845e-05
1325.8254479349298,1325.8254479349298,1.0001402043141046,9.099895519683722e-05
1325.8323922512911,1325.8323922512911,1.0000080701159613,9.099843461543096e-05
1325.8393365677457,1325.8393365677457,0.9999485046978392,9.099786447860309e-05
1325.8462808843165,1325.8462808843165,0.9999759329125893,9.099718886911743e-05
1325.8532252009918,1325.8532252009918,1.000060651617782,9.100818239941178e-05
1325.8601695177608,1325.8601695177608,0.9999327909593898,9.100141740183727e-05
1325.8671138346228,1325.8671138346228,0.9999937300995073,9.100306019029964e-05
1325.8740581516013,1325.8740581516013,1.000044346828559,9.100666033850468e-05
1325.8810024686725,1325.8810024686725,0.9999469140701278,9.100139073734273e-05
1325.8879467858371,1325.8879467858371,1.0000815061840522,9.100203193856683e-05
1325.8948911030948,1325.8948911030948,0.9998986060271555,9.09955177148611e-05
1325.9018354204572,1325.9018354204572,0.9999374470896673,9.099473166561762e-05
1325.908779737901,1325.908779737901,1.0000056153768695,9.099406391331972e-05
1325.9157240554382,1325.9157240554382,1.000019109829889,9.099654936232415e-05
1325.9226683730683,1325.9226683730683,1.0000299590489197,9.099931869886431e-05
1325.9296126908037,1325.9296126908037,1.0000358958626043,9.099483749882005e-05
1325.9365570086316,1325.9365570086316,0.9999510380344449,9.09965937793517e-05
1325.943501326553,1325.943501326553,1.0000742831345302,9.099523617350708e-05
1325.9504456445327,1325.9504456445327,0.9999575708326477,9.099416639442535e-05
1325.957389962617,1325.957389962617,1.0000293152256305,9.099033266441649e-05
1325.9654453717121,1325.9654453717121,1.0000749614261217,9.099217160271676e-05
1325.972667462712,1325.972667462712,1.0000388397559827,9.099387244106277e-05
1325.979611781087,1325.979611781087,0.9998313234969094,9.098187628040082e-05
1325.9865560995322,1325.9865560995322,0.9998971882182539,9.098287600982889e-05
1325.9935004180702,1325.9935004180702,1.0000676308486565,9.099619237055344e-05
1326.0004447366787,1326.0004447366787,1.000072614457,9.100177837018575e-05
1326.00738905538,1326.00738905538,0.9999181575978842,9.099774564855391e-05
1326.014333374186,1326.014333374186,1.000020541099366,9.100131744613874e-05
1326.021277693027,1326.021277693027,1.000237371894921,9.101336003036832e-05
1326.0282220119614,1326.0282220119614,0.9999096448627881,9.100319745080067e-05
1326.0351663309884,1326.0351663309884,1.000082188234273,9.101099965016116e-05
1326.0421106500967,1326.0421106500967,0.999862387998936,9.099363961911145e-05
1326.049054969264,1326.049054969264,0.9999355510330759,9.100434107176175e-05
1326.0559992885237,1326.0559992885237,0.9999566043575217,9.100498323897435e-05
1326.0629436078539,1326.0629436078539,0.9999963400705708,9.100786144495684e-05
1326.0698879272652,1326.0698879272652,1.0001414615562882,9.101218950998032e-05
1326.076832246746,1326.076832246746,0.9999988203913279,9.101180683241774e-05
1326.0837765662977,1326.0837765662977,0.9999262064444153,9.100181080358603e-05
1326.0907208859537,1326.0907208859537,0.9999161695047984,9.100671748744644e-05
1326.0976652056443,1326.0976652056443,1.000024473971435,9.101117094783545e-05
1326.104609525417,1326.104609525417,1.0000708589530198,9.101096364742817e-05
1326.1115538452818,1326.1115538452818,0.9999368069875242,9.100905045656004e-05
1326.1184981651825,1326.1184981651825,1.0001461863515595,9.101554262660218e-05
1326.1254424851754,1326.1254424851754,1.0000876180299052,9.1017283245067e-05
1326.1323868052393,1326.1323868052393,0.9999518999939159,9.101384992198077e-05
1326.1393311253723,1326.1393311253723,0.9999667288789592,9.101151481327832e-05
1326.1462754455756,1326.1462754455756,0.9998660557049435,9.100806643672416e-05
1326.1532197658482,1326.1532197658482,0.9999307013801726,9.101464398149035e-05
1326.1601640861559,1326.1601640861559,0.9999881377068007,9.10185205847063e-05
1326.167108406557,1326.167108406557,1.0002211470202194,9.102362009801192e-05
1326.1740527270274,1326.1740527270274,1.0000687524421326,9.102071395209839e-05
1326.1809970475801,1326.1809970475801,1.0000705994169765,9.102113924286852e-05
1326.1879413681556,1326.1879413681556,0.999832934536761,9.100495339631136e-05
1326.1948856888125,1326.1948856888125,0.9999391654614677,9.101031692595943e-05
1326.2018300095278,1326.2018300095278,0.9997735793280679,9.100641614302887e-05
1326.208774330313,1326.208774330313,1.00000004741205,9.101247731896689e-05
1326.2157186511563,1326.2157186511563,1.000052749630741,9.101482253245924e-05
1326.2226629720694,1326.2226629720694,1.0000519865950568,9.10082303400288e-05
1326.229607293029,1326.229607293029,1.0001312020202682,9.101958394513643e-05
1326.2365516140703,1326.2365516140703,1.0001197107703785,9.101562208659561e-05
1326.2434959351576,1326.2434959351576,1.0001115196367163,9.10156774226079e-05
1326.250440256304,1326.250440256304,0.9998672149424955,9.100447060757193e-05
1326.2573845775198,1326.2573845775198,0.9998855257219894,9.100706568682953e-05
1326.2643288987824,1326.2643288987824,1.0001163815524836,9.10151210124285e-05
1326.2712732201148,1326.2712732201148,1.0000135061704292,9.101017085838737e-05
1326.27821754147,1326.27821754147,0.9999162804496494,9.100158154898242e-05
1326.2851618629188,1326.2851618629188,0.9998854175235538,9.10023356621357e-05
1326.2921061844256,1326.2921061844256,0.9999068034363873,9.100613820234283e-05
1326.2990505059677,1326.2990505059677,0.9999924905298944,9.100922035611204e-05
1326.3059948275672,1326.3059948275672,1.0001029331817888,9.100575522859083e-05
1326.3129391492375,1326.3129391492375,0.9999732868061404,9.100208653973058e-05
1326.3198834709651,1326.3198834709651,1.0000656088901203,9.100960792509729e-05
1326.326827792705,1326.326827792705,1.0002020947265655,9.100747100229185e-05
1326.3337721145263,1326.3337721145263,1.0000226121712537,9.100735791020252e-05
1326.3407164364057,1326.3407164364057,0.9999489714421168,9.100039392318272e-05
1326.3487718498432,1326.3487718498432,0.9997749660485663,9.099804454495336e-05
1326.3573828091116,1326.3573828091116,1.0001107836753618,9.101731573170798e-05
1326.3643271311544,1326.3643271311544,0.999916212967813,9.10110971299473e-05
1326.371271453243,1326.371271453243,1.0000230652162256,9.101224683715971e-05
1326.3782157753903,1326.3782157753903,0.9999284186341626,9.101783163736969e-05
1326.3851600975956,1326.3851600975956,1.0001273218463862,9.102361176501321e-05
1326.3921044198473,1326.3921044198473,1.0001186816645047,9.10286053878541e-05
1326.399048742158,1326.399048742158,0.9999872924425329,9.102207638026601e-05
1326.4059930644794,1326.4059930644794,0.9998000914354831,9.101716956029492e-05
1326.4129373868598,1326.4129373868598,0.9999847056597867,9.10276225883569e-05
1326.4198817093093,1326.4198817093093,1.0000215521711397,9.102841277790463e-05
1326.4268260317826,1326.4268260317826,1.0001080020816093,9.103342548979247e-05
1326.4337703543138,1326.4337703543138,0.9998882653354009,9.10251363216331e-05
1326.4407146768917,1326.4407146768917,1.0000503423084202,9.103374591992826e-05
1326.4476589995163,1326.4476589995163,1.0000152824584574,9.103149573854074e-05
1326.4546033221873,1326.4546033221873,1.0000318770603078,9.103512510067472e-05
1326.4615476448932,1326.4615476448932,1.0000509994793445,9.10410751551403e-05
1326.4684919676458,1326.4684919676458,1.0000174755280806,9.103297307143423e-05
1326.4754362904446,1326.4754362904446,1.0000185730579587,9.103976459019805e-05
1326.4823806133022,1326.4823806133022,0.9999307853414733,9.10387948818312e-05
1326.4893249361826,1326.4893249361826,0.9998577108483431,9.10339575644503e-05
1326.4962692591098,1326.4962692591098,1.0001049280652585,9.10442606786474e-05
1326.5032135820716,1326.5032135820716,0.9998890640937226,9.103348143309653e-05
1326.5101579051038,1326.5101579051038,0.9998941809582199,9.103940508811619e-05
1326.5171022281472,1326.5171022281472,0.9999782803555546,9.103749070105524e-05
1326.5240465512375,1326.5240465512375,1.0001447638815797,9.105356631522067e-05
1326.5309908743743,1326.5309908743743,1.0002440846575027,9.105486658336187e-05
1326.5379351975573,1326.5379351975573,1.0000904403308324,9.104775183997031e-05
1326.5448795207644,1326.5448795207644,0.9998908222747062,9.104033528113652e-05
1326.551823844017,1326.551823844017,0.9998124675017236,9.104367156340016e-05
1326.5587681673169,1326.5587681673169,0.9999891169789095,9.105210657100703e-05
1326.5657124906513,1326.5657124906513,1.000065660217136,9.105358362693539e-05
1326.5726568140208,1326.5726568140208,1.0001168976350452,9.105738803527724e-05
1326.5796011374255,1326.5796011374255,0.9999130841461703,9.104362412024812e-05
1326.586545460888,1326.586545460888,1.0000011081785316,9.104799086185957e-05
1326.5934897843624,1326.5934897843624,1.000008273605262,9.105882511118952e-05
1326.6004341078717,1326.6004341078717,0.9999580496785908,9.10515728808857e-05
1326.6073784314272,1326.6073784314272,0.9998859636822528,9.104737296332306e-05
1326.61432275503,1326.61432275503,0.9998887292911844,9.105246727743086e-05
1326.621267078655,1326.621267078655,1.0000785482439523,9.106380358307979e-05
1326.6282114023277,1326.6282114023277,1.0002018007038362,9.106950997016272e-05
1326.635155726023,1326.635155726023,1.000062407114598,9.106142069867995e-05
1326.6421000497535,1326.6421000497535,1.000068392312178,9.106386569902969e-05
1326.6490443735304,1326.6490443735304,0.9999055115551722,9.10582191114012e-05
1326.6559886973305,1326.6559886973305,0.9999651895133745,9.105715053588246e-05
1326.662933021166,1326.662933021166,0.9999431705163939,9.105980617016808e-05
1326.6698773450357,1326.6698773450357,1.0000448012766534,9.105657820964782e-05
1326.676821668953,1326.676821668953,1.0000415596988925,9.105781152045738e-05
1326.683765992881,1326.683765992881,0.9999436091670653,9.105450097798882e-05
1326.6920991816555,1326.6920991816555,1.0001157399375193,9.10630691968264e-05
1326.6990435056537,1326.6990435056537,0.9999168681371492,9.104998048941858e-05
1326.7059878297098,1326.7059878297098,0.9999680969658066,9.104429940829786e-05
1326.7137654726648,1326.7137654726648,1.0001364197773264,9.105666112764185e-05
1326.721265342704,1326.721265342704,1.0000054711469497,9.104533819680824e-05
1326.7282096668418,1326.7282096668418,1.000101224822342,9.104499148918679e-05
1326.7351539910262,1326.7351539910262,0.9999159785807594,9.10413348453208e-05
1326.7420983152224,1326.7420983152224,1.000010419288365,9.103206532822531e-05
1326.7490426394647,1326.7490426394647,0.999961422900876,9.103632462088356e-05
1326.7559869637191,1326.7559869637191,1.0000556715022733,9.103910861128009e-05
1326.76293128802,1326.76293128802,0.9999258751059978,9.103025605476006e-05
1326.7698756123207,1326.7698756123207,0.9999846576218671,9.103164779106275e-05
1326.7768199366797,1326.7768199366797,1.0000833154471347,9.103208086045962e-05
1326.7837642610623,1326.7837642610623,1.0000460030693776,9.103618444206226e-05
1326.79070858548,1326.79070858548,0.9998636841877637,9.10248658110296e-05
1326.7976529099083,1326.7976529099083,0.9999618305348225,9.103113505828066e-05
1326.8045972343843,1326.8045972343843,1.000009429263057,9.103032164484093e-05
1326.8115415588707,1326.8115415588707,1.0000463601025977,9.103232079126251e-05
1326.8184858833813,1326.8184858833813,1.0000144956645585,9.102966254293456e-05
1326.8254302079267,1326.8254302079267,1.0001170749487565,9.103207502523389e-05
1326.8323745324956,1326.8323745324956,1.0000078919021653,9.102602143527038e-05
1326.8393188571106,1326.8393188571106,1.0000501401866273,9.103022113110612e-05
1326.8462631817024,1326.8462631817024,0.9998983365103781,9.102085353337671e-05
1326.8532075063874,1326.8532075063874,0.9999888892427098,9.10277581638271e-05
1326.8601518310493,1326.8601518310493,1.0000255232715423,9.102529490281155e-05
1326.8670961557577,1326.8670961557577,0.9998551084822325,9.10169104612537e-05
1326.8740404804892,1326.8740404804892,0.9999846216877823,9.102561658731418e-05
1326.880984805244,1326.880984805244,0.9999970684453388,9.102109080599404e-05
1326.8879291300107,1326.8879291300107,1.0000994216768988,9.10253486877014e-05
1326.8948734548233,1326.8948734548233,0.9999021045691009,9.10096211864799e-05
1326.9018177796484,1326.9018177796484,1.000096440756681,9.10174837330609e-05
1326.9087621045078,1326.9087621045078,0.9999213591970925,9.100714775728071e-05
1326.9157064293674,1326.9157064293674,1.0000665298495126,9.100247449195211e-05
1326.9226507542971,1326.9226507542971,1.0000240797462092,9.099840098669438e-05
1326.9295950792266,1326.9295950792266,1.0000625719597214,9.099765759774509e-05
1326.936539404156,1326.936539404156,1.0000428190813653,9.099530392749778e-05
1326.9434837291085,1326.9434837291085,0.9999905348090088,9.099299098989774e-05
1326.9504280541082,1326.9504280541082,0.999836576091657,9.098164249463219e-05
1326.9573723791189,1326.9573723791189,1.0000816939876283,9.09942436884334e-05
1326.9643167041536,1326.9643167041536,0.9999216557305987,9.098193353850107e-05
1326.971261029211,1326.971261029211,0.9999959824437232,9.097904719674589e-05
1326.9782053542917,1326.9782053542917,0.9999501576052452,9.0978344964793e-05
1326.985149679396,1326.985149679396,1.0000908522128609,9.097641394878956e-05
1326.9920940045117,1326.9920940045117,1.0000470053349289,9.097659640286762e-05
1326.9990383296622,1326.9990383296622,1.000042666314551,9.097203550289332e-05
1327.0059826548247,1327.0059826548247,0.9998744580379064,9.096565167737243e-05
1327.0129269800104,1327.0129269800104,1.0000127316289777,9.096726879695197e-05
1327.019871305231,1327.019871305231,1.0000254160218947,9.09656982889429e-05
1327.0268156304514,1327.0268156304514,0.9999963164527381,9.096976119559149e-05
1327.0337599556838,1327.0337599556838,0.9999086618269823,9.096979046186614e-05
1327.0407042809506,1327.0407042809506,1.0000716325118346,9.096868310935992e-05
1327.0476486062412,1327.0476486062412,0.999998414399738,9.097030508500594e-05
1327.054592931543,1327.054592931543,0.9999890092237997,9.096224752537716e-05
1327.0626483489273,1327.0626483489273,1.0000272273715143,9.09714625898832e-05
1327.0698704472843,1327.0698704472843,1.0000564085962584,9.096617651676274e-05
1327.0768147726446,1327.0768147726446,0.9999627363203615,9.096290756655187e-05
