time,time,flux,flux_err
1468.2809078354678,1468.2809078354678,0.9989856316872933,0.000362685302937745
1468.2892411695564,1468.2892411695564,0.9997185402795247,0.00036274526935484023
1468.2968800590438,1468.2968800590438,0.9993889899328229,0.0003311338464193407
1468.3038245036519,1468.3038245036519,0.9997686990641702,0.0003311131333932952
1468.31076894826,1468.31076894826,1.0002486782209368,0.0003312211857592271
1468.3177133926815,1468.3177133926815,1.0000989625689476,0.0003311533086858335
1468.3246578371027,1468.3246578371027,1.0003836077288268,0.0003310759890460884
1468.3316022812453,1468.3316022812453,1.000326483766977,0.0003310740874957262
1468.3385467252945,1468.3385467252945,1.0004872771410729,0.0003310741212436987
1468.3454911691574,1468.3454911691574,1.0005219841674151,0.00033108742751231026
1468.3524356131131,1468.3524356131131,0.9995082775069231,0.00033094388792380175
1468.3593800567894,1468.3593800567894,0.9994333483651208,0.0003309648123349677
1468.3663245003736,1468.3663245003736,0.9998081129338111,0.0003310167509968619
1468.3732689437707,1468.3732689437707,0.9995113440866478,0.0003308834130250082
1468.3821578311358,1468.3821578311358,1.0003190056206113,0.0003310498245567566
1468.3968800505008,1468.3968800505008,1.0008118276720894,0.0003315246680111738
1468.4038244932467,1468.4038244932467,1.001190769500077,0.00033153281521798334
1468.410768935992,1468.410768935992,0.9999160950248255,0.00033127129469871916
1468.4177133787366,1468.4177133787366,1.0004768984453287,0.00033140420543702366
1468.4246578213886,1468.4246578213886,1.000046989644059,0.0003314125970008143
1468.431602263762,1468.431602263762,0.9994905088897477,0.00033127179194704766
1468.438546705948,1468.438546705948,0.9996313111075255,0.00033127858367299265
1468.4454911481346,1468.4454911481346,0.9988900393505521,0.00033127642166866323
1468.4524355901349,1468.4524355901349,0.9985635411090914,0.0003311296357865927
1468.459380032042,1468.459380032042,0.9999851862348684,0.0003313470553296439
1468.4663244737626,1468.4663244737626,1.0009031752543436,0.0003314336661802323
1468.4732689154837,1468.4732689154837,1.005970894912854,0.0003321580242438328
1468.480213356925,1468.480213356925,1.0056304148150013,0.0003323497771104385
1468.4871577982728,1468.4871577982728,1.003974390736731,0.00033225671310577035
1468.494102239622,1468.494102239622,1.003971727044338,0.0003323454573824992
1468.5010466806907,1468.5010466806907,1.002821936823691,0.0003323931948623827
1468.5079911216665,1468.5079911216665,1.0026419301915812,0.00033235816649403014
1468.514935562642,1468.514935562642,1.0014411104004577,0.00033208599079194125
1468.5218800033383,1468.5218800033383,1.001057154419604,0.0003321286007835787
1468.5288244440344,1468.5288244440344,1.001740114552344,0.0003321198308392357
1468.5357688844517,1468.5357688844517,1.0004995071957543,0.0003320138304201901
1468.5427133248686,1468.5427133248686,1.0001489823284664,0.0003319440058693237
1468.5496577651923,1468.5496577651923,0.9993874746115307,0.0003319173515800967
1468.5566022052367,1468.5566022052367,0.999117026700324,0.00033190608983718487
1468.5635466452816,1468.5635466452816,0.9990442142606998,0.00033185457369698437
1468.5704910852323,1468.5704910852323,0.9975208284320749,0.0003316889582298291
1468.5774355249043,1468.5774355249043,0.997872022399563,0.00033168277828358886
1468.584379964576,1468.584379964576,0.997335392090925,0.0003316696641434843
1468.5913244040617,1468.5913244040617,0.9973931785405501,0.00033168125989495843
1468.5982688434544,1468.5982688434544,0.9961946623845032,0.0003314927156866058
1468.6052132826608,1468.6052132826608,1.0138383002954965,0.0003336239201068448
1468.6121577218669,1468.6121577218669,1.0031865419118007,0.00033232781024087677
1468.6191021608865,1468.6191021608865,1.0009113172557003,0.0003320595734486808
1468.6260465998137,1468.6260465998137,0.9988564929189885,0.00033206942782604255
1468.6329910385546,1468.6329910385546,0.9991111884095739,0.0003321078663621831
1468.6399354772016,1468.6399354772016,1.003952023126612,0.0003328903593873969
1468.6468799157558,1468.6468799157558,0.9997958474312654,0.00033235259863610044
1468.653824354217,1468.653824354217,0.9997429841122406,0.00033238246474774104
1468.6607687923988,1468.6607687923988,1.000026045256634,0.000332544537963885
1468.6677132304878,1468.6677132304878,0.9998619800733035,0.0003326034680994473
1468.674657668576,1468.674657668576,0.9999205367033059,0.0003326284419485891
1468.6816021065715,1468.6816021065715,0.9993220350139902,0.00033244716375248546
1468.6885465442876,1468.6885465442876,0.9998616447943963,0.00033255454930787776
1468.6954909819106,1468.6954909819106,1.0003588148772413,0.0003325350579625127
1468.7024354194407,1468.7024354194407,1.0004503609640998,0.00033233308203241393
1468.7093798568771,1468.7093798568771,0.9997648633474207,0.0003323076602372201
1468.7163242941276,1468.7163242941276,0.9996366746725327,0.00033219614662673174
1468.723268731378,1468.723268731378,0.9998259491637491,0.00033210543910599166
1468.7302131683493,1468.7302131683493,1.000224674456285,0.00033207783272263126
1468.7371576052276,1468.7371576052276,1.0005672014509095,0.00033204153354053433
1468.744102042105,1468.744102042105,1.0000428557728025,0.00033182842528443294
1468.7510464787968,1468.7510464787968,0.9999867545840335,0.0003316800386050104
1468.7579909153021,1468.7579909153021,0.9994452871662126,0.00033160476348049285
1468.7649353518077,1468.7649353518077,1.000907753853611,0.0003317281686179132
1468.7718797880336,1468.7718797880336,0.9999889446977634,0.00033147700377630213
1468.7788242241663,1468.7788242241663,0.9999007295929283,0.0003313408643435594
1468.785768660299,1468.785768660299,1.0002219224456232,0.00033137346734214755
1468.7927130960597,1468.7927130960597,1.000322229369623,0.00033129938859777794
1468.79965753182,1468.79965753182,0.9996989685398188,0.00033108589711756156
1468.8066019675803,1468.8066019675803,1.0000831427542498,0.000331147149742153
1468.8135464033405,1468.8135464033405,1.0002280644686143,0.00033101175947170154
1468.8204908387283,1468.8204908387283,0.9997694912002736,0.0003309433077748116
1468.8274352740232,1468.8274352740232,0.999452213609677,0.0003307794188936353
1468.834379709318,1468.834379709318,0.9998077095279794,0.00033076430848772977
1468.841324144333,1468.841324144333,1.0006739353916974,0.00033074964604881067
1468.8482685793483,1468.8482685793483,1.0004862056909574,0.00033076494133109423
1468.8552130140843,1468.8552130140843,0.9998879730586205,0.00033071082367273154
1468.8621574489132,1468.8621574489132,0.9998451260312894,0.00033067881302190067
1468.8691018834631,1468.8691018834631,0.9998101122475646,0.00033064059181715674
1468.8760463178264,1468.8760463178264,1.0000261408455633,0.0003305972617202899
1468.8829907522827,1468.8829907522827,1.0001046740196986,0.0003306325573277227
1468.8899351864598,1468.8899351864598,1.0001241597771764,0.00033060246636433614
1468.896879620544,1468.896879620544,1.000121925411146,0.00033069790511107997
1468.9038240545347,1468.9038240545347,1.000402662485083,0.0003307006590718535
1468.9107684884323,1468.9107684884323,0.9997534789795397,0.00033059305991222574
1468.9177129220502,1468.9177129220502,0.999837694440054,0.0003307265922748685
1468.9246573557623,1468.9246573557623,0.9992452961415953,0.0003306481170312237
1468.9316017893805,1468.9316017893805,0.9998955023197883,0.0003306804956884609
1468.9385462226262,1468.9385462226262,1.0003700402033595,0.0003307348133475644
1468.945490655779,1468.945490655779,1.0003517493637022,0.0003307974279929351
1468.952435088931,1468.952435088931,1.0000288243109485,0.00033073773168783066
1468.9596572993282,1468.9596572993282,0.9998782548989518,0.0003308580217892378
1468.9677128414576,1468.9677128414576,1.0001358748350253,0.0003309578773814579
1468.9746572741442,1468.9746572741442,0.999684103285513,0.00033084261106127474
1468.9816017067383,1468.9816017067383,1.0002924302461988,0.0003309786266879082
1468.988546139239,1468.988546139239,0.9999003525895456,0.0003308302608966831
1468.9954905717398,1468.9954905717398,1.0000901454930742,0.0003309133958757012
1469.0024350038682,1469.0024350038682,0.999704164303456,0.00033092144492634834
1469.009379435996,1469.009379435996,1.0001173621781672,0.0003310149439658029
1469.0163238680311,1469.0163238680311,1.0001092487907317,0.0003310236210369848
1469.0232682998799,1469.0232682998799,1.000073283522567,0.00033116550731462994
1469.0302127317289,1469.0302127317289,0.9995478162557067,0.00033105060718553595
1469.0371571632982,1469.0371571632982,1.000259560733085,0.0003311882339953692
1469.0441015947742,1469.0441015947742,0.9999883061823098,0.0003312396388073228
1469.0510460262503,1469.0510460262503,1.0003138806496643,0.00033126581994605216
1469.0579904573544,1469.0579904573544,0.9996944783304149,0.0003312600397446855
1469.0649348884583,1469.0649348884583,0.9996210546176544,0.0003313630189621772
1469.0718793195622,1469.0718793195622,1.00056749144611,0.0003315677547519257
1469.0788237506658,1469.0788237506658,1.000274960513941,0.0003315213409129315
1469.085768181397,1469.085768181397,0.999756107289989,0.00033153076966950095
1469.0927126121278,1469.0927126121278,1.0000719350904554,0.0003316365390500761
1469.0996570426728,1469.0996570426728,1.0000116139963204,0.0003317590811446339
1469.1066014730316,1469.1066014730316,1.000044742191902,0.00033175424810672063
1469.1135459033906,1469.1135459033906,0.9994812081502186,0.0003317216728225193
1469.1204903336559,1469.1204903336559,0.9997590573236795,0.0003319377638085538
1469.127434763642,1469.127434763642,0.9996471395714857,0.0003319437658849126
1469.134379193535,1469.134379193535,1.000373370897424,0.00033205764612489216
1469.141323623521,1469.141323623521,1.0009500340575657,0.00033215726067732356
1469.1482680531353,1469.1482680531353,0.999904023157853,0.0003321142070720693
1469.155212482748,1469.155212482748,0.9999198317057093,0.00033219499948980723
1469.1621569121755,1469.1621569121755,0.9991931312253264,0.0003322655464272612
1469.169101341603,1469.169101341603,0.9999882255131636,0.0003323535536533074
1469.176045770751,1469.176045770751,1.0004983666790128,0.00033238963124548724
1469.1829901999922,1469.1829901999922,1.0003231979444869,0.00033250312368605554
1469.1899346287678,1469.1899346287678,1.000193816129921,0.0003325487270393363
1469.1968790577291,1469.1968790577291,1.0002900685609533,0.0003325921444062966
1469.2038234863182,1469.2038234863182,0.9998066534414811,0.00033260117674630723
1469.2107679150938,1469.2107679150938,0.9992873991131761,0.00033269286140239824
1469.2177123436832,1469.2177123436832,0.9999721328539335,0.0003327322698846183
1469.2246567720856,1469.2246567720856,0.9995775611525979,0.000332650369921552
1469.2316012003025,1469.2316012003025,1.0000445911096656,0.00033282050376314757
1469.238545628519,1469.238545628519,1.0000512619078012,0.0003327253053076897
1469.2454900564567,1469.2454900564567,1.0001030088103682,0.00033287238336288913
1469.2524344843937,1469.2524344843937,1.0005552269668176,0.00033278917340183375
1469.2593789122377,1469.2593789122377,0.9998867286991941,0.0003326928759674265
1469.2663233398023,1469.2663233398023,1.0005635143254075,0.00033274730474891956
1469.27326776746,1469.27326776746,1.0003204115145803,0.00033261836817632706
1469.2802121948391,1469.2802121948391,1.0000069315758215,0.00033257681977882377
1469.2871566221243,1469.2871566221243,0.999662051256583,0.0003323888301833512
1469.2941010493164,1469.2941010493164,0.9993548149084649,0.0003322928106440355
1469.301045476415,1469.301045476415,0.9991076168680255,0.00033212764284649136
1469.3079899033278,1469.3079899033278,0.9984625080084616,0.00033187022321853015
1469.314934330148,1469.314934330148,0.9990528730788636,0.00033186599845181264
1469.3218787568744,1469.3218787568744,1.001263746905641,0.0003320535025002895
1469.3288231833212,1469.3288231833212,1.0022209227459782,0.00033193985546752295
1469.3357676097683,1469.3357676097683,1.001483771018677,0.0003318096084293747
1469.3427120362153,1469.3427120362153,1.0005173983240128,0.00033155848613298546
1469.3496564625698,1469.3496564625698,1.0007660254977027,0.00033143415927413807
1469.3566008886442,1469.3566008886442,0.9993839049502549,0.0003311704814437047
1469.3635453146258,1469.3635453146258,0.9987695329790567,0.00033098770208910076
1469.370489740421,1469.370489740421,0.9995570821796983,0.0003309609141560331
1469.377434166309,1469.377434166309,0.9996967565635959,0.00033089621846678363
1469.3843785919182,1469.3843785919182,0.9999091098499558,0.00033077502828976035
1469.3913230174342,1469.3913230174342,0.9995877264288111,0.0003307875852962068
1469.3982674427637,1469.3982674427637,0.9998812704298509,0.00033071416780309094
1469.4052118680931,1469.4052118680931,1.0013608502655744,0.00033079484720117307
1469.412156293236,1469.412156293236,1.000367420680131,0.00033060498832620524
1469.4191007182862,1469.4191007182862,1.000355390805918,0.0003305865052679039
1469.4260451431503,1469.4260451431503,0.9998413706479005,0.0003304738835565535
1469.4329895680144,1469.4329895680144,0.999265436338337,0.0003303747587884424
1469.4399339926917,1469.4399339926917,1.0001287439178772,0.0003304203815009532
1469.4468784171831,1469.4468784171831,0.99963036913239,0.0003303341472082006
1469.4538228416743,1469.4538228416743,0.9995352930441846,0.0003303910098521624
1469.4607672659793,1469.4607672659793,1.0002819455963647,0.0003304517426760881
1469.4677116903779,1469.4677116903779,1.0007551182698675,0.0003305129216249833
1469.4746561144036,1469.4746561144036,0.9999341629146883,0.00033052224798544466
1469.4816005381495,1469.4816005381495,0.9995930692629418,0.00033044041266064875
1469.4885449621754,1469.4885449621754,1.0003770428864573,0.00033051078462976606
1469.4954893858283,1469.4954893858283,1.000605144773378,0.0003306113214207751
1469.502433809482,1469.502433809482,0.9999553378516058,0.00033068597546661893
1469.5093782329488,1469.5093782329488,1.0003524566564372,0.00033066382592422515
1469.5163226562292,1469.5163226562292,0.9993266990817542,0.0003306460413378203
1469.5232670796026,1469.5232670796026,0.9993463558118212,0.00033063156213522873
1469.5302115026975,1469.5302115026975,0.9995459909271401,0.0003306815842968646
1469.537155925699,1469.537155925699,0.9997609216759218,0.00033081571795461745
1469.5441003486071,1469.5441003486071,1.0002701821171491,0.0003307728521499098
1469.5510447714216,1469.5510447714216,1.0002447768491045,0.00033084694036687983
1469.5579891941434,1469.5579891941434,1.000449556441445,0.00033100957248973547
1469.564933616679,1469.564933616679,1.000527759362502,0.0003310275802817231
1469.5718780390284,1469.5718780390284,1.0001042135842408,0.00033101618504122166
1469.5788224613777,1469.5788224613777,0.9996925951478721,0.0003310480727566035
1469.5857668836336,1469.5857668836336,1.0001573075123056,0.00033104164559718695
1469.592711305611,1469.592711305611,0.999421495027498,0.0003309759104625612
1469.59965572768,1469.59965572768,0.9993254233008508,0.0003309675193712092
1469.606600149471,1469.606600149471,1.0003443706828121,0.00033109692327987136
1469.6135445712616,1469.6135445712616,0.9999999562032906,0.00033118572014439627
1469.6204889926796,1469.6204889926796,0.9999040225764755,0.0003311010626309479
1469.6274334141906,1469.6274334141906,0.9995885186667728,0.00033118913800925877
1469.6343778356086,1469.6343778356086,1.0003940848586879,0.0003313196471779161
1469.6413222568403,1469.6413222568403,1.000827457828042,0.00033130779279562817
1469.6482666778859,1469.6482666778859,1.0000969886970352,0.00033118828496210307
1469.6552110989314,1469.6552110989314,0.9996458734611409,0.00033126658655604547
1469.662155519884,1469.662155519884,0.9997334361502356,0.0003313167740850376
1469.6690999405564,1469.6690999405564,1.0008607944088628,0.0003315628936167903
1469.6760443612293,1469.6760443612293,0.9998149405830544,0.00033151650045643087
1469.6829887818092,1469.6829887818092,0.9993744647181056,0.0003314614319871704
1469.6899332022028,1469.6899332022028,0.9993576500651861,0.00033145668442205716
1469.6968776225035,1469.6968776225035,1.0002583698161116,0.00033152207619550564
1469.7038220427105,1469.7038220427105,0.9995849772287422,0.00033165911138196994
1469.7107664627315,1469.7107664627315,0.999689473587166,0.00033169471548231196
1469.717710882752,1469.717710882752,0.9999047774386727,0.00033177822136718426
1469.7246553025875,1469.7246553025875,1.000357168845018,0.0003319126311391171
1469.7315997221426,1469.7315997221426,1.004059997363213,0.00033224196859793747
1469.7385441418842,1469.7385441418842,0.9998764973617394,0.0003314034423731577
1469.7454885614393,1469.7454885614393,1.000330554995395,0.00033159949317431776
1469.752432980529,1469.752432980529,0.9998359622123209,0.00033177325321423267
1469.7593773999915,1469.7593773999915,0.9996613481252197,0.0003319316776521431
1469.7663218189878,1469.7663218189878,1.0002756081456607,0.0003321176090031769
1469.773266238078,1469.773266238078,1.0001511554355873,0.0003321598316620445
1469.7802106568881,1469.7802106568881,0.9995720756112872,0.00033229790338446945
1469.7871550756981,1469.7871550756981,1.0000156612365736,0.0003323831192431967
1469.7940994943224,1469.7940994943224,1.0002137091790548,0.00033250404757765353
1469.8010439129462,1469.8010439129462,1.0004544162730993,0.0003325551407988937
1469.8079883311977,1469.8079883311977,1.0000350763933141,0.0003326301981761601
1469.8149327495425,1469.8149327495425,0.9997083049948022,0.00033259913275074333
1469.8218771677937,1469.8218771677937,1.0002175111874017,0.00033272755783845756
1469.8288215858588,1469.8288215858588,0.9998437401464718,0.00033269862791573523
1469.835766003831,1469.835766003831,0.9995193522825832,0.0003326358170009662
1469.8427104216166,1469.8427104216166,0.9997242968525043,0.0003326348730396687
1469.8496548393098,1469.8496548393098,1.000004331107594,0.00033271053268450827
1469.8565992569097,1469.8565992569097,0.9996633851163985,0.000332672834842003
1469.8635436744153,1469.8635436744153,1.0011439630591616,0.0003328019774323036
1469.870488091829,1469.870488091829,1.0017875087460646,0.0003328307149975409
1469.8774325089628,1469.8774325089628,0.9992194543876833,0.0003325977206633587
1469.8843769260966,1469.8843769260966,1.0002344627684823,0.00033256501282225546
1469.8913213432309,1469.8913213432309,1.0001191464230743,0.00033253898015900616
1469.8982657599922,1469.8982657599922,1.0005336458573473,0.00033256479996754146
1469.9052101768461,1469.9052101768461,0.9999043143032565,0.0003323608119466948
1469.9121545935147,1469.9121545935147,0.9997840589100271,0.00033240977203222275
1469.9190990100901,1469.9190990100901,0.9998943669372711,0.0003324698913501929
1469.9260434263856,1469.9260434263856,0.9999118493610402,0.00033239365176044374
1469.9329878427748,1469.9329878427748,0.9997671193368403,0.000332160303575904
1469.939932258977,1469.939932258977,0.9992188412646389,0.00033210910907132134
1469.9468766750865,1469.9468766750865,0.9998842680194882,0.0003320271153370241
1469.9538210910098,1469.9538210910098,1.0007665775035561,0.00033196685989951927
1469.9607655068398,1469.9607655068398,1.0000181603693328,0.0003318251328656443
1469.967709922577,1469.967709922577,0.9995800594104454,0.000331737960789505
1469.9746543381273,1469.9746543381273,0.999068965050365,0.00033153117163810914
1469.9815987536779,1469.9815987536779,1.0014420184871926,0.0003316728924688711
1469.9885431690423,1469.9885431690423,1.0022986630454631,0.00033183818099864163
1469.9954875843134,1469.9954875843134,1.003509819842248,0.0003318183568774845
1470.0024319993988,1470.0024319993988,1.0000561659978033,0.0003312533439658309
1470.0093764144835,1470.0093764144835,1.0004501539642103,0.00033128920718405184
1470.0163208292893,1470.0163208292893,0.9997040242296299,0.0003311403700445867
1470.0232652440948,1470.0232652440948,0.9993615248076309,0.0003310455232492009
1470.0302096589003,1470.0302096589003,0.9997141299946198,0.00033108724768802226
1470.0371540732406,1470.0371540732406,0.9996661723516944,0.0003309655771285522
1470.0440984877664,1470.0440984877664,1.000341759016747,0.00033101818398270286
