time,time,flux,flux_err
1325.2997802080652,1325.2997802080652,0.9998987738990149,0.00019497972441701345
1325.3081136283274,1325.3081136283274,0.9998495127450845,0.0001950423479709304
1325.3164470487843,1325.3164470487843,1.0002091406519595,0.00019511658460142725
1325.3247804694151,1325.3247804694151,1.0001611895292506,0.00019520248786843565
1325.3324194385,1325.3324194385,1.0000980271038162,0.00017827477816035172
1325.339363955992,1325.339363955992,0.9997826489268696,0.00017831960730188117
1325.3463084736006,1325.3463084736006,1.0000791441028842,0.00017843651288277745
1325.3532529913257,1325.3532529913257,0.9999026011736074,0.00017851453822908926
1325.3601975091901,1325.3601975091901,1.0001681263201774,0.00017865954006817032
1325.3671420271712,1325.3671420271712,0.9999024222976214,0.00017872945423214805
1325.3740865452685,1325.3740865452685,1.0000529979780326,0.0001788324220901834
1325.3810310635058,1325.3810310635058,1.0001798136618556,0.00017893288390095005
1325.3879755818475,1325.3879755818475,0.9997564672087604,0.00017897637132928656
1325.3949201003056,1325.3949201003056,0.9999933945303937,0.00017911021412405934
1325.4018646188574,1325.4018646188574,0.9999580568658871,0.00017919440057416952
1325.4088091375365,1325.4088091375365,1.0000649857813726,0.00017929774063800785
1325.415753656356,1325.415753656356,0.9996888349510542,0.00017935679182547176
1325.4226981752568,1325.4226981752568,1.0001858251827878,0.00017950279679446437
1325.4296426942851,1325.4296426942851,1.0001126488720025,0.0001795886798806484
1325.4365872134072,1325.4365872134072,1.000327882186283,0.00017971578369882155
1325.4435317326454,1325.4435317326454,1.000124881049985,0.0001797973120218732
1325.4504762519887,1325.4504762519887,0.9998391041709068,0.00017988284508068463
1325.4574207714363,1325.4574207714363,0.9997657873605881,0.00017998437731546452
1325.4643652910006,1325.4643652910006,1.0000854781583464,0.0001800987977094044
1325.4713098106463,1325.4713098106463,0.9998982381330126,0.00018019767437557464
1325.4782543304086,1325.4782543304086,0.9998681861515815,0.0001803010281960408
1325.485198850252,1325.485198850252,1.0000685713086548,0.00018043624870530734
1325.4921433702125,1325.4921433702125,1.0000119085623518,0.00018054243394514225
1325.4990878902772,1325.4990878902772,0.9999716634898712,0.00018066443273495402
1325.506032410435,1325.506032410435,1.0000139972089817,0.00018078332466773351
1325.5129769306745,1325.5129769306745,1.0002386179287548,0.00018089445796807519
1325.5199214510303,1325.5199214510303,1.0000898823221354,0.00018099594808215294
1325.5268659714443,1325.5268659714443,0.9999366541548309,0.00018110745056614913
1325.5338104919865,1325.5338104919865,1.0000237210300553,0.00018121084733998014
1325.54075501261,1325.54075501261,0.9996430541514852,0.00018126570970450692
1325.5476995333156,1325.5476995333156,0.9999243784432463,0.0001813888940090953
1325.5546440541134,1325.5546440541134,0.9997749315520708,0.00018146552623664103
1325.5615885750053,1325.5615885750053,1.0001388306741306,0.00018158806380934794
1325.5685330959664,1325.5685330959664,1.0003981939674058,0.00018167729467621416
1325.5754776170206,1325.5754776170206,1.0002925325891676,0.00018172761263390486
1325.5824221381686,1325.5824221381686,0.9996997778663606,0.0001817512035342099
1325.5893666593968,1325.5893666593968,0.9997319094026565,0.00018180822741627474
1325.5963111806961,1325.5963111806961,0.9999695832095767,0.00018187784122472065
1325.6032557020876,1325.6032557020876,0.9998557892270981,0.0001818923266399525
1325.6102002235614,1325.6102002235614,0.9999579737914821,0.00018193123556843642
1325.6171447451047,1325.6171447451047,1.0001496498099525,0.00018194703871326722
1325.6240892667413,1325.6240892667413,0.9998378070911139,0.00018193887159828067
1325.6310337884358,1325.6310337884358,1.000325273244941,0.0001819673735286481
1325.6379783102122,1325.6379783102122,0.9999847419323945,0.00018192821991316131
1325.6449228320578,1325.6449228320578,0.9999242925996559,0.00018188905018140078
1325.6518673540088,1325.6518673540088,0.999957326073058,0.00018187387844620842
1325.6588118759944,1325.6588118759944,1.0000502168636325,0.00018185030961916847
1325.6657563980616,1325.6657563980616,0.9999236829928435,0.00018183336088919993
1325.67270092021,1325.67270092021,0.9999280437072222,0.00018180069391768712
1325.6796454424407,1325.6796454424407,1.0001184855354233,0.00018180663000914025
1325.6865899647057,1325.6865899647057,0.9998566585028426,0.0001817710640846213
1325.693534487052,1325.693534487052,1.0001341162759894,0.00018179404689602075
1325.7004790094688,1325.7004790094688,1.000053134829216,0.0001817829825721446
1325.7074235319783,1325.7074235319783,1.0000984950834935,0.0001817970821744441
1325.7143680545225,1325.7143680545225,0.9995982310246845,0.0001817537035361943
1325.7213125771484,1325.7213125771484,1.0000283988462038,0.00018179921933652592
1325.7282570998095,1325.7282570998095,1.000212151788493,0.0001818458447324463
1325.7352016225636,1325.7352016225636,1.0001072011952872,0.0001818713903131456
1325.7421461453407,1325.7421461453407,1.0000002148795322,0.0001818734644415984
1325.7490906682344,1325.7490906682344,1.0000348825422019,0.00018190216547971078
1325.7560351911634,1325.7560351911634,0.9997583641594143,0.0001819228681545921
1325.76297971415,1325.76297971415,1.0001516997053084,0.000181982775129985
1325.7699242372069,1325.7699242372069,0.9999821632906782,0.00018199822562872325
1325.7768687602868,1325.7768687602868,0.9998846758364701,0.00018202589072139607
1325.7838132834715,1325.7838132834715,1.0000729617334208,0.00018207404279591328
1325.790757806691,1325.790757806691,0.9999540059770139,0.00018209221398610945
1325.7977023299575,1325.7977023299575,1.0000265263429697,0.00018211150507976116
1325.8046468532823,1325.8046468532823,0.9999563908098358,0.0001821124049452007
1325.8115913766646,1325.8115913766646,0.999950786170125,0.00018215256991177688
1325.8185359001059,1325.8185359001059,1.000104955311259,0.00018216110835522542
1325.825480423593,1325.825480423593,0.9999267423898196,0.00018216293217859452
1325.8324249471389,1325.8324249471389,1.0003426502042587,0.00018218029861573494
1325.8393694707195,1325.8393694707195,0.9999253039790237,0.0001821469524249412
1325.8463139943813,1325.8463139943813,1.0000959270842862,0.00018213670801354623
1325.8532585180546,1325.8532585180546,0.9995895215182878,0.0001820691321196025
1325.86020304181,1325.86020304181,0.9999802707244306,0.00018204390906242994
1325.8671475656004,1325.8671475656004,0.9999080706753828,0.00018200026544678698
1325.8740920894488,1325.8740920894488,1.0001562035129024,0.00018194641511200878
1325.8810366133205,1325.8810366133205,0.9999269283611287,0.0001818633902475028
1325.887981137262,1325.887981137262,1.0000202441988397,0.0001818169042274844
1325.8949256612264,1325.8949256612264,1.000447093145762,0.00018179712853580047
1325.9018701852613,1325.9018701852613,0.9997811464509884,0.0001816927354972657
1325.9088147093194,1325.9088147093194,1.000035082992736,0.00018167115711089217
1325.9157592334466,1325.9157592334466,0.9999527821574425,0.00018160734648687576
1325.922703757598,1325.922703757598,1.0001533288381679,0.0001815997073643418
1325.9296482817838,1325.9296482817838,0.999925849952989,0.00018155445383088065
1325.9365928060395,1325.9365928060395,0.9997869208953878,0.0001814977375748983
1325.9435373303302,1325.9435373303302,0.9998870356187867,0.00018148015804367025
1325.9504818546327,1325.9504818546327,0.9999165987010716,0.00018143932748069955
1325.9574263789932,1325.9574263789932,1.0001164263005966,0.00018144880735721354
1325.9654820272985,1325.9654820272985,1.000012636972813,0.00018141241940264444
1325.972704332724,1325.972704332724,0.9999493735019277,0.0001813976222059842
1325.9796488572124,1325.9796488572124,1.0002497299627788,0.00018141299801237353
1325.9865933817478,1325.9865933817478,1.0002292056506943,0.00018140755787256023
1325.993537906271,1325.993537906271,1.0002646002396516,0.00018140154236624627
1326.0004824308999,1326.0004824308999,0.99993248021888,0.0001813595927388239
1326.0074269555275,1326.0074269555275,0.9996856823390786,0.00018135991122251717
1326.0143714801911,1326.0143714801911,1.00005447985707,0.00018142147152176648
1326.021316004901,1326.021316004901,0.9999446008517306,0.00018144259166898505
1326.0282605296343,1326.0282605296343,0.9999566759873794,0.00018148117834410058
1326.0352050544138,1326.0352050544138,1.0000757281947799,0.00018147150897203113
1326.0421495792166,1326.0421495792166,1.0000239773311321,0.00018147011402532036
1326.0490941040314,1326.0490941040314,0.9998150605836212,0.00018141889858165866
1326.056038628904,1326.056038628904,1.000254630709092,0.00018144732615931516
1326.0629831538233,1326.0629831538233,0.999981379408819,0.0001814302039563928
1326.0699276787543,1326.0699276787543,1.0001988291467363,0.0001814471537841757
1326.07687220372,1326.07687220372,0.9997030922196668,0.0001813979306430806
1326.0838167287097,1326.0838167287097,0.9998572028453478,0.0001814016244916301
1326.0907612537453,1326.0907612537453,1.0001097685247755,0.00018141360171479
1326.0977057788045,1326.0977057788045,1.000004161222487,0.0001813903700962004
1326.1046503038754,1326.1046503038754,1.0000380795481343,0.00018138271315973578
1326.111594828992,1326.111594828992,1.0000657953860366,0.00018135445083424022
1326.1185393541332,1326.1185393541332,0.9999513219471761,0.0001813556500445952
1326.1254838793081,1326.1254838793081,0.99980913924399,0.00018130438356669135
1326.132428404484,1326.132428404484,1.0000009666981504,0.00018131125887970942
1326.1393729297174,1326.1393729297174,1.0000750238765017,0.00018129880768811201
1326.146317454963,1326.146317454963,1.0003552454180653,0.00018133287482904471
1326.1532619802315,1326.1532619802315,0.999975274043184,0.00018127052950311527
1326.1602065055351,1326.1602065055351,1.0000197546232807,0.0001812451589954518
1326.1671510308504,1326.1671510308504,0.9999747730276944,0.00018123781824299118
1326.1740955562,1326.1740955562,0.9996179273834326,0.0001811838329138864
1326.1810400815855,1326.1810400815855,0.9999480090068831,0.00018118694665152953
1326.1879846069703,1326.1879846069703,1.0001685195838017,0.0001811977924858368
1326.1949291324133,1326.1949291324133,0.9998925555488949,0.00018115177490697797
1326.2018736578104,1326.2018736578104,1.0000319152601453,0.00018114246752219118
1326.2088181833235,1326.2088181833235,1.0003353457815662,0.0001811500196138602
1326.2157627087897,1326.2157627087897,0.9999883799910266,0.00018109545549040027
1326.222707234303,1326.222707234303,0.9999092028639559,0.00018108284172758886
1326.2296517598274,1326.2296517598274,0.9998842071704843,0.00018104801347697342
1326.2365962853873,1326.2365962853873,1.0000930187129335,0.0001810549895530829
1326.2435408109582,1326.2435408109582,0.9996591659170271,0.000181000788329833
1326.2504853365651,1326.2504853365651,1.0002081219474792,0.00018102814982360715
1326.2574298621596,1326.2574298621596,1.0001658724113205,0.00018101163460606788
1326.2643743878007,1326.2643743878007,0.9999618276898389,0.00018097002151571718
1326.2713189134417,1326.2713189134417,0.9998078510796127,0.00018093617057251038
1326.2782634391176,1326.2782634391176,1.0001129364107073,0.0001809410559572994
1326.2852079648173,1326.2852079648173,0.9999585063724741,0.00018091271754660645
1326.292152490528,1326.292152490528,1.000171388151683,0.0001809226918564999
1326.2990970162741,1326.2990970162741,0.9997955675659979,0.00018085858650179596
1326.3060415420198,1326.3060415420198,0.9998887328497817,0.00018085773904751717
1326.3129860677661,1326.3129860677661,1.0000468309173516,0.0001808593041795063
1326.3199305935352,1326.3199305935352,1.0001375427996835,0.0001808601629388583
1326.3268751193275,1326.3268751193275,1.000384337198501,0.00018089608655227655
1326.3338196451434,1326.3338196451434,0.9998479068333299,0.00018081788834469357
1326.3407641709591,1326.3407641709591,0.9999794512634171,0.00018084385538269887
1326.3488198209525,1326.3488198209525,1.0002103204656212,0.00018086750351014696
1326.3574310330168,1326.3574310330168,1.0000861534888317,0.00018084616155959312
1326.3643755589026,1326.3643755589026,1.0000468582215167,0.00018084034011060795
1326.3713200848,1326.3713200848,0.999601586351082,0.00018081682432173504
1326.378264610697,1326.378264610697,0.999980128098817,0.00018084117238168783
1326.385209136629,1326.385209136629,1.0001257501123058,0.00018086573479169412
1326.3921536625614,1326.3921536625614,1.000017023793748,0.0001808541933138091
1326.3990981885056,1326.3990981885056,0.9999239112093218,0.00018084615424469674
1326.4060427144723,1326.4060427144723,1.000281511470688,0.00018088187737803086
1326.4129872404517,1326.4129872404517,0.99986026636514,0.00018084075778206373
1326.4199317664418,1326.4199317664418,1.0000203354393014,0.00018084715983264797
1326.4268762924435,1326.4268762924435,1.0000319927129901,0.0001808457977528429
1326.4338208184572,1326.4338208184572,0.9998570884994704,0.0001808380679463739
1326.4407653444594,1326.4407653444594,0.999769750963883,0.00018082720283890143
1326.4477098704963,1326.4477098704963,1.0000237824254212,0.0001808627859254288
1326.454654396568,1326.454654396568,1.000325461881116,0.00018088890761719785
1326.4615989226284,1326.4615989226284,1.000188308592987,0.00018087612766080598
1326.4685434487003,1326.4685434487003,0.9999124954685502,0.00018085333265098475
1326.475487974772,1326.475487974772,0.9998626630124703,0.00018083890690505442
1326.4824325008674,1326.4824325008674,1.0002271371372213,0.00018087211675423416
1326.4893770269741,1326.4893770269741,0.9997077956085745,0.00018082882819873603
1326.496321553081,1326.496321553081,1.0001694568518382,0.00018086311477799813
1326.5032660791992,1326.5032660791992,0.9998643129869796,0.0001808287175796195
1326.5102106053296,1326.5102106053296,1.0001177236476133,0.00018085734156438868
1326.517155131471,1326.517155131471,0.9998894982432358,0.0001808375048717681
1326.5240996576247,1326.5240996576247,1.0001897545984115,0.00018088267714006396
1326.531044183778,1326.531044183778,1.0001988455627049,0.0001808894127626022
1326.537988709943,1326.537988709943,1.0001235143697629,0.0001808933889286277
1326.5449332361081,1326.5449332361081,1.0000810726383802,0.0001808911721840051
1326.5518777622847,1326.5518777622847,0.9997938713179488,0.00018086944411231385
1326.5588222884846,1326.5588222884846,0.9998172524611911,0.00018087185208095298
1326.5657668146846,1326.5657668146846,0.9997246008122783,0.00018085178643863694
1326.5727113408843,1326.5727113408843,1.0001312102510673,0.00018087256561771206
1326.579655867096,1326.579655867096,1.0000079248686948,0.00018086947476747913
1326.5866003933074,1326.5866003933074,0.9998827136338123,0.00018085115575193294
1326.5935449195426,1326.5935449195426,1.0000961642106776,0.00018086816541431814
1326.6004894457776,1326.6004894457776,1.0001390650442363,0.00018085595040864084
1326.6074339720005,1326.6074339720005,1.0002526423032825,0.00018087119101717867
1326.614378498259,1326.614378498259,1.0001448216726585,0.00018086630861817397
1326.6213230244934,1326.6213230244934,0.999928445776515,0.00018085324555807558
1326.6282675507518,1326.6282675507518,1.0001284380801139,0.00018085949361658986
1326.6352120770098,1326.6352120770098,0.9997386088501757,0.00018081782699477347
1326.6421566032798,1326.6421566032798,0.9998030091501775,0.00018081375189593193
1326.6491011295498,1326.6491011295498,0.9998769048375411,0.00018080129461446725
1326.656045655831,1326.656045655831,0.9998804231621504,0.00018079798849108115
1326.6629901821125,1326.6629901821125,1.000182663984591,0.0001807806357336312
1326.6699347083936,1326.6699347083936,0.9998960415919065,0.00018074036994911738
1326.6768792346752,1326.6768792346752,1.0000882667660362,0.00018073050720514904
1326.6838237609797,1326.6838237609797,1.0000869553258664,0.0001807072058507316
1326.6921571925272,1326.6921571925272,0.9999394565336978,0.00018065622214616291
1326.6991017188434,1326.6991017188434,1.000140183295572,0.00018064975745792937
1326.7060462451248,1326.7060462451248,1.000166280076578,0.00018060454368491928
1326.7138241146122,1326.7138241146122,0.9999498092048205,0.000180588007125945
1326.721324203035,1326.721324203035,0.9998507619313444,0.00018055115959009818
1326.7282687293161,1326.7282687293161,1.00005693611026,0.00018054254632090774
1326.735213255644,1326.735213255644,0.9999608485484115,0.0001805078291085156
1326.7421577819725,1326.7421577819725,0.9999687125120527,0.0001804937496844096
1326.7491023082998,1326.7491023082998,1.0000188193015451,0.00018048372518210954
1326.756046834628,1326.756046834628,0.9999271506662801,0.00018045415819948677
1326.7629913609562,1326.7629913609562,0.9999699468687728,0.00018043949849558816
1326.7699358872842,1326.7699358872842,1.0000651550399327,0.0001804385638730779
1326.776880413612,1326.776880413612,1.0001109316153212,0.00018043493379403698
1326.78382493994,1326.78382493994,0.9998526309910554,0.00018039689502258386
1326.7907694662686,1326.7907694662686,1.000150825401859,0.0001804142060337015
1326.7977139925958,1326.7977139925958,0.9997833211651944,0.00018038109480039585
1326.8046585189713,1326.8046585189713,1.0002081777929557,0.00018040492174369206
1326.8116030453102,1326.8116030453102,1.0001503804762346,0.00018039620357194138
1326.8185475716384,1326.8185475716384,1.0001123001814416,0.00018038082459958241
1326.8254920979664,1326.8254920979664,0.9997962931519236,0.00018035776425544378
1326.8324366242946,1326.8324366242946,0.9999749816900081,0.00018037185279505321
1326.8393811506805,1326.8393811506805,1.0004654207755386,0.00018040140721796376
1326.8463256770085,1326.8463256770085,0.9996539426549795,0.00018032926696131963
1326.8532702033365,1326.8532702033365,1.0000634372014745,0.0001803372293248757
1326.8602147296647,1326.8602147296647,1.0000810929079291,0.00018033104725824175
1326.8671592560277,1326.8671592560277,0.9999914764120124,0.00018029728156804413
1326.8741037823788,1326.8741037823788,1.0001005262503575,0.00018029265197434092
1326.8810483087066,1326.8810483087066,0.9998325356809538,0.00018024039783772904
1326.887992835035,1326.887992835035,0.9999729171849632,0.0001802194082784729
1326.894937361374,1326.894937361374,1.0000333069077647,0.00018018609943268435
1326.9018818877491,1326.9018818877491,0.999828982287015,0.00018012648406557117
1326.9088264140769,1326.9088264140769,1.0000452156892667,0.00018012034757228842
1326.9157709404049,1326.9157709404049,0.9999511503557901,0.000180073988027322
1326.9227154667328,1326.9227154667328,1.00006228633755,0.00018004420668169598
1326.929659993061,1326.929659993061,1.0001056355532936,0.0001800124210144978
1326.936604519389,1326.936604519389,0.9997722589131767,0.00017995477567639894
1326.9435490457167,1326.9435490457167,1.0001021742159357,0.000179924009283958
1326.9504935720452,1326.9504935720452,1.0002744018243261,0.0001799280744489635
1326.957438098373,1326.957438098373,1.0000087023655195,0.00017987162346500728
1326.964382624701,1326.964382624701,0.9998843707878822,0.0001798265995604046
1326.971327151029,1326.971327151029,1.000056962881679,0.00017980159803183
1326.9782716773568,1326.9782716773568,1.0000662960189395,0.00017976317749165586
1326.9852162036852,1326.9852162036852,0.9999246098226704,0.00017973567431237112
1326.9921607300132,1326.9921607300132,0.9996794279118018,0.00017970207548187233
1326.9991052563412,1326.9991052563412,1.0000748898919611,0.00017971252551383062
1327.0060497826225,1327.0060497826225,1.0000431580691624,0.0001796872640546698
1327.012994308939,1327.012994308939,1.0000701665392924,0.00017970331987544167
1327.0199388352667,1327.0199388352667,1.0000653134644228,0.00017967438184351238
1327.0268833615366,1327.0268833615366,1.000035590036535,0.00017968407218307378
1327.0338278878648,1327.0338278878648,0.9998594439025054,0.00017965760978760843
1327.0407724141455,1327.0407724141455,1.0001257146088154,0.0001796754500323606
1327.0477169404508,1327.0477169404508,0.999883654067076,0.00017964924094966326
1327.0546614667321,1327.0546614667321,1.0000984170993295,0.0001796517568198721
