time,time,flux,flux_err
1385.9513233457992,1385.9513233457992,0.9999806950295674,0.0014204047951531106
1385.9596565104714,1385.9596565104714,0.9998359068188559,0.001420257464753996
1385.967989675143,1385.967989675143,0.9992912778294215,0.0014200009683052657
1385.9763228398824,1385.9763228398824,1.0002705702795351,0.0014207212183089905
1385.9839615742114,1385.9839615742114,1.0010139966017726,0.0012969514371769246
1385.9909058781864,1385.9909058781864,0.9996170273169129,0.0012963885309845093
1385.9978501821502,1385.9978501821502,1.0023647566970049,0.001296536127676664
1386.0047944861494,1386.0047944861494,0.9982793019214065,0.0012961996232067079
1386.011738790148,1386.011738790148,0.9991516632218221,0.001295533175328757
1386.01868309417,1386.01868309417,0.9989109595804632,0.001295464242683079
1386.0256273981927,1386.0256273981927,1.0004601193584588,0.0012958191883437333
1386.032571702261,1386.032571702261,1.0005693315861282,0.001296153838750429
1386.0395160063176,1386.0395160063176,1.000050748497698,0.001295267044310636
1386.046460310387,1386.046460310387,1.0015482732587335,0.0012955228773617407
1386.0534046144794,1386.0534046144794,0.9991676234969817,0.0012946203841399078
1386.0603489185821,1386.0603489185821,0.9996993957337569,0.0012954704286888235
1386.0672932226978,1386.0672932226978,0.9996543415043101,0.0012954323967992343
1386.0742375268367,1386.0742375268367,0.9993002484903126,0.0012951562841171135
1386.0811818309744,1386.0811818309744,1.0013602578081553,0.0012954412180863975
1386.0881261351365,1386.0881261351365,0.9996600047997113,0.0012951948478314348
1386.0950704393338,1386.0950704393338,1.0001472302221832,0.001295341198940723
1386.1020147434833,1386.1020147434833,1.0000593374478568,0.001295646870093739
1386.1089590476915,1386.1089590476915,0.9996987222639209,0.0012950082781672406
1386.115903351912,1386.115903351912,1.0000763097798755,0.0012956964552223971
1386.1228476561669,1386.1228476561669,0.9989446016292567,0.0012948863414929171
1386.1297919603983,1386.1297919603983,1.0021474080313344,0.0012959520051567903
1386.136736264654,1386.136736264654,0.9983329481912729,0.0012946945777946514
1386.143680568932,1386.143680568932,1.0008120957428506,0.0012954191620002185
1386.1506248732094,1386.1506248732094,1.000572467016108,0.0012956593991926986
1386.1575691775001,1386.1575691775001,0.9981617371039306,0.001294821332087018
1386.1645134818252,1386.1645134818252,0.9996329345770076,0.0012956388780241983
1386.1714577861376,1386.1714577861376,1.0003472157754125,0.0012954953075508357
1386.178402090486,1386.178402090486,1.0008618293564955,0.0012956729727347054
1386.185346394846,1386.185346394846,1.0008160870073524,0.0012958104655023254
1386.1922906991936,1386.1922906991936,1.0007007993003252,0.0012958894901739487
1386.1992350035766,1386.1992350035766,1.0006219119789808,0.0012961476863665466
1386.2061793079718,1386.2061793079718,0.998640081285903,0.0012957809722855989
1386.2131236123664,1386.2131236123664,0.9998295969787219,0.0012963349779244516
1386.2200679167952,1386.2200679167952,1.0003456428984376,0.0012959458522246825
1386.2270122212256,1386.2270122212256,0.999629603687182,0.0012960472158464055
1386.2339565256668,1386.2339565256668,1.000835547069347,0.0012965803361220062
1386.240900830119,1386.240900830119,0.997149789626538,0.0012954052534034598
1386.247845134596,1386.247845134596,0.999639969709863,0.0012961353301672624
1386.2547894390955,1386.2547894390955,1.000854917614043,0.0012963595973685754
1386.261733743594,1386.261733743594,1.0011149407267375,0.0012957221891992754
1386.268678048094,1386.268678048094,1.0001829930513029,0.0012955147908896869
1386.275622352594,1386.275622352594,0.9994098985201789,0.001295060011416662
1386.2825666571393,1386.2825666571393,1.0013614799786836,0.0012950576277878435
1386.2895109616736,1386.2895109616736,0.9988622676344923,0.0012944488389290624
1386.2964552662315,1386.2964552662315,0.9996218039546951,0.0012939613970873215
1386.3033995708006,1386.3033995708006,1.0004625645943797,0.001294760190831574
1386.3103438753928,1386.3103438753928,1.0003843933581724,0.0012941892860108928
1386.317288179986,1386.317288179986,1.0002028093902655,0.0012947747814345048
1386.3242324845903,1386.3242324845903,1.0003994938598912,0.0012947430231253867
1386.3311767892171,1386.3311767892171,0.9990819912852278,0.0012942078244461274
1386.3381210938564,1386.3381210938564,1.001680454066369,0.0012952467049305236
1386.345065398508,1386.345065398508,0.9989948691377102,0.001294373683100009
1386.3520097031462,1386.3520097031462,0.9983336329491582,0.0012941311893098673
1386.3589540078208,1386.3589540078208,0.9998748314271225,0.0012952863364658603
1386.36700940125,1386.36700940125,1.000629298596829,0.0012952736468818866
1386.3742314781382,1386.3742314781382,1.0002824882173498,0.0012956945060091363
1386.3811757828475,1386.3811757828475,1.0006545169796253,0.0012950892806850246
1386.3881200875685,1386.3881200875685,0.9999941255075209,0.0012954028622467104
1386.3950643923004,1386.3950643923004,0.9998594424726184,0.0012948450447531114
1386.4020086970443,1386.4020086970443,0.9996067960616136,0.0012951121504175662
1386.4089530017998,1386.4089530017998,0.9994849568740068,0.0012954385338462804
1386.4158973065673,1386.4158973065673,1.0002026317220523,0.0012951292141090997
1386.4228416113572,1386.4228416113572,1.002097584301164,0.0012956032007631943
1386.4297859161481,1386.4297859161481,0.9972389797597027,0.0012946243350271673
1386.4367302209394,1386.4367302209394,1.0005953724755778,0.001295377046244024
1386.443674525764,1386.443674525764,1.000411133744164,0.0012953793596091902
1386.4506188305775,1386.4506188305775,0.998923823324235,0.0012948272149718445
1386.4575631354269,1386.4575631354269,1.0002838165705694,0.0012954448220770306
1386.4645074402747,1386.4645074402747,1.0008467189040176,0.0012947673288019954
1386.471451745147,1386.471451745147,0.9998962875336945,0.001294256643136736
1386.4783960500076,1386.4783960500076,1.000842261238666,0.0012946163603576458
1386.4853403549027,1386.4853403549027,0.9992125135073939,0.0012938804236808322
1386.4922846597976,1386.4922846597976,1.0007614164729532,0.001294716170731177
1386.4992289647048,1386.4992289647048,0.9983111047364028,0.001293235621276996
1386.5061732696122,1386.5061732696122,1.0008944618778186,0.0012944013708003032
1386.5131175745532,1386.5131175745532,0.9987807170962515,0.0012936650736552393
1386.5200618794836,1386.5200618794836,1.0001940524781165,0.0012934525067605173
1386.527006184449,1386.527006184449,1.0027052309785252,0.001294833960742598
1386.5339504894137,1386.5339504894137,1.0002570936898767,0.0012940312233800022
1386.5408947943904,1386.5408947943904,0.9978690517213525,0.0012939401758784203
1386.547839099368,1386.547839099368,1.0021624354401888,0.0012942514058747773
1386.5547834043794,1386.5547834043794,0.9994506210895432,0.0012937438795570973
1386.5625610259772,1386.5625610259772,0.9995098263848595,0.0012946362770508554
1386.5700608754073,1386.5700608754073,0.9988944672046189,0.001293996384821476
1386.5770051804425,1386.5770051804425,0.9992578114795213,0.0012948845236177553
1386.583949485465,1386.583949485465,1.0000236570688998,0.0012947167748680593
1386.5908937905472,1386.5908937905472,1.000496861929453,0.0012950324161401581
1386.5978380956053,1386.5978380956053,0.9996838259207204,0.0012946711832280632
1386.6047824006516,1386.6047824006516,1.0006485575888395,0.0012952107212100086
1386.611726705768,1386.611726705768,1.0005199235590476,0.0012948683570105338
1386.6186710108734,1386.6186710108734,0.9997818170091988,0.0012948480849500157
1386.6256153159666,1386.6256153159666,0.9998366468891792,0.001294559189485765
1386.632559621094,1386.632559621094,0.9995216252467454,0.0012942396797820466
1386.6395039262225,1386.6395039262225,0.9992597183524345,0.0012945969055993716
1386.6464482313627,1386.6464482313627,0.9998510168900472,0.001293724193433014
1386.6533925365015,1386.6533925365015,1.0009387634319995,0.0012949815577219914
1386.6603368416768,1386.6603368416768,1.0008683622067296,0.0012948930301637266
1386.6672811468518,1386.6672811468518,0.9999363489874638,0.001294130271348729
1386.674225452026,1386.674225452026,1.000184437065303,0.0012944234105628381
1386.6811697572236,1386.6811697572236,0.9991264672402865,0.0012934994822959747
1386.6881140624337,1386.6881140624337,1.0008315881720544,0.001294777980727029
1386.6950583676314,1386.6950583676314,0.9994262826341768,0.001294039692616389
1386.7020026728524,1386.7020026728524,1.0003071739421698,0.0012941159444029432
1386.708946978097,1386.708946978097,0.9995300583808895,0.0012942944145301473
1386.715891283342,1386.715891283342,0.9998963773986815,0.0012939551010363625
1386.7228355885975,1386.7228355885975,0.9992553387506289,0.001292923867769547
1386.7297798938655,1386.7297798938655,0.998293520230502,0.0012929649129987226
1386.7367241991456,1386.7367241991456,0.999217222935109,0.0012931107908385217
1386.7436685044129,1386.7436685044129,0.9986258556937532,0.0012926971891780534
1386.750612809715,1386.750612809715,1.003202540111446,0.0012942567341122143
1386.7575571150185,1386.7575571150185,1.000450325922119,0.0012935071447760758
1386.764501420333,1386.764501420333,1.0007762457037825,0.0012932287441563266
1386.772279042303,1386.772279042303,0.9997143465726867,0.0012935471366091152
1386.7797788920827,1386.7797788920827,1.0007243660040064,0.0012929845291348757
1386.7867231973971,1386.7867231973971,0.9984972913497596,0.0012930984723401825
1386.793667502769,1386.793667502769,1.000133651897904,0.001293070651950242
1386.8006118081416,1386.8006118081416,0.9989280887298104,0.0012927270228642225
1386.8075561135147,1386.8075561135147,1.0006559888744078,0.001293564773893624
1386.8145004188875,1386.8145004188875,0.9999543565667004,0.0012941344425915946
1386.821444724306,1386.821444724306,1.0002407735498398,0.001294433353984179
1386.828389029702,1386.828389029702,0.9984222617390074,0.0012942469951039751
1386.835333335122,1386.835333335122,1.0010080402973887,0.0012940919101393415
1386.8422776405516,1386.8422776405516,1.0007252344267796,0.0012944353704515312
1386.849221945983,1386.849221945983,1.00025035890188,0.001294530535450308
1386.8561662514255,1386.8561662514255,1.000318389380799,0.0012945444015520526
1386.8631105568795,1386.8631105568795,1.0009190236500802,0.0012952270338479634
1386.870054862345,1386.870054862345,0.9976209760236868,0.0012942857997633515
1386.8769991678225,1386.8769991678225,0.9997076553570725,0.0012951082902886903
1386.8839434733002,1386.8839434733002,1.0010738311504466,0.0012951419719545454
1386.8908877787885,1386.8908877787885,1.0009365701341626,0.0012945467652421077
1386.8978320842891,1386.8978320842891,0.9989533181114041,0.0012940607732182213
1386.9047763897902,1386.9047763897902,0.9990022864113932,0.001294489439697908
1386.9117206953138,1386.9117206953138,1.0000711868651817,0.0012945095434789148
1386.918665000861,1386.918665000861,0.9998196876134644,0.0012946114095464493
1386.9256093063852,1386.9256093063852,0.9997915829480919,0.0012943176174577008
1386.9325536119327,1386.9325536119327,1.0011015450494019,0.001294408150377315
1386.9394979174904,1386.9394979174904,1.0016426288702822,0.0012944079003565697
1386.9464422230617,1386.9464422230617,0.9993726018130671,0.0012940721643806964
1386.9533865286326,1386.9533865286326,0.9999786445523025,0.0012941192922454332
1386.9603308342257,1386.9603308342257,1.0002945357690796,0.0012942216962031974
1386.967275139808,1386.967275139808,0.9996473002590761,0.0012938191636922432
1386.9742194454134,1386.9742194454134,0.9984986553643793,0.0012943627099303112
1386.9825526121517,1386.9825526121517,0.9999116884885272,0.0012945168819773957
1386.989496917768,1386.989496917768,1.0011410777552894,0.001293892470047678
1386.996441223409,1386.996441223409,1.0001477322521795,0.0012944285622023852
1387.003385529038,1387.003385529038,0.998170167909359,0.0012947434547775838
1387.0103298347008,1387.0103298347008,1.0006911110006542,0.0012945151817530716
1387.0172741403644,1387.0172741403644,1.0002136976797982,0.0012940473532523397
1387.024218446029,1387.024218446029,1.0003855499499719,0.001294251840065075
1387.0311627516924,1387.0311627516924,0.9998618146475117,0.0012943988823047477
1387.0381070573671,1387.0381070573671,1.0011564734465739,0.001294512693578833
1387.0450513630774,1387.0450513630774,0.9994995652911924,0.0012946986460159126
1387.0519956687765,1387.0519956687765,1.0001054758215395,0.0012946979443308338
1387.0589399744858,1387.0589399744858,1.0003853373191798,0.0012948972752765493
1387.0658842801963,1387.0658842801963,1.0011649372867757,0.0012950334906581917
1387.0728285859302,1387.0728285859302,0.998658214788892,0.0012943602843235992
1387.0797728916637,1387.0797728916637,0.9981116511811848,0.0012944413281315737
1387.086717197408,1387.086717197408,1.0006477219026244,0.0012949014425270077
1387.0936615031653,1387.0936615031653,0.9993556113899309,0.0012943523722249175
1387.1006058089342,1387.1006058089342,0.9992934433850837,0.0012942198080843836
1387.1075501146902,1387.1075501146902,1.0009413376488858,0.0012945924184976768
1387.1144944204702,1387.1144944204702,0.9997701865019666,0.001293828361992252
1387.121438726262,1387.121438726262,1.0017632944655117,0.001293869189735275
1387.1283830320422,1387.1283830320422,1.000981539960263,0.0012939356864121682
1387.1353273378568,1387.1353273378568,0.9995083734321021,0.0012930265543921167
1387.1422716436605,1387.1422716436605,0.9998063865367979,0.0012934822362206993
1387.1492159494992,1387.1492159494992,0.9990086671007508,0.0012929513830249348
1387.1561602553136,1387.1561602553136,0.9991458622178436,0.001293449211013532
1387.1631045611516,1387.1631045611516,1.0007818888289999,0.0012942208743708392
1387.1700488670022,1387.1700488670022,1.0011765136090314,0.001293809799036104
1387.1769931728638,1387.1769931728638,0.9981761837927738,0.0012934022004930626
1387.1839374787128,1387.1839374787128,1.0005603820742341,0.0012940004824035102
1387.1908817845863,1387.1908817845863,1.0011662695496737,0.0012946863384403885
1387.19782609046,1387.19782609046,1.0011842707324532,0.0012942903619159961
1387.2047703963444,1387.2047703963444,0.9981713707091903,0.0012933245578098979
1387.2117147022407,1387.2117147022407,0.9987254151651938,0.0012935289988477386
1387.2186590081487,1387.2186590081487,1.0009367122910628,0.0012940810752812032
1387.2256033140577,1387.2256033140577,1.000173864720324,0.0012943699424689337
1387.2325476199649,1387.2325476199649,0.9988015728816009,0.0012944058326673981
1387.2394919259082,1387.2394919259082,1.0023018665694503,0.001295061262001627
1387.2464362318167,1387.2464362318167,0.9991661371120438,0.0012940103032805267
1387.2533805377595,1387.2533805377595,0.9990052355342168,0.0012942130716696208
1387.2603248437135,1387.2603248437135,1.0013241826842616,0.0012941292866436025
1387.2672691496687,1387.2672691496687,0.9995448526224967,0.0012943913028624827
1387.2742134556238,1387.2742134556238,0.9983055204318942,0.0012928802927449855
1387.2811577616244,1387.2811577616244,1.0012472967835262,0.0012937456688195542
1387.2881020675907,1387.2881020675907,1.0003131111154937,0.0012934246912119003
1387.2950463735804,1387.2950463735804,0.9985360335059973,0.001293490489348305
1387.3019906795703,1387.3019906795703,1.000120103743039,0.0012927453292878662
1387.3106016190231,1387.3106016190231,1.0023039824604996,0.0012943443629485044
1387.318657014001,1387.318657014001,1.0006553927252395,0.0012938742601974647
1387.3256013200144,1387.3256013200144,1.0000935369477395,0.0012931731781451166
1387.3339344872525,1387.3339344872525,0.9971963669257828,0.0012920706171401593
1387.3408787932885,1387.3408787932885,0.999814016295361,0.001293302201935795
1387.348656416075,1387.348656416075,0.9997599362852119,0.0012928121272275824
1387.3561562666102,1387.3561562666102,1.0001716073134341,0.0012932455741309634
1387.363100572658,1387.363100572658,1.002717405078292,0.0012949998967138985
1387.3700448787295,1387.3700448787295,1.00044290887298,0.0012938229942402303
1387.3769891848124,1387.3769891848124,1.0008565589679732,0.0012938288635177936
1387.3839334908826,1387.3839334908826,1.000604349914703,0.0012940532618474702
1387.3908777969887,1387.3908777969887,0.9982791716467785,0.0012937449239604866
1387.3978221030836,1387.3978221030836,0.9999370272646864,0.0012938713417841416
1387.4047664091893,1387.4047664091893,1.0002940228237922,0.0012941716549227005
1387.4117107153068,1387.4117107153068,0.9988371392648416,0.0012938373549348848
1387.4186550214245,1387.4186550214245,0.9990266629186847,0.0012934753028905148
1387.4255993275544,1387.4255993275544,1.0004415083384686,0.001294408682068676
1387.4325436336826,1387.4325436336826,1.0018578834079412,0.0012936363007113605
1387.439487939824,1387.439487939824,1.0009451616992688,0.0012939260733563578
1387.4464322459773,1387.4464322459773,0.9994601422722351,0.0012937992110436892
1387.4533765521296,1387.4533765521296,0.9983978915855151,0.0012933540097128605
1387.4603208582932,1387.4603208582932,0.9994721264791865,0.0012931998987774972
1387.4672651644578,1387.4672651644578,1.0008386830968778,0.001293406956106867
1387.4742094706457,1387.4742094706457,0.9997987141844986,0.0012928732299792457
1387.4811537768214,1387.4811537768214,1.0016017732799642,0.0012928521043654487
1387.4880980830198,1387.4880980830198,0.9992513117927408,0.0012928351592162788
1387.4950423892192,1387.4950423892192,1.0005898074779727,0.0012935992198323466
1387.5019866954192,1387.5019866954192,0.9996175814965367,0.0012929829146035095
1387.508931001629,1387.508931001629,0.9990615421641251,0.0012929663209783082
1387.5158753078517,1387.5158753078517,1.0005503052098912,0.0012930497611297876
1387.5228196140974,1387.5228196140974,0.9997607724003185,0.0012935265490661894
1387.5297639202854,1387.5297639202854,0.9991688243668149,0.001293440016166515
1387.5367082265307,1387.5367082265307,0.999841072485696,0.001294413610797679
1387.5436525327766,1387.5436525327766,1.0015043645466202,0.0012946942464605216
1387.5505968390341,1387.5505968390341,1.0008021542564498,0.0012938129381412497
1387.5575411453265,1387.5575411453265,1.001573396002834,0.0012945003884834837
1387.5644854515715,1387.5644854515715,0.9983790309903583,0.0012939805340862157
1387.571429757841,1387.571429757841,0.9994005970766537,0.0012934946612804614
1387.578374064122,1387.578374064122,0.999225983039991,0.001293771986292165
1387.5853183704137,1387.5853183704137,0.9995114525180553,0.0012943365140460775
1387.5922626767058,1387.5922626767058,1.0004461288998128,0.001294642688795364
1387.5992069829986,1387.5992069829986,1.0012425731852947,0.0012947810525796462
1387.6061512893143,1387.6061512893143,1.001746131055517,0.001294724810170489
1387.6130955956176,1387.6130955956176,0.9989562060223092,0.0012938604973280008
1387.6200399019333,1387.6200399019333,0.9991366029722336,0.0012931987707513403
1387.6269842082725,1387.6269842082725,1.0003375972350517,0.0012929481356315498
1387.6339285145882,1387.6339285145882,1.0016649955669799,0.001293639256242096
1387.6408728209378,1387.6408728209378,0.9983166234932106,0.00129254460519621
1387.6478171272774,1387.6478171272774,0.9994036416484995,0.0012932199438634
1387.654761433628,1387.654761433628,1.001767391293092,0.0012933345145028255
1387.6617057399897,1387.6617057399897,1.0003229938110116,0.001293707650009827
1387.6686500463516,1387.6686500463516,1.0006435814211698,0.001293787659829682
1387.6755943527144,1387.6755943527144,1.0010164936344461,0.001293847685731654
1387.6825386591,1387.6825386591,0.9993243965871894,0.001293556589864235
1387.6894829654727,1387.6894829654727,1.000279819243504,0.001292900602659508
1387.6964272718583,1387.6964272718583,0.9986552717383965,0.0012928078964814407
1387.703371578256,1387.703371578256,0.9984904649541747,0.001292239349309477
1387.710315884665,1387.710315884665,0.9977733803431074,0.0012921406919364064
1387.7172601910727,1387.7172601910727,0.9988738266328362,0.001292456347295002
1387.7242044974817,1387.7242044974817,1.0007130283576116,0.0012930128812931644
1387.7311488039027,1387.7311488039027,1.0023051044322888,0.001292886043408916
