time,time,flux,flux_err
1325.2983632546566,1325.2983632546566,0.9859069641838752,0.0005276611545533341
1325.30669644983,1325.30669644983,0.9867348273878953,0.0005279639139159293
1325.314335212369,1325.314335212369,0.9870331316115356,0.0004823077340571086
1325.3212795422112,1325.3212795422112,0.9877271908721351,0.0004825453524363482
1325.3282238722977,1325.3282238722977,0.9876804708838494,0.0004828020831793004
1325.3351682026407,1325.3351682026407,0.9880113474984705,0.00048318728833990257
1325.342112533216,1325.342112533216,0.988736610901918,0.00048359663669516847
1325.349056864048,1325.349056864048,0.9884473457675312,0.0004838128712066602
1325.3560011951008,1325.3560011951008,0.989296231092211,0.00048433844275294407
1325.362945526398,1325.362945526398,0.9891360353086988,0.0004846997766946463
1325.3698898579169,1325.3698898579169,0.9890877313263287,0.0004850282286216692
1325.3768341896798,1325.3768341896798,0.9887873827583625,0.0004853618515713775
1325.3837785216642,1325.3837785216642,0.9901882484235681,0.00048588345382376925
1325.3907228538815,1325.3907228538815,0.9906627766544688,0.0004863245080566589
1325.3976671863077,1325.3976671863077,0.9900558289371219,0.0004865819432682034
1325.4046115189676,1325.4046115189676,0.9913048849593892,0.0004871444201430524
1325.411555851836,1325.411555851836,0.9913886602045338,0.00048740828206214495
1325.4185001849382,1325.4185001849382,0.9915607925348514,0.000487767278987187
1325.425444518261,1325.425444518261,0.9914157807396796,0.00048815860222347306
1325.4323888518052,1325.4323888518052,0.9911043738523727,0.0004883662368430201
1325.439333185536,1325.439333185536,0.9912672507597545,0.0004887141267872219
1325.4462775194993,1325.4462775194993,0.9920223482707486,0.0004891354493650028
1325.4532218536601,1325.4532218536601,0.9924783994962916,0.0004895296263732219
1325.460166188031,1325.460166188031,0.9920054477753315,0.0004897409111719234
1325.4671105225993,1325.4671105225993,0.9925420807059527,0.0004902127795217725
1325.4740548573895,1325.4740548573895,0.9924986368548122,0.0004905290087756219
1325.4809991923773,1325.4809991923773,0.9925035596078281,0.0004908938556981188
1325.48794352754,1325.48794352754,0.9932571285431733,0.0004913234626671421
1325.4948878629116,1325.4948878629116,0.9932717293533649,0.0004917134057047341
1325.5018321984812,1325.5018321984812,0.994146697030056,0.0004922158136675519
1325.5087765342612,1325.5087765342612,0.9938210236994109,0.0004925120163050444
1325.5157208702265,1325.5157208702265,0.9943032924331258,0.0004929516899148439
1325.5226652063552,1325.5226652063552,0.9945852351952393,0.0004933701022702988
1325.5296095427047,1325.5296095427047,0.9948463961895502,0.0004938119373028929
1325.536553879241,1325.536553879241,0.9949091748164415,0.0004942235220264635
1325.5434982159402,1325.5434982159402,0.995709097421131,0.0004946753656818903
1325.5504425528254,1325.5504425528254,0.9955930855975748,0.0004948796089398583
1325.5573868898855,1325.5573868898855,0.9950336784297746,0.0004952753323072194
1325.5643312271436,1325.5643312271436,0.9953475693545835,0.0004956855496651457
1325.571275564564,1325.571275564564,0.9950826180317458,0.000496044623310411
1325.5782199021714,1325.5782199021714,0.9956438195419972,0.0004963347143599853
1325.585164239953,1325.585164239953,0.9968881588284907,0.0004968568774720904
1325.5921085779207,1325.5921085779207,0.9965430857465941,0.0004970028505447753
1325.5990529160285,1325.5990529160285,0.9967123841894084,0.0004973780673847937
1325.6059972543223,1325.6059972543223,0.9964654788194254,0.0004975360392091876
1325.6129415927794,1325.6129415927794,0.9962780373525668,0.0004977414712296084
1325.6198859313877,1325.6198859313877,0.9963383998811018,0.0004978435018508458
1325.6268302701942,1325.6268302701942,0.9970713817886672,0.0004980606074001324
1325.633774609128,1325.633774609128,0.9974752480233121,0.0004983619347108839
1325.6407189482375,1325.6407189482375,0.997739268525337,0.0004983942120709949
1325.6476632875087,1325.6476632875087,0.9978443794189985,0.0004985568472794419
1325.6546076269321,1325.6546076269321,0.9987529905680862,0.0004988760710681603
1325.6615519665297,1325.6615519665297,0.9983107290020842,0.0004988528237713154
1325.668496306256,1325.668496306256,0.9979823221266241,0.0004988220589229874
1325.6754406461446,1325.6754406461446,0.9988901578232682,0.0004991530567538312
1325.682384986185,1325.682384986185,0.9989161647899213,0.0004992153846227912
1325.6893293263763,1325.6893293263763,0.9983873612110912,0.0004993948549585948
1325.6962736667192,1325.6962736667192,0.9998982006735225,0.0004997570433707132
1325.7032180072017,1325.7032180072017,0.9994543473872503,0.000499841120130136
1325.7101623478356,1325.7101623478356,0.9993828007870741,0.0004999062113736216
1325.7171066886094,1325.7171066886094,0.9992767903669433,0.0005001496027328947
1325.7240510295342,1325.7240510295342,1.0004552171269772,0.0005005362482916107
1325.730995370599,1325.730995370599,1.0001861911027905,0.0005006180526366935
1325.7379397118034,1325.7379397118034,1.000505098238666,0.0005009498158384848
1325.7448840531238,1325.7448840531238,1.000535526612441,0.0005012134017443699
1325.7518283946076,1325.7518283946076,1.0005373230357122,0.0005015141824468769
1325.758772736208,1325.758772736208,1.0001702836093864,0.000501688956905317
1325.7657170779357,1325.7657170779357,1.0014885707239711,0.0005021337361387138
1325.7726614198273,1325.7726614198273,1.0012662690669483,0.0005022550466605828
1325.7796057618461,1325.7796057618461,1.0025260508527156,0.0005027523605930508
1325.7865501039707,1325.7865501039707,1.0007839071157367,0.000502781923403237
1325.7934944462459,1325.7934944462459,1.0018556341703628,0.0005031199958778592
1325.8004387886376,1325.8004387886376,1.0019307853443995,0.0005034150577325537
1325.8073831311578,1325.8073831311578,1.002405075294187,0.0005035421128666266
1325.8143274738052,1325.8143274738052,1.0023091497451317,0.0005037494960526964
1325.8212718165814,1325.8212718165814,1.002191336040602,0.0005039080942587373
1325.828216159462,1325.828216159462,1.0023895067017772,0.0005040392476128895
1325.8351605024825,1325.8351605024825,1.0025450258895012,0.0005043334409561534
1325.8421048456196,1325.8421048456196,1.0022789333879427,0.0005043299021386905
1325.8490491888724,1325.8490491888724,1.0028570656721143,0.0005045150748120917
1325.855993532254,1325.855993532254,1.0022592767636855,0.0005044583700965035
1325.8629378757282,1325.8629378757282,1.0035267622305275,0.0005045166337179489
1325.8698822193423,1325.8698822193423,1.0024732601311135,0.0005042400018820844
1325.8768265630615,1325.8768265630615,1.0017082596208224,0.0005039576583149323
1325.8837709068969,1325.8837709068969,1.0032553539677804,0.0005040233015184182
1325.8907152508373,1325.8907152508373,1.0021149893371935,0.0005036156449357527
1325.8976595949048,1325.8976595949048,1.0013426811504704,0.0005033683192298083
1325.9046039390664,1325.9046039390664,1.0014716983968384,0.0005032228635373786
1325.9115482833324,1325.9115482833324,1.002572706462207,0.000503179287862421
1325.9184926277262,1325.9184926277262,1.0002639600776237,0.0005028053558003778
1325.925436972214,1325.925436972214,1.0023867970922828,0.0005031738284584972
1325.9323813168055,1325.9323813168055,1.0024624102015292,0.0005031009213688476
1325.9393256615026,1325.9393256615026,1.002063633220325,0.0005030136034887753
1325.946270006304,1325.946270006304,1.0008529068775442,0.0005027452261446213
1325.953214351222,1325.953214351222,1.0028941034287717,0.0005030937726865654
1325.9607142438463,1325.9607142438463,1.0006191920411982,0.0005027558655331738
1325.9684919103747,1325.9684919103747,1.000418861595204,0.0005026648799050217
1325.9754362555955,1325.9754362555955,1.0006899945096184,0.0005026725520488792
1325.9823806009322,1325.9823806009322,1.000566120650205,0.0005026647717239653
1325.9893249463626,1325.9893249463626,1.000708057042337,0.0005027234844041602
1325.9962692918743,1325.9962692918743,0.999845679598784,0.0005026358096204619
1326.0032136375141,1326.0032136375141,0.999630483038746,0.0005027110419542929
1326.0101579832121,1326.0101579832121,1.0005221011521075,0.0005030131954833968
1326.0171023290382,1326.0171023290382,1.0002352606347975,0.0005031373081213999
1326.0240466749224,1326.0240466749224,1.0000375118796572,0.0005032305192691928
1326.0309910209114,1326.0309910209114,0.9998261241215785,0.0005033658984792195
1326.0379353669935,1326.0379353669935,1.0005602973958907,0.0005034837065067572
1326.044879713169,1326.044879713169,1.0000768311806896,0.0005032893258975579
1326.051824059437,1326.051824059437,1.000433673294837,0.0005035134440390309
1326.058768405787,1326.058768405787,1.0002686761666386,0.0005036136076904682
1326.0657127522186,1326.0657127522186,0.9996835662502802,0.000503584387715963
1326.0726570987542,1326.0726570987542,1.0005841793690013,0.000503673265202308
1326.0796014453726,1326.0796014453726,0.999803688290387,0.0005037310793296624
1326.0865457920713,1326.0865457920713,1.0001342388548402,0.0005037985488461673
1326.0934901388523,1326.0934901388523,0.9997289849203325,0.000503844691915044
1326.100434485726,1326.100434485726,1.0000973281916967,0.000503979261717418
1326.1073788326812,1326.1073788326812,1.0001259167006542,0.0005040072659314321
1326.1143231797064,1326.1143231797064,1.0002300574270013,0.0005041123419069091
1326.1212675268243,1326.1212675268243,0.9995922320875312,0.0005041123931243737
1326.128211874036,1326.128211874036,1.000562674510257,0.000504305139968364
1326.1351562212938,1326.1351562212938,1.0006332365385469,0.0005044575132332398
1326.1421005686566,1326.1421005686566,0.999573613578326,0.0005043179987697006
1326.1490449160895,1326.1490449160895,0.9993072390870308,0.0005042318536479893
1326.155989263603,1326.155989263603,1.0001237339735751,0.0005044664627670405
1326.162933611176,1326.162933611176,0.9998869451140667,0.0005044318987138769
1326.1698779588523,1326.1698779588523,1.0004292594125577,0.0005046482627475942
1326.1768223065994,1326.1768223065994,1.0001069907048041,0.0005044770188000879
1326.183766654416,1326.183766654416,0.9998053952220369,0.0005044970476398541
1326.1907110022908,1326.1907110022908,1.0000111107745684,0.0005045306457385645
1326.197655350271,1326.197655350271,0.9998266581143864,0.0005045386949044374
1326.2045996983084,1326.2045996983084,0.9998804006029491,0.000504584121581225
1326.2115440464167,1326.2115440464167,1.0000199411935933,0.0005046272559136838
1326.2184883946059,1326.2184883946059,0.9998454325033788,0.0005045699084159462
1326.2254327428413,1326.2254327428413,0.9995729252166925,0.0005045966505300601
1326.232377091159,1326.232377091159,1.0005152081964859,0.0005047038641148811
1326.2393214395574,1326.2393214395574,1.0002827168366435,0.0005047452204820923
1326.246265788038,1326.246265788038,1.0000748946962177,0.0005048073633158269
1326.2532101365532,1326.2532101365532,0.999412163893124,0.0005047032943352429
1326.26015448515,1326.26015448515,0.9994709382594964,0.0005047780761316125
1326.2670988338048,1326.2670988338048,1.0003102648329585,0.0005049283223102395
1326.2740431825293,1326.2740431825293,0.9998185761312784,0.0005048833151757037
1326.2809875313246,1326.2809875313246,1.000077221553868,0.0005049863081316904
1326.2879318802002,1326.2879318802002,1.0000132756210625,0.0005050771526834369
1326.294876229123,1326.294876229123,1.0001330726387598,0.0005051983533379972
1326.3018205781152,1326.3018205781152,1.0003959269860243,0.0005052197085975503
1326.3087649271897,1326.3087649271897,0.9999938695185312,0.0005051959347427395
1326.3157092762872,1326.3157092762872,0.9999641323152023,0.0005053186475099606
1326.3226536254656,1326.3226536254656,1.00015848668434,0.0005053324273210019
1326.3295979747031,1326.3295979747031,0.9995378123450518,0.000505365688365375
1326.3365423240095,1326.3365423240095,0.9997191448520528,0.0005054932723885797
1326.3434866733746,1326.3434866733746,1.000078048965636,0.0005056823982479434
1326.3532087625838,1326.3532087625838,0.9998786827968299,0.0005057482764232763
1326.3601531120999,1326.3601531120999,1.0007447409560648,0.0005059870825057267
1326.3670974616748,1326.3670974616748,0.9998045586161677,0.000506027654031055
1326.374041811272,1326.374041811272,0.9999252202754271,0.0005061194081225042
1326.3809861609752,1326.3809861609752,1.0000312505433377,0.0005061540134840218
1326.3879305107243,1326.3879305107243,0.999926638749041,0.000506327161057614
1326.3948748605198,1326.3948748605198,0.9995511706561888,0.0005062966535252934
1326.4018192103745,1326.4018192103745,0.9998005363044576,0.0005064217274721309
1326.4087635602866,1326.4087635602866,1.0005687486815364,0.0005067666979121982
1326.4157079102686,1326.4157079102686,1.0003514891724516,0.000506842854617424
1326.422652260262,1326.422652260262,0.9996771497482,0.0005067501549475881
1326.4295966103489,1326.4295966103489,1.0000968562577774,0.0005070126881484945
1326.4365409604707,1326.4365409604707,0.9999956285468782,0.0005070953832170274
1326.4434853106743,1326.4434853106743,0.9995124818419349,0.0005070629327252502
1326.4504296608889,1326.4504296608889,1.0005557393714721,0.0005073433481564184
1326.4573740111969,1326.4573740111969,1.000200829510656,0.0005074668447707651
1326.4643183615397,1326.4643183615397,0.9990998956133733,0.0005073726486371002
1326.4712627119293,1326.4712627119293,1.0001483431353877,0.0005076477626694031
1326.4782070623771,1326.4782070623771,1.0002402496370935,0.0005077601371942843
1326.4851514128832,1326.4851514128832,1.0008198292630965,0.0005079552253430635
1326.4920957634238,1326.4920957634238,0.9997560530916291,0.0005079446791156556
1326.4990401140233,1326.4990401140233,0.9996139352544906,0.0005080505347013849
1326.5059844646682,1326.5059844646682,1.0003302061014603,0.0005082922918979401
1326.5129288153607,1326.5129288153607,0.9998871443052787,0.000508329253340529
1326.5198731661112,1326.5198731661112,1.000019073632513,0.0005085774614378382
1326.526817516897,1326.526817516897,0.9996865772186571,0.0005087021468651912
1326.5337618677518,1326.5337618677518,0.999449752679084,0.0005087536106341186
1326.5407062186418,1326.5407062186418,1.0000640480119982,0.000509011830818366
1326.5476505695783,1326.5476505695783,1.000398407176307,0.0005093063859806792
1326.5545949205618,1326.5545949205618,1.0008463200827795,0.0005095041085039283
1326.5615392715915,1326.5615392715915,0.9991322121537027,0.0005092504526906942
1326.5684836226797,1326.5684836226797,1.0002539267779826,0.0005095305357441443
1326.5754279738028,1326.5754279738028,0.999710477661522,0.0005095794482927094
1326.58237232496,1326.58237232496,0.9997455442390258,0.000509658175134726
1326.5893166761764,1326.5893166761764,1.0005360031743384,0.0005099039317278944
1326.5962610274275,1326.5962610274275,0.9995547765134278,0.0005098379593809464
1326.603205378737,1326.603205378737,1.0007414371742858,0.0005101000422859717
1326.6101497300692,1326.6101497300692,0.9998471753385333,0.0005099966720832329
1326.6170940814832,1326.6170940814832,1.000172486285988,0.000510072700119134
1326.6240384328971,1326.6240384328971,0.9996271907392866,0.0005102237445958355
1326.6309827843809,1326.6309827843809,0.9999929357242594,0.000510348296491281
1326.6379271358878,1326.6379271358878,0.9997382514421311,0.0005103374275350485
1326.6448714874534,1326.6448714874534,0.9998154071088715,0.0005103396062775913
1326.6518158390538,1326.6518158390538,1.0001268456473649,0.0005104070737101347
1326.658760190689,1326.658760190689,1.0010099590601533,0.000510602081199048
1326.6657045423703,1326.6657045423703,0.9995252667232591,0.0005104488051298703
1326.672648894099,1326.672648894099,1.000138337175224,0.0005104997675362262
1326.6795932458622,1326.6795932458622,0.9992834529164162,0.0005103017524231696
1326.6873709198999,1326.6873709198999,1.00008823641453,0.0005104080211778812
1326.6948708198925,1326.6948708198925,1.0001428150566691,0.0005103185185862768
1326.7018151717834,1326.7018151717834,1.000046968812825,0.0005102950285007082
1326.7090372977898,1326.7090372977898,1.0004617126453386,0.0005103773694662136
1326.7170927460934,1326.7170927460934,0.9994762647905977,0.0005102218896003617
1326.7240370980896,1326.7240370980896,0.999981838954118,0.000510254069880133
1326.7309814501555,1326.7309814501555,1.000016839087948,0.0005102577104867124
1326.7379258022447,1326.7379258022447,1.0007173156967724,0.0005104218868070765
1326.7448701543808,1326.7448701543808,0.9994322059473788,0.0005100776757874394
1326.751814506539,1326.751814506539,1.0004464138405211,0.0005103031275672063
1326.7587588587453,1326.7587588587453,0.9999007583762459,0.0005101968269226842
1326.765703210997,1326.765703210997,0.9994769923547713,0.0005102465107984584
1326.7726475632844,1326.7726475632844,1.0001211807770283,0.0005103572300610948
1326.7795919155715,1326.7795919155715,0.9997842466785661,0.0005102850153723355
1326.7865362679283,1326.7865362679283,0.9995876759391539,0.0005104182123842673
1326.7934806203086,1326.7934806203086,1.000421876949535,0.0005104616640770797
1326.800424972712,1326.800424972712,1.0005917693819135,0.0005106998280770132
1326.807369325174,1326.807369325174,0.9995880446126579,0.0005105560667411921
1326.8143136776703,1326.8143136776703,1.000067145523322,0.0005105929715205763
1326.8212580301788,1326.8212580301788,0.9998516071770374,0.0005106595738864693
1326.828202382745,1326.828202382745,1.0001063660478766,0.0005107168135406513
1326.8351467353234,1326.8351467353234,1.0005155426513757,0.0005108623076503675
1326.84209108796,1326.84209108796,0.9996882989466057,0.0005107422811401953
1326.8490354406194,1326.8490354406194,0.9995984586494011,0.0005108160449344291
1326.8559797933021,1326.8559797933021,1.000927268435415,0.0005110228736631727
1326.862924146032,1326.862924146032,0.999378469003298,0.000510677910294774
1326.8698684987962,1326.8698684987962,1.0001569790186693,0.0005108198556371295
1326.8768128515721,1326.8768128515721,0.9996614435558138,0.0005106749091312747
1326.8837572044063,1326.8837572044063,0.9994824999242118,0.000510648540644756
1326.890701557229,1326.890701557229,1.0003995459218717,0.0005107019486024916
1326.8976459101332,1326.8976459101332,0.9999966492723334,0.0005105201101580276
1326.9045902630487,1326.9045902630487,1.0007760436886632,0.0005105810629896848
1326.9115346159876,1326.9115346159876,0.9994746559068604,0.0005101427402994653
1326.9184789689734,1326.9184789689734,1.0003889967078443,0.0005100874281840428
1326.9254233219706,1326.9254233219706,0.9996378334004674,0.0005099241071005574
1326.9323676750148,1326.9323676750148,0.9994564964615916,0.0005096134527984213
1326.9393120280934,1326.9393120280934,0.9999687247615963,0.0005096836009120434
1326.9462563811835,1326.9462563811835,1.0005093401699814,0.0005095051987646956
1326.953200734332,1326.953200734332,0.9997005851958864,0.0005092720385635578
1326.9601450874923,1326.9601450874923,1.0002942867899471,0.0005092026192770844
1326.9670894406524,1326.9670894406524,1.0000856429579783,0.0005090496445532743
1326.9740337938824,1326.9740337938824,1.0000879114954322,0.0005090158352569253
1326.9809781471129,1326.9809781471129,0.9994084172412615,0.0005087749066545465
1326.9879225003892,1326.9879225003892,1.0000673436673946,0.0005088840256356687
1326.9948668536895,1326.9948668536895,1.0002243137788847,0.0005089082242977257
1327.001811207024,1327.001811207024,1.0004689112022196,0.0005089080962096253
1327.008755560382,1327.008755560382,1.0001783839475338,0.0005089585615304898
1327.0156999137635,1327.0156999137635,0.9996673242920933,0.0005088469726940693
1327.0226442671683,1327.0226442671683,0.9998153451341439,0.0005089019018473403
1327.0295886206081,1327.0295886206081,1.0001719478092213,0.0005090119050483893
1327.0365329740823,1327.0365329740823,0.9995533543560743,0.0005090512367371439
1327.0434773275804,1327.0434773275804,1.0002400476480209,0.0005091451846179924
1327.0504216811012,1327.0504216811012,0.9993661560917433,0.0005091698088867532
1327.0579215829334,1327.0579215829334,1.000042955277727,0.0005092901801500526
1327.0656992589502,1327.0656992589502,1.000942284983316,0.0005095325515371842
1327.0726436125412,1327.0726436125412,0.999898531489953,0.0005095028038475377
