time,time,flux,flux_err
1325.3002043683573,1325.3002043683573,1.0001013674108548,0.00034339161185530955
1325.308537748437,1325.308537748437,1.000135240167961,0.00034354295143434387
1325.316871128711,1325.316871128711,1.0000242564256268,0.00034364983430348666
1325.3245100607874,1325.3245100607874,0.9997301903749445,0.00031371765681325936
1325.3314545446003,1325.3314545446003,1.0000639991195028,0.00031382923792856504
1325.3383990285533,1325.3383990285533,1.0001055522939015,0.0003139572554491908
1325.3453435125991,1325.3453435125991,0.999496043130193,0.00031398264519326175
1325.3522879968082,1325.3522879968082,1.0000787443586108,0.00031416243909702414
1325.3592324810636,1325.3592324810636,0.9999469439829479,0.0003142596350066566
1325.3661769654823,1325.3661769654823,0.9999051280962614,0.0003143792636866145
1325.3731214500167,1325.3731214500167,0.9999842658358975,0.0003144985277007318
1325.3800659346448,1325.3800659346448,0.999930104184906,0.00031459587368821567
1325.3870104193895,1325.3870104193895,1.0001027698117544,0.00031473904066708555
1325.3939549042268,1325.3939549042268,1.0002272916768031,0.00031484401362148295
1325.4008993892041,1325.4008993892041,1.0002003395601304,0.00031499495555139054
1325.407843874275,1325.407843874275,1.0000286629441049,0.00031505044612457065
1325.4147883594615,1325.4147883594615,0.999628809633499,0.0003151304112247454
1325.4217328447646,1325.4217328447646,1.0001595737484206,0.000315343966856402
1325.4286773301608,1325.4286773301608,1.0001096239449851,0.00031547092571347624
1325.4356218156038,1325.4356218156038,1.000073513143684,0.00031554148342141614
1325.442566301233,1325.442566301233,0.9997805401542756,0.00031562366678790577
1325.449510786932,1325.449510786932,1.0005388548154648,0.00031582411429236575
1325.4564552727243,1325.4564552727243,0.9996724050788629,0.00031585092631394103
1325.4633997586327,1325.4633997586327,0.9997711788872108,0.00031593309639819917
1325.4703442446346,1325.4703442446346,0.9994206413472704,0.0003160225182932539
1325.4772887307295,1325.4772887307295,1.000099171887052,0.0003162007190584996
1325.4842332169171,1325.4842332169171,1.0000225111681218,0.00031634570116358693
1325.4911777032219,1325.4911777032219,1.000030003859324,0.0003164609522526593
1325.4981221895962,1325.4981221895962,1.0006540276128175,0.0003166619815248201
1325.5050666760865,1325.5050666760865,1.0002010459613242,0.0003167369804868337
1325.5120111626475,1325.5120111626475,0.999992702694972,0.000316805275807475
1325.5189556493474,1325.5189556493474,1.0000301030725054,0.0003169281364630154
1325.5259001360942,1325.5259001360942,0.9993804960530068,0.0003169373878694595
1325.5328446228873,1325.5328446228873,0.9995607431596572,0.0003170729639424193
1325.5397891098205,1325.5397891098205,1.0001731254473079,0.00031730719407115586
1325.5467335968235,1325.5467335968235,1.0000617077624492,0.0003174058309346002
1325.5536780839425,1325.5536780839425,1.000226513832711,0.0003175523579175858
1325.5606225711322,1325.5606225711322,1.0002826488691348,0.0003176474830670512
1325.5675670584376,1325.5675670584376,1.0006305004670137,0.00031781894465104444
1325.5745115457662,1325.5745115457662,0.999942559824883,0.00031783153022528824
1325.5814560331885,1325.5814560331885,0.9998958134387184,0.0003178838676465575
1325.5884005207033,1325.5884005207033,0.9993596929594869,0.0003179002955367725
1325.5953450083116,1325.5953450083116,0.9995322724193301,0.0003179852401956805
1325.6022894959665,1325.6022894959665,1.0000534023494134,0.0003180730604715419
1325.6092339837373,1325.6092339837373,1.0002312712036592,0.00031817964603201204
1325.616178471602,1325.616178471602,0.9998861479243704,0.000318144765965308
1325.623122959513,1325.623122959513,0.9998954617005925,0.00031815565382517887
1325.6300674474703,1325.6300674474703,1.0005949912260268,0.00031825185294952636
1325.637011935521,1325.637011935521,1.0001351525077846,0.00031817749023734036
1325.643956423688,1325.643956423688,0.999875670494377,0.00031811220692535343
1325.6509009118786,1325.6509009118786,0.9997461541535548,0.0003180732041558799
1325.6578454001617,1325.6578454001617,1.000040223313447,0.00031811440487879774
1325.6647898885153,1325.6647898885153,1.0001271565765728,0.0003180963128619244
1325.6717343769847,1325.6717343769847,0.9999416822718658,0.0003180316173301972
1325.6786788654779,1325.6786788654779,1.000248647150738,0.00031810449202196743
1325.6856233540177,1325.6856233540177,0.9998920762539107,0.0003180701552026071
1325.69256784265,1325.69256784265,0.9997397271098641,0.00031803656472788344
1325.699512331353,1325.699512331353,1.000149183090433,0.00031811171127007164
1325.7064568201254,1325.7064568201254,1.0003794122027228,0.0003181333042903437
1325.713401308944,1325.713401308944,0.9993051754404011,0.00031805683457313916
1325.7203457978562,1325.7203457978562,1.000235073624927,0.00031820122561767694
1325.7272902867917,1325.7272902867917,0.9998582872002579,0.0003181660451828984
1325.7342347758665,1325.7342347758665,1.000201394198326,0.0003182150241623228
1325.7411792649418,1325.7411792649418,0.9996663290036715,0.00031822497894183193
1325.7481237540399,1325.7481237540399,1.0000888965297816,0.00031887933109240235
1325.755068243255,1325.755068243255,1.000031461535021,0.00031836604578113213
1325.7620127325165,1325.7620127325165,1.0000559000230498,0.0003184089913220346
1325.7689572218474,1325.7689572218474,1.000234624445402,0.00031849111466818213
1325.7759017112487,1325.7759017112487,1.0001736820435612,0.0003185849982059371
1325.782846200696,1325.782846200696,0.9999399231182396,0.0003185632960817475
1325.7897906901903,1325.7897906901903,0.9998460179022629,0.00031860180346667276
1325.7967351797543,1325.7967351797543,1.0002500322870218,0.00031867592095933037
1325.8036796694116,1325.8036796694116,0.9995910185407342,0.00031868741869523073
1325.810624159069,1325.810624159069,1.0001230393070546,0.0003187797198101609
1325.8175686487489,1325.8175686487489,0.9998023852491154,0.0003187493557794198
1325.824513138546,1325.824513138546,0.9998518398957877,0.00031877304672149907
1325.8314576283428,1325.8314576283428,0.9999619334480199,0.0003188286380917898
1325.8384021182562,1325.8384021182562,1.000227814963548,0.00031885799055608434
1325.8453466081928,1325.8453466081928,1.000352252836828,0.0003188838719414357
1325.8522910981524,1325.8522910981524,0.9999230089779022,0.0003187889833359423
1325.8592355881822,1325.8592355881822,0.9996513594285105,0.0003187016561549162
1325.8661800782816,1325.8661800782816,1.0002839973270077,0.0003187649533429258
1325.873124568428,1325.873124568428,0.9998170120416493,0.0003186248659759073
1325.8800690585508,1325.8800690585508,0.999965117438564,0.00031857503937497765
1325.88701354879,1325.88701354879,1.0003038081262237,0.00031853558902368426
1325.893958039099,1325.893958039099,0.9997846262698742,0.00031845766197646975
1325.9009025294083,1325.9009025294083,0.9998874039332215,0.00031836087381349585
1325.907847019787,1325.907847019787,0.9999123431377808,0.00031830747016223487
1325.914791510189,1325.914791510189,1.0003705990955842,0.0003182890602946153
1325.921736000661,1325.921736000661,0.9999117044807777,0.0003182437314290562
1325.9286804911335,1325.9286804911335,1.0000488743361937,0.0003182191401215934
1325.9356249816985,1325.9356249816985,0.9996426013333413,0.0003181221357194728
1325.9425694722872,1325.9425694722872,1.0003562065014364,0.0003181554024028703
1325.9495139629223,1325.9495139629223,1.000299481788764,0.00031815657707164085
1325.9564584535806,1325.9564584535806,1.0004483714537475,0.0003182138777340067
1325.9642362831842,1325.9642362831842,0.9996737957860317,0.00031805863906147526
1325.9717363332013,1325.9717363332013,1.000221789132525,0.0003181085998192841
1325.9786808240226,1325.9786808240226,0.999891018181378,0.00031807430593448874
1325.9856253148434,1325.9856253148434,0.9999839238568186,0.0003180758272223152
1325.9925698057114,1325.9925698057114,1.0002368137809625,0.0003181298431158902
1325.999514296626,1325.999514296626,0.9998706386220567,0.0003181294970249273
1326.006458787587,1326.006458787587,0.999352644307147,0.0003180840281731667
1326.0134032785948,1326.0134032785948,1.0002040611263556,0.00031824685974682083
1326.020347769602,1326.020347769602,1.0000491561807106,0.0003182393857691075
1326.0272922606796,1326.0272922606796,1.0002540961763746,0.00031832354070206306
1326.0342367517803,1326.0342367517803,1.00022581331887,0.00031837447436579454
1326.0411812429043,1326.0411812429043,0.9998034425444672,0.00031827420592969556
1326.048125734075,1326.048125734075,0.9997550570565575,0.0003182640219946532
1326.0550702252688,1326.0550702252688,1.000238637818732,0.00031829787675407976
1326.0620147165089,1326.0620147165089,1.0001816939310786,0.00031834149319544
1326.0689592077729,1326.0689592077729,1.0000626381219453,0.00031831182081212665
1326.0759036990826,1326.0759036990826,0.9995415185349463,0.00031825883512353974
1326.0828481904168,1326.0828481904168,0.9999992361992526,0.000318310426706699
1326.0897926818202,1326.0897926818202,1.000085617296608,0.0003183734582359899
1326.0967371732236,1326.0967371732236,1.0001184393939055,0.00031834594794343814
1326.1036816646272,1326.1036816646272,0.999952268665071,0.00031829693356747233
1326.1106261560535,1326.1106261560535,1.0004871208836457,0.00031836715268188066
1326.11757064755,1326.11757064755,0.9995963208233458,0.0003182261104519342
1326.1245151390697,1326.1245151390697,0.9996466465090151,0.0003182386981884079
1326.1314596306365,1326.1314596306365,0.9996888768478704,0.00031819177570305865
1326.138404122179,1326.138404122179,1.000170501137911,0.0003182438349005483
1326.1453486137925,1326.1453486137925,1.0000629244527064,0.00031824456939093357
1326.1522931054285,1326.1522931054285,1.000181365563383,0.0003182639348376956
1326.159237597088,1326.159237597088,1.0001796122238327,0.0003182618688758945
1326.1661820887477,1326.1661820887477,1.000392260468732,0.00031828434640286874
1326.1731265805,1326.1731265805,0.9999587211251884,0.00031819346508185067
1326.1800710722061,1326.1800710722061,0.9999233069353158,0.00031820163112393794
1326.1870155639822,1326.1870155639822,1.0001669910335962,0.00031821359656433095
1326.193960055781,1326.193960055781,0.9996011867790511,0.0003180633059549371
1326.2009045475806,1326.2009045475806,0.9997326897348945,0.0003180761032077633
1326.2078490394263,1326.2078490394263,0.9999414746830272,0.0003181168814030676
1326.2147935312726,1326.2147935312726,0.9999681796804609,0.00031812726791445383
1326.2217380231643,1326.2217380231643,1.000030789868566,0.0003180822486300218
1326.22868251508,1326.22868251508,1.0005406961377337,0.00031816490386132824
1326.2356270069956,1326.2356270069956,0.9996207087450889,0.00031803290052790045
1326.2425714989809,1326.2425714989809,0.9999183997548593,0.0003180370718900055
1326.249515990967,1326.249515990967,1.00012398077177,0.0003180421659263782
1326.256460482952,1326.256460482952,1.0005954333296068,0.0003181187971516671
1326.2634049749377,1326.2634049749377,0.9995033714058223,0.00031792875616521284
1326.270349466993,1326.270349466993,0.9997719729700101,0.00031798797602941364
1326.2772939590482,1326.2772939590482,0.9999524225481415,0.0003179743509742706
1326.284238451127,1326.284238451127,1.0001226228609075,0.0003179779013589333
1326.291182943252,1326.291182943252,1.0002629283262379,0.00031798081878422417
1326.298127435354,1326.298127435354,0.9998702592075415,0.00031794676769878746
1326.305071927502,1326.305071927502,1.0004385969705887,0.0003180255543525761
1326.312016419651,1326.312016419651,0.9995678057361512,0.00031792658508511193
1326.3189609118224,1326.3189609118224,1.0000813505576587,0.00031800844311735975
1326.3259054040404,1326.3259054040404,0.9998275769616625,0.0003179841185116641
1326.3328498962596,1326.3328498962596,1.0000660898822042,0.00031798270796557307
1326.3397943885006,1326.3397943885006,0.9999189436661027,0.00031800199989995943
1326.3472944401012,1326.3472944401012,0.9998870116237188,0.00031798888232554976
1326.3564611698944,1326.3564611698944,1.0000604828115933,0.0003180473277019725
1326.3634056622059,1326.3634056622059,0.9998627742162661,0.00031808093020949357
1326.3703501545174,1326.3703501545174,1.0001935239306374,0.0003180812416625601
1326.3772946468287,1326.3772946468287,1.0000439641246914,0.0003180722880787746
1326.3842391391634,1326.3842391391634,1.0002603404463317,0.0003181032780591516
1326.391183631545,1326.391183631545,1.0000271430646765,0.00031810900792731415
1326.3981281239262,1326.3981281239262,0.9996447825208806,0.0003180540608886878
1326.405072616284,1326.405072616284,1.0001233958282545,0.0003181216033165047
1326.412017108689,1326.412017108689,1.0003939141593228,0.00031815150922193005
1326.4189616010933,1326.4189616010933,0.9996035563505193,0.0003180793366205793
1326.4259060935212,1326.4259060935212,0.999833164465446,0.00031812524074603427
1326.4328505859721,1326.4328505859721,0.9997476838958554,0.0003180955977319623
1326.4397950784232,1326.4397950784232,1.0002728526423112,0.00031818210833427853
1326.446739570898,1326.446739570898,0.9999172824956316,0.0003181353695651915
1326.4536840633723,1326.4536840633723,0.9998426566627734,0.00031815747064518473
1326.4606285558698,1326.4606285558698,1.0003456900288195,0.00031821372596869534
1326.467573048391,1326.467573048391,0.9997970741870649,0.0003181651933413405
1326.4745175408884,1326.4745175408884,1.0002640030302743,0.00031823979102378684
1326.4814620334098,1326.4814620334098,1.0003113243970219,0.00031828741451917484
1326.488406525977,1326.488406525977,1.0001723266067621,0.00031824173487832055
1326.4953510185449,1326.4953510185449,0.9998359839184625,0.0003182235213760375
1326.5022955111122,1326.5022955111122,0.9999260862804629,0.00031823671659521086
1326.50924000368,1326.50924000368,0.9997683752086106,0.00031823587107092415
1326.5161844962472,1326.5161844962472,0.9999163902473833,0.0003182781805136049
1326.523128988815,1326.523128988815,0.999628310701293,0.0003182704301711613
1326.5300734814757,1326.5300734814757,1.000123003343659,0.0003183906081640163
1326.5370179740662,1326.5370179740662,0.9998643012513518,0.00031836173343532004
1326.543962466704,1326.543962466704,1.0000652464424977,0.00031843158088197657
1326.550906959318,1326.550906959318,1.000471457398568,0.0003185302136686593
1326.5578514520016,1326.5578514520016,1.0001131119829423,0.0003184944598353249
1326.5647959446392,1326.5647959446392,1.000347796631503,0.0003185003199399012
1326.5717404373,1326.5717404373,0.9994908208793719,0.00031838487109990283
1326.578684929961,1326.578684929961,0.9995565858081121,0.000318376775875075
1326.5856294226444,1326.5856294226444,1.0002718891219344,0.00031851003575532897
1326.5925739153522,1326.5925739153522,1.0001354733044492,0.0003185084716763274
1326.599518408036,1326.599518408036,1.0000155325335773,0.00031850604069509115
1326.6064629007433,1326.6064629007433,1.0003647586125317,0.000318536742357597
1326.6134073934504,1326.6134073934504,0.999849669650256,0.0003184921061803069
1326.6203518861807,1326.6203518861807,1.0003114208346224,0.00031856563012725564
1326.6272963788883,1326.6272963788883,1.000177192723248,0.00031853250308698543
1326.6342408716184,1326.6342408716184,0.999450396764369,0.0003184301339581858
1326.6411853643726,1326.6411853643726,0.9999640137837668,0.000318491319218657
1326.648129857103,1326.648129857103,1.0004188657193391,0.0003185615779943007
1326.655074349857,1326.655074349857,1.0001995428789476,0.0003185291806937131
1326.662018842611,1326.662018842611,0.9996753616074887,0.0003184383544737596
1326.6689633353644,1326.6689633353644,1.0006187738356147,0.0003184938066519923
1326.6759078281418,1326.6759078281418,0.9998679008343597,0.0003183753196629198
1326.682852320942,1326.682852320942,1.0002637350301982,0.00031839013387321996
1326.69090793253,1326.69090793253,0.9996306508290944,0.0003182911091003187
1326.698130205056,1326.698130205056,0.9996119867299061,0.0003182444443206016
1326.7050746978334,1326.7050746978334,1.0003509794217884,0.0003183036365486917
1326.712574750039,1326.712574750039,0.9996569396380368,0.00031817838174324803
1326.7203525819943,1326.7203525819943,1.000546474505267,0.0003182563905005297
1326.727297074795,1326.727297074795,1.000736995883062,0.0003182313875750986
1326.7342415676183,1326.7342415676183,1.0000861637146554,0.00031813106058971525
1326.741186060419,1326.741186060419,1.0000899830769066,0.0003181049367228147
1326.748130553219,1326.748130553219,0.9994115299359608,0.0003179933686963369
1326.7550750460657,1326.7550750460657,0.9999268678401286,0.00031808642905743463
1326.7620195388665,1326.7620195388665,0.9994322175952778,0.00031796214746021085
1326.7689640316898,1326.7689640316898,1.0002801649773148,0.0003180667055628783
1326.775908524537,1326.775908524537,1.0003414434340276,0.0003180387633396798
1326.7828530173606,1326.7828530173606,0.9996599690153017,0.00031793503810861987
1326.7897975101846,1326.7897975101846,0.999938283710007,0.00031799993279294614
1326.7967420030545,1326.7967420030545,0.9996153721470625,0.0003179707649419713
1326.8036864958551,1326.8036864958551,1.0001036448911385,0.0003180447404744307
1326.8106309887019,1326.8106309887019,1.0002072501528798,0.0003180307395049986
1326.8175754815718,1326.8175754815718,0.9995830215060556,0.0003179564564120805
1326.8245199743956,1326.8245199743956,1.0004068901408891,0.0003180135847947242
1326.8314644672196,1326.8314644672196,0.9998414022187383,0.00031797133222691493
1326.83840896009,1326.83840896009,1.0000316078184175,0.0003179578239938685
1326.8453534529367,1326.8453534529367,0.9995532883266357,0.0003178470386291102
1326.852297945807,1326.852297945807,1.0000306812108053,0.00031791752869634004
1326.8592424386538,1326.8592424386538,1.000174299691071,0.00031790690644136203
1326.8661869315245,1326.8661869315245,1.0004158050648142,0.00031794548893837127
1326.8731314243246,1326.8731314243246,1.0003510843912273,0.0003179018696354436
1326.8800759171713,1326.8800759171713,1.0000344004391626,0.00031779020870290845
1326.8870204100417,1326.8870204100417,1.0002716759645645,0.00031777264591133106
1326.8939649028885,1326.8939649028885,0.9997366616685255,0.00031766060091260255
1326.9009093957588,1326.9009093957588,0.9998920298386054,0.0003176171547519486
1326.9078538886056,1326.9078538886056,0.999637177724979,0.0003175539655167272
1326.914798381476,1326.914798381476,0.999635977125215,0.0003174733759857622
1326.921742874323,1326.921742874323,1.0001335147906114,0.0003174675810590687
1326.928687367193,1326.928687367193,1.0000263571613337,0.0003174277988838235
1326.9356318600405,1326.9356318600405,1.0005503744093542,0.0003174626472736461
1326.9425763529102,1326.9425763529102,0.9996136769220115,0.0003172431591174364
1326.9495208457108,1326.9495208457108,1.0002262954154504,0.00031723858222080825
1326.9564653385578,1326.9564653385578,0.9998516306144524,0.00031717393693519644
1326.9634098314284,1326.9634098314284,1.0002662504829407,0.0003171805990801244
1326.9703543242751,1326.9703543242751,1.0000630311153647,0.00031707121412580697
1326.9772988171449,1326.9772988171449,1.0001499689572488,0.00031704253477322973
1326.9842433099693,1326.9842433099693,0.9996421394454613,0.00031691434587691756
1326.9911878027926,1326.9911878027926,0.99993074218761,0.0003169527595207293
1326.9981322956633,1326.9981322956633,0.9997739978561817,0.0003168666391932418
1327.0050767884866,1327.0050767884866,1.0003227982478282,0.00031695429694904255
1327.0120212813104,1327.0120212813104,0.9993985911865104,0.00031678524447998783
1327.0189657741805,1327.0189657741805,1.0005201196156945,0.0003169848138953366
1327.0259102669806,1327.0259102669806,0.9996319110386811,0.00031683157823574217
1327.0328547598278,1327.0328547598278,1.0006604541837454,0.00031699103630974826
1327.0397992526512,1327.0397992526512,1.0000941383950335,0.00031690238711362407
1327.0467437454754,1327.0467437454754,1.0000959594757701,0.0003168706922533291
1327.0536882382987,1327.0536882382987,1.0000447192361794,0.0003168989061635119
1327.061466070254,1327.061466070254,0.9996027155191942,0.0003168444360784904
1327.0689661225063,1327.0689661225063,0.9997211539166052,0.00031690184455192505
