time,time,flux,flux_err
1354.1136784608746,1354.1136784608746,1.0006378449348754,0.001384483170757708
1354.1224745581262,1354.1224745581262,0.9995387302820045,0.0013834102925743188
1354.1301132744343,1354.1301132744343,0.9991845211621502,0.0012626039982895686
1354.1370575621982,1354.1370575621982,0.9992448202327278,0.001262051251723142
1354.1440018501594,1354.1440018501594,1.0000309759816168,0.001261902026505192
1354.1509461383191,1354.1509461383191,1.0016665833442402,0.0012623320655624091
1354.1578904266821,1354.1578904266821,0.9995808497702121,0.0012613779644472373
1354.1648347152318,1354.1648347152318,0.9995979219893325,0.0012610978583304855
1354.171779003973,1354.171779003973,0.9999763888690196,0.0012610796554234714
1354.1787232929187,1354.1787232929187,1.0006280892742043,0.0012614441417952236
1354.1856675820559,1354.1856675820559,1.0009363919635885,0.001261467817289382
1354.192611871385,1354.192611871385,0.9989312092538276,0.00126119079250324
1354.199556160895,1354.199556160895,1.0023772002198048,0.001262064987541594
1354.206500450603,1354.206500450603,0.9980768535904783,0.001261193619281459
1354.213444740497,1354.213444740497,1.0012576615164204,0.001262586205563235
1354.2203890305714,1354.2203890305714,0.9987705571576659,0.0012620243477877255
1354.2273333208436,1354.2273333208436,0.99939279726105,0.0012626443100082418
1354.234277611285,1354.234277611285,0.9990153320429622,0.0012629795498129124
1354.2412219019125,1354.2412219019125,1.00075423224942,0.0012638175408997245
1354.248166192732,1354.248166192732,0.9999922664389406,0.0012640329900457006
1354.2551104837203,1354.2551104837203,1.00081519720622,0.0012640299887624574
1354.2620547748834,1354.2620547748834,1.0001357798353825,0.0012648328272253536
1354.2689990662325,1354.2689990662325,0.9994360294517554,0.001264488689749126
1354.2759433577623,1354.2759433577623,1.0014672899203774,0.0012651754201124334
1354.2828876494548,1354.2828876494548,0.9997624972134457,0.0012655439792135965
1354.2898319413282,1354.2898319413282,0.9990854482088626,0.0012658223213020971
1354.2967762333756,1354.2967762333756,1.000612346345369,0.0012663567411886896
1354.3037205255862,1354.3037205255862,1.0000620330968402,0.0012663401789681076
1354.310664817966,1354.310664817966,0.9992853655840559,0.001266936938449082
1354.317609110514,1354.317609110514,0.9993175244590813,0.0012665300019497057
1354.3245534032428,1354.3245534032428,1.0013807762139513,0.0012672042392241113
1354.331497696129,1354.331497696129,0.9990879320626661,0.0012670371522161916
1354.3384419891777,1354.3384419891777,0.9998990627556277,0.0012668811331497808
1354.3453862823958,1354.3453862823958,0.9992910851734861,0.0012668252529141376
1354.3523305757703,1354.3523305757703,1.0009594269439832,0.0012668493699084502
1354.3592748693022,1354.3592748693022,0.9997229685845092,0.0012662483758622348
1354.3662191630033,1354.3662191630033,1.0008347794072134,0.0012654309714745702
1354.373163456861,1354.373163456861,0.9989667733429515,0.001264686972600588
1354.3801077508765,1354.3801077508765,0.9991894503145605,0.001264404845223104
1354.387052045043,1354.387052045043,0.999990444220255,0.001263978700420446
1354.3939963393605,1354.3939963393605,1.000417654081673,0.0012634292913983106
1354.4009406338357,1354.4009406338357,1.0006891291655506,0.0012629444999349001
1354.4078849284679,1354.4078849284679,1.00095390823873,0.00126303188415297
1354.4148292232455,1354.4148292232455,0.9986507657405465,0.001261553945175397
1354.4217735181924,1354.4217735181924,1.0014776395790386,0.0012617899054901602
1354.4287178132606,1354.4287178132606,0.9996510703780093,0.0012606524530520808
1354.4356621084808,1354.4356621084808,0.9983032850575263,0.0012599544868733955
1354.4426064038637,1354.4426064038637,1.0009549746279303,0.0012600310518846307
1354.4495506993749,1354.4495506993749,0.9993497577192858,0.0012593797198886397
1354.456494995049,1354.456494995049,0.9985977793020775,0.0012589348469996633
1354.463439290851,1354.463439290851,1.001119468747595,0.0012590756805675547
1354.4703835867927,1354.4703835867927,1.0016125758410799,0.0012592485405243166
1354.4773278828802,1354.4773278828802,0.9974223147771781,0.0012583592548619086
1354.4842721791126,1354.4842721791126,1.0019807863589938,0.001259534670619477
1354.4912164754799,1354.4912164754799,1.0004113485700052,0.0012593587951095267
1354.4981607719865,1354.4981607719865,0.9995826297094246,0.0012593499845567476
1354.5051050686266,1354.5051050686266,0.9998068831301712,0.0012593954933079105
1354.5120493653951,1354.5120493653951,0.9992654406373139,0.0012599207773324992
1354.5189936623087,1354.5189936623087,0.9986632131065033,0.0012594924699844854
1354.5259379593565,1354.5259379593565,0.997002986829288,0.0012602396201292286
1354.5328822565211,1354.5328822565211,1.0029847229290967,0.0012618276872577048
1354.539826553825,1354.539826553825,1.000252601871086,0.0012615411534354734
1354.5467708512565,1354.5467708512565,1.0015065699898338,0.0012622886219951664
1354.5537151488284,1354.5537151488284,1.0008023791828156,0.0012625739452302534
1354.5606594465164,1354.5606594465164,0.999344080291241,0.001262510959281075
1354.5676037443327,1354.5676037443327,1.0006375670801002,0.0012635390115226036
1354.5745480422706,1354.5745480422706,0.9984877453268558,0.0012633318006175195
1354.5814923403373,1354.5814923403373,0.9989694923595124,0.0012639836803424816
1354.5884366385203,1354.5884366385203,1.001919905544026,0.0012651653779649067
1354.5953809368425,1354.5953809368425,1.0009233068941277,0.0012653563785107774
1354.6023252352697,1354.6023252352697,0.9986923707077107,0.0012652884257575874
1354.6092695338252,1354.6092695338252,1.0011655041479883,0.0012660321406588637
1354.6162138324967,1354.6162138324967,0.999265745094933,0.0012656023593376803
1354.623158131291,1354.623158131291,1.0006606058815075,0.0012658450872870763
1354.6301024302015,1354.6301024302015,0.9993217372953052,0.0012657959763973153
1354.6370467292281,1354.6370467292281,1.0007488463701186,0.0012654266447978694
1354.6439910283657,1354.6439910283657,0.9981450575273512,0.0012647595880347308
1354.6509353276138,1354.6509353276138,0.999943626056792,0.0012651509725008286
1354.657879626984,1354.657879626984,1.0018996959273412,0.0012654489996317597
1354.6648239264707,1354.6648239264707,1.000671609677969,0.0012644971754451084
1354.6717682260619,1354.6717682260619,0.9986178812785068,0.001264005824867478
1354.6787125257702,1354.6787125257702,0.9978035988947143,0.0012637058015635074
1354.6856568255769,1354.6856568255769,1.0012345764328914,0.0012643157431761365
1354.6926011254996,1354.6926011254996,1.00316840776376,0.0012647587787930335
1354.6995454255339,1354.6995454255339,0.9961981528124915,0.0012626819877316563
1354.7064897256782,1354.7064897256782,1.0005549599589532,0.001263371903390388
1354.7134340259158,1354.7134340259158,1.0015948240009582,0.0012633619482020075
1354.7203783262642,1354.7203783262642,0.9996317190952642,0.001262406313306763
1354.7273226267225,1354.7273226267225,0.9987473853932676,0.0012622474279156712
1354.7342669272805,1354.7342669272805,0.9992988938149481,0.0012623986791485521
1354.7412112279312,1354.7412112279312,0.9990038500603167,0.001260975523114583
1354.7481555287043,1354.7481555287043,1.0000639637553657,0.0012611025940475887
1354.7550998295646,1354.7550998295646,0.9994192477168331,0.0012603496534404246
1354.7620441305414,1354.7620441305414,1.0017407490496946,0.0012602973468413816
1354.768988431594,1354.768988431594,1.0004856658759116,0.0012593830645876466
1354.775932732757,1354.775932732757,0.9989139071053769,0.0012583518147046059
1354.782877034025,1354.782877034025,0.9983546793618471,0.001257453493613754
1354.789821335386,1354.789821335386,0.9991285563363472,0.001256772767089753
1354.7967656368342,1354.7967656368342,1.0028094141310535,0.0012575608563847535
1354.8037099383812,1354.8037099383812,1.0009162006853565,0.001256699228180797
1354.8106542400333,1354.8106542400333,1.001258223756754,0.0012567789555037953
1354.8175985417668,1354.8175985417668,0.9991371039208881,0.001256409960415117
1354.8245428435935,1354.8245428435935,1.0003131602865798,0.001256928632630514
1354.8314871455193,1354.8314871455193,1.0006602679434151,0.0012568662785151631
1354.838431447532,1354.838431447532,0.999576106601147,0.0012572758916279993
1354.8453757496382,1354.8453757496382,0.9986560370089776,0.001257225219556185
1354.8523200518428,1354.8523200518428,1.0000107413065285,0.00125806104555862
1354.8592643541235,1354.8592643541235,0.9994404527748012,0.0012588015142872334
1354.8662086564977,1354.8662086564977,1.000594927904235,0.0012593597058933072
1354.8731529589584,1354.8731529589584,0.9983569777388965,0.0012588754033032348
1354.8800972615245,1354.8800972615245,1.0003421817168379,0.001259295300501111
1354.8870415641543,1354.8870415641543,1.0008883235725399,0.0012606044941668138
1354.8939858668832,1354.8939858668832,0.9997930631168932,0.0012606864672206571
1354.9009301696822,1354.9009301696822,1.000037944236637,0.001260979143583301
1354.9078744725737,1354.9078744725737,1.0006323732988385,0.0012614296661138938
1354.9148187755525,1354.9148187755525,1.0015850005683224,0.0012621760421922122
1354.9217630786134,1354.9217630786134,0.9991032775541127,0.0012620656584146537
1354.9287073817497,1354.9287073817497,1.0009651649898426,0.0012626839256115378
1354.937040545634,1354.937040545634,0.9985049092324166,0.001262379878824577
1354.943984848951,1354.943984848951,0.9992695113657856,0.0012625320966390614
1354.950929152361,1354.950929152361,1.0010257890304064,0.001263639607965396
1354.9578734558465,1354.9578734558465,0.9996745297693732,0.0012639026591459682
1354.9648177594079,1354.9648177594079,1.0016817358351926,0.001264357263574069
1354.9717620630447,1354.9717620630447,0.9999360307680336,0.0012638759324661963
1354.9787063667516,1354.9787063667516,1.0010021964585218,0.0012648445653989583
1354.9856506705514,1354.9856506705514,1.0014230525222836,0.00126450798188744
1354.9925949744324,1354.9925949744324,0.9995972331036331,0.0012643253664332446
1354.9995392783721,1354.9995392783721,0.9982983936300069,0.0012641628104991468
1355.0064835823873,1355.0064835823873,0.998122514803843,0.0012635343819050596
1355.013427886496,1355.013427886496,0.9973790967655469,0.0012635043720876339
1355.0203721906623,1355.0203721906623,1.0012267966167956,0.0012641197107317189
1355.0273164949108,1355.0273164949108,0.9996081308675262,0.0012633353856352344
1355.0342607992347,1355.0342607992347,1.0001002152819463,0.0012636001709391727
1355.0412051036162,1355.0412051036162,1.001403850812864,0.0012633248633656278
1355.0481494080911,1355.0481494080911,0.9995417745103236,0.001262749057237297
1355.055093712613,1355.055093712613,1.000264465449225,0.0012621622869118513
1355.0620380172277,1355.0620380172277,1.0018527055860171,0.0012619954737109172
1355.0689823219006,1355.0689823219006,0.999248313717531,0.0012612043923774193
1355.0759266266377,1355.0759266266377,0.9986553718714128,0.001260331534922761
1355.082870931456,1355.082870931456,0.9997277006698416,0.0012603785216985033
1355.0898152363386,1355.0898152363386,0.9992647397281045,0.001259837792451736
1355.096759541291,1355.096759541291,1.0004744437711952,0.0012599788281345173
1355.1037038463076,1355.1037038463076,0.99913747345669,0.0012591513356745513
1355.1106481513998,1355.1106481513998,1.001765790452381,0.0012594457056143813
1355.11759245655,1355.11759245655,0.9999278754398674,0.0012589892727252762
1355.12453676177,1355.12453676177,1.0007357333584639,0.00125918652475691
1355.1314810670485,1355.1314810670485,1.000381546537424,0.0012586455433066528
1355.1384253723963,1355.1384253723963,0.9986368719785436,0.0012575754598984376
1355.1453696778149,1355.1453696778149,1.0001079208762644,0.0012577125869618286
1355.1523139832852,1355.1523139832852,1.0000126436802836,0.0012583725303212446
1355.159258288837,1355.159258288837,0.9989722342195607,0.0012576136402918515
1355.1662025944356,1355.1662025944356,1.0005855659545708,0.0012578905325691019
1355.1731469001038,1355.1731469001038,1.0000960450783978,0.001257915838091107
1355.1800912058304,1355.1800912058304,1.0002916257531722,0.0012581742454603041
1355.1870355116212,1355.1870355116212,1.0000506162054303,0.0012579581570643212
1355.1939798174756,1355.1939798174756,1.0013810045158238,0.001258602050975892
1355.2009241233827,1355.2009241233827,1.0000556217135441,0.0012587999596408066
1355.2078684293533,1355.2078684293533,0.9998500221095158,0.0012592013874403818
1355.214812735389,1355.214812735389,0.9987425653510321,0.0012593001614735898
1355.2217570414823,1355.2217570414823,1.0022688361321876,0.0012605414125063177
1355.2287013476277,1355.2287013476277,0.9996348730077033,0.001260816055840944
1355.2356456538491,1355.2356456538491,0.998404248007559,0.0012611878056670335
1355.2425899601053,1355.2425899601053,0.9990208443722516,0.0012613412130159291
1355.2495342664313,1355.2495342664313,1.00051854915631,0.0012617192588546516
1355.256478572816,1355.256478572816,1.00010905745855,0.0012622977994450623
1355.2634228792465,1355.2634228792465,0.9994811680859005,0.0012617840584631405
1355.2703671857412,1355.2703671857412,0.9994749086673295,0.0012624906602954613
1355.2773114922884,1355.2773114922884,0.9996507555690082,0.0012622408666537227
1355.2842557989,1355.2842557989,1.0007912617561405,0.0012631624795006763
1355.2912001055522,1355.2912001055522,1.0005814053521043,0.0012630776280299753
1355.2981444122738,1355.2981444122738,1.0011640326763738,0.001263157728246949
1355.3050887190425,1355.3050887190425,1.0006213402622577,0.0012631072025538002
1355.3120330258635,1355.3120330258635,1.000385369751903,0.0012632064813800352
1355.3189773327365,1355.3189773327365,0.9994073187947181,0.0012629423854983504
1355.325921639668,1355.325921639668,0.9990285796034344,0.0012628604525788687
1355.3336992634884,1355.3336992634884,0.9982313242562807,0.0012625641148920736
1355.3411991150942,1355.3411991150942,1.0001005328190402,0.0012626673049927245
1355.3481434222,1355.3481434222,1.0000016827937526,0.0012626653360756884
1355.3550877293414,1355.3550877293414,1.0013469153866974,0.0012630010293282093
1355.3620320365349,1355.3620320365349,0.9993814800122791,0.0012618401207209337
1355.3689763437862,1355.3689763437862,1.0011103281098828,0.0012613389473255681
1355.3759206510902,1355.3759206510902,0.9991046386060498,0.0012608872705627055
1355.382864958435,1355.382864958435,1.00041145479701,0.001260746978015243
1355.3898092658378,1355.3898092658378,0.9988411081958881,0.0012597000900777446
1355.3978646624787,1355.3978646624787,1.0004399075257946,0.0012597071504716311
1355.4050867422825,1355.4050867422825,0.9997579455527891,0.0012595478801624143
1355.412031049837,1355.412031049837,1.0014602466370466,0.0012599565792982778
1355.4189753574435,1355.4189753574435,0.999331925197243,0.0012593235428224338
1355.425919665091,1355.425919665091,1.000117086066539,0.0012584965054929001
1355.432863972791,1355.432863972791,1.0008812977039692,0.0012588001458376293
1355.4398082805315,1355.4398082805315,1.0000013674437898,0.0012587808585898582
1355.4467525883242,1355.4467525883242,1.0007727744181605,0.0012588852557654778
1355.453696896158,1355.453696896158,0.9983323256672276,0.0012585164484323562
1355.4606412040498,1355.4606412040498,0.997026352436724,0.0012577018999276194
1355.467585511971,1355.467585511971,0.9987711871239553,0.0012587559707847515
1355.4745298199502,1355.4745298199502,1.0033313805061557,0.0012598088370714136
1355.4814741279702,1355.4814741279702,1.0022598507464882,0.0012596557113587926
1355.4884184360308,1355.4884184360308,0.9994859159608213,0.001258956866780197
1355.4953627441323,1355.4953627441323,0.9980142675907311,0.0012591514057678991
1355.5023070522973,1355.5023070522973,1.0005544267017037,0.0012595881982437993
1355.5092513604861,1355.5092513604861,1.000392949737214,0.0012600254054867368
1355.5161956687275,1355.5161956687275,1.0017356034931275,0.0012602879975381483
1355.5231399770091,1355.5231399770091,0.9991794099262303,0.001259834577458758
1355.5300842853376,1355.5300842853376,0.9990870435129999,0.001260097355033568
1355.5370285937072,1355.5370285937072,1.0006937815901096,0.0012598481949783577
1355.5439729021168,1355.5439729021168,1.0017120086726032,0.0012610768484720316
1355.5509172105676,1355.5509172105676,0.9978237081851498,0.0012597556472885474
1355.5578615190648,1355.5578615190648,1.0006379550123405,0.0012603628061120054
1355.5648058275908,1355.5648058275908,0.9999912804265925,0.0012603030374645503
1355.5717501361698,1355.5717501361698,0.9999538354171641,0.0012604306513775202
1355.5786944447834,1355.5786944447834,1.0006645135885852,0.0012605493390032275
1355.5856387534436,1355.5856387534436,1.0006192633840616,0.0012607489468631078
1355.592583062139,1355.592583062139,1.000776944035916,0.0012606596725755076
1355.5995273708745,1355.5995273708745,0.99914735798233,0.00126037712463753
1355.6064716796573,1355.6064716796573,1.0005500070488507,0.001260894488052767
1355.6134159884746,1355.6134159884746,0.9996712018928914,0.0012607257080633626
1355.6203602973326,1355.6203602973326,1.0000514437630716,0.0012607593836620537
1355.6273046062202,1355.6273046062202,0.999221663008087,0.0012608270036844143
1355.6342489151539,1355.6342489151539,0.999600418254105,0.0012605033659151368
1355.641193224128,1355.641193224128,1.0009601731653406,0.0012610441421434916
1355.648137533138,1355.648137533138,0.9996446754817857,0.0012610794514933469
1355.6550818421765,1355.6550818421765,1.0004461905897224,0.0012615117436271727
1355.6620261512614,1355.6620261512614,0.9997209211472586,0.0012611999687104308
1355.6689704603818,1355.6689704603818,0.9993713201378037,0.0012609880093309984
1355.6759147695425,1355.6759147695425,1.0016620508066734,0.0012615050659046903
1355.6828590787384,1355.6828590787384,0.9998230118411007,0.0012605228349720867
1355.689803387969,1355.689803387969,0.9982320793666617,0.0012600139319337651
1355.6967476972286,1355.6967476972286,0.99876307726414,0.0012602668896599316
1355.7036920065352,1355.7036920065352,1.0006103816506358,0.0012599640526950197
1355.7106363158764,1355.7106363158764,0.999925503495833,0.001259424234618991
1355.7175806252524,1355.7175806252524,0.9983595554531256,0.0012591205397374813
1355.724524934658,1355.724524934658,1.0036887378307418,0.0012605128834531289
1355.731469244104,1355.731469244104,1.0002358862587997,0.0012591698512418993
1355.7384135535908,1355.7384135535908,1.0010203722321291,0.0012595411557995793
1355.7467467250074,1355.7467467250074,1.0007846058763685,0.001259828198003776
1355.7536910345639,1355.7536910345639,0.9989578962384197,0.0012591074159044153
1355.7606353441556,1355.7606353441556,0.9986261652234651,0.0012594018706203606
1355.7675796537762,1355.7675796537762,0.9997304139281408,0.0012597350138732898
1355.7745239634314,1355.7745239634314,0.9986258470285326,0.001260100748850224
1355.7814682731164,1355.7814682731164,1.0018972001490662,0.0012604561707373772
1355.7884125828418,1355.7884125828418,0.998605734192366,0.0012603463596798973
1355.7953568925964,1355.7953568925964,1.000565877781764,0.0012611149942764834
1355.80230120238,1355.80230120238,1.0026332063733914,0.001261719129594223
1355.8092455122103,1355.8092455122103,0.9991270067988886,0.0012611793818463808
1355.8161898220524,1355.8161898220524,0.9987593390823151,0.0012613402911539322
1355.8231341319404,1355.8231341319404,0.9990075505718746,0.0012618296128290977
1355.8300784418577,1355.8300784418577,0.9981630430742927,0.0012610933436127385
1355.8370227518108,1355.8370227518108,1.004074272833537,0.0012631505774122749
1355.843967061792,1355.843967061792,0.999726197768313,0.0012624697013333085
1355.8509113717912,1355.8509113717912,0.999824382594879,0.0012621043959996083
1355.8578556818425,1355.8578556818425,0.9988539908673063,0.0012622047917732716
1355.8647999919112,1355.8647999919112,0.9993135426621942,0.0012621400503808704
1355.8717443020153,1355.8717443020153,1.000760725289625,0.0012623932469048897
1355.8786886121484,1355.8786886121484,0.9998929372949854,0.001262080762790296
1355.885632922304,1355.885632922304,1.0004493102831356,0.001261739718400884
