time,time,flux,flux_err
1410.9066564432235,1410.9066564432235,1.0021842811086643,0.0015140331026763196
1410.9149896986617,1410.9149896986617,0.9993958464463065,0.0015132643618724914
1410.9226285162672,1410.9226285162672,1.0003472829223774,0.0013812962954749834
1410.9295728960062,1410.9295728960062,1.0008314725908865,0.001381051892216862
1410.9365172758512,1410.9365172758512,1.000943209585834,0.0013819656175250547
1410.9434616557535,1410.9434616557535,1.000327349910895,0.0013813050411193508
1410.9504060357492,1410.9504060357492,0.999157767638702,0.0013808485737224043
1410.9576281910454,1410.9576281910454,1.0015075965231626,0.0013819298926198102
1410.9670725481233,1410.9670725481233,0.9981936270972749,0.001380408951654643
1410.982350184859,1410.982350184859,1.0013080081998602,0.0013823936510488628
1410.9892945653442,1410.9892945653442,0.9998835126879397,0.0013813655449852766
1411.0001277990498,1411.0001277990498,0.9993278556795699,0.001381075640044133
1411.0087388310899,1411.0087388310899,0.9982638070158044,0.001380979459158644
1411.0156832118887,1411.0156832118887,1.0005996684848182,0.001381470819267368
1411.0226275927462,1411.0226275927462,0.9983241668810333,0.001381218156738143
1411.0295719736732,1411.0295719736732,0.9994522751794745,0.0013807343815568159
1411.0365163546696,1411.0365163546696,1.0012636347540549,0.0013809250941560687
1411.0434607357836,1411.0434607357836,1.0004745872854062,0.0013811872284000683
1411.0517939931865,1411.0517939931865,1.000384748106269,0.0013811816455439317
1411.0587383744285,1411.0587383744285,1.000331463640141,0.0013805462094592176
1411.065682755751,1411.065682755751,1.0006622934620155,0.0013808352556214701
1411.0726271371436,1411.0726271371436,0.9991237732866128,0.0013800335453636938
1411.0795715186064,1411.0795715186064,1.0012236645829429,0.001380541323199629
1411.0865159001385,1411.0865159001385,0.9996510014318218,0.0013795303815832512
1411.0934602817297,1411.0934602817297,0.9982985163087248,0.0013795137250077701
1411.1004046634132,1411.1004046634132,1.0024953367676472,0.001380884937324946
1411.1073490451433,1411.1073490451433,0.9977739354471102,0.0013798037265531906
1411.1142934269674,1411.1142934269674,1.0004222413396053,0.0013802971644721086
1411.1212378088135,1411.1212378088135,1.0003548734054744,0.00138096257039769
1411.1281821907655,1411.1281821907655,0.9994706151276265,0.0013805477476057696
1411.1351265727633,1411.1351265727633,1.000455918012459,0.0013802539370829912
1411.142070954831,1411.142070954831,1.000320294240923,0.001380884991404155
1411.149015336958,1411.149015336958,1.0022693956824837,0.0013810403664753273
1411.155959719153,1411.155959719153,1.000049014537041,0.0013804554004148855
1411.1629041013962,1411.1629041013962,0.9992638607570873,0.0013803906768327032
1411.1698484837084,1411.1698484837084,0.99915215336377,0.0013804455146012257
1411.1767928660906,1411.1767928660906,1.0005637117715467,0.0013807819875742426
1411.1837372485084,1411.1837372485084,0.9997064482134975,0.0013813389261550005
1411.1906816310063,1411.1906816310063,1.002154598857895,0.001381706804693387
1411.1976260135518,1411.1976260135518,0.9994519522059075,0.0013805916644084237
1411.2045703961671,1411.2045703961671,0.9976346905266744,0.0013807095539068231
1411.2115147788168,1411.2115147788168,0.9990407809172431,0.0013805687334851684
1411.2184591615369,1411.2184591615369,0.9992233548899729,0.0013808083660505838
1411.2254035443143,1411.2254035443143,1.0020368183211925,0.0013820253559820518
1411.23234792714,1411.23234792714,1.000607794651128,0.0013810220369917365
1411.2392923100108,1411.2392923100108,0.9986945866165907,0.00138019352281449
1411.2462366929517,1411.2462366929517,1.000827217601661,0.0013809894219171995
1411.2531810759278,1411.2531810759278,0.9996276744143195,0.0013809438659079102
1411.260125458962,1411.260125458962,0.9971450070406392,0.0013800545766915876
1411.2670698420548,1411.2670698420548,0.9999986922329208,0.0013804769155304011
1411.2740142252048,1411.2740142252048,1.0004604618196686,0.0013798264764116179
1411.2809586083904,1411.2809586083904,1.0001369778634102,0.0013802767371351682
1411.2879029916226,1411.2879029916226,1.0024538021268667,0.0013807870729477202
1411.294847374901,1411.294847374901,0.9997841593295188,0.0013798976195529588
1411.3017917582617,1411.3017917582617,1.0003870064246276,0.0013800239615138318
1411.3087361416333,1411.3087361416333,0.9995774710604216,0.0013797539337872754
1411.31568052504,1411.31568052504,0.9977886689901334,0.0013792322561623738
1411.322624908517,1411.322624908517,1.0010682169776586,0.0013802158249797542
1411.3295692920394,1411.3295692920394,1.0005939349593398,0.001379492088705143
1411.3365136756097,1411.3365136756097,1.0003152100178128,0.001378852841954941
1411.3434580592022,1411.3434580592022,0.9983566236789244,0.0013791445715593887
1411.3504024428535,1411.3504024428535,1.0013381893191977,0.001380185014552218
1411.3573468265631,1411.3573468265631,0.9996952280920034,0.0013794292191060093
1411.3642912102955,1411.3642912102955,1.0006209106297104,0.0013799782515046476
1411.3712355940756,1411.3712355940756,1.0007367834269636,0.0013796414486929947
1411.3781799779006,1411.3781799779006,0.9985728762325632,0.0013796104734629256
1411.3851243617614,1411.3851243617614,0.9995330084880077,0.0013793156770132546
1411.392068745657,1411.392068745657,0.999909454051991,0.0013796448033857875
1411.399013129599,1411.399013129599,1.0043457693450295,0.0013806697180691575
1411.4059575135886,1411.4059575135886,0.9984421517942405,0.0013793694776057274
1411.4129018976002,1411.4129018976002,1.0007118130102008,0.0013794529486133955
1411.4198462816707,1411.4198462816707,1.0011570712193159,0.0013795552655969682
1411.4267906657644,1411.4267906657644,0.9988850906905714,0.0013789993901658936
1411.4337350499038,1411.4337350499038,0.9985726925160904,0.0013787695783615342
1411.4406794340796,1411.4406794340796,1.0000555919243863,0.0013789253199319917
1411.4476238182658,1411.4476238182658,0.9999539200772919,0.001378537895566442
1411.454568202511,1411.454568202511,0.9992754956012361,0.0013793133939833588
1411.4615125868027,1411.4615125868027,1.0022503686895732,0.0013796699536582665
1411.4684569711171,1411.4684569711171,1.0002117323452642,0.0013787438795513302
1411.475401355467,1411.475401355467,1.0017264997894604,0.0013792434889630108
1411.4823457398516,1411.4823457398516,1.0000928812322383,0.001379011640816424
1411.48929012426,1411.48929012426,0.9979992586604794,0.0013784627246814373
1411.4962345087138,1411.4962345087138,0.997422610758554,0.0013781011653718883
1411.5031788932033,1411.5031788932033,0.9992786510837373,0.001378348993353218
1411.5101232776929,1411.5101232776929,1.001162232447604,0.0013786939322807715
1411.5170676622517,1411.5170676622517,1.0014040443346541,0.0013794828233508933
1411.5240120468347,1411.5240120468347,1.0012221482275199,0.0013795375500763201
1411.5309564314402,1411.5309564314402,0.9994918716920299,0.0013790158483249547
1411.5379008160812,1411.5379008160812,1.0002857238161726,0.0013785704758120475
1411.5448452007454,1411.5448452007454,1.0010564655714198,0.001379189286038439
1411.5517895854437,1411.5517895854437,0.9988126129871201,0.001378344608364604
1411.5587339701783,1411.5587339701783,0.9989761320874546,0.0013785033896918553
1411.5656783549348,1411.5656783549348,1.0007323858216435,0.0013791140859758066
1411.5726227397158,1411.5726227397158,1.0004126329914382,0.0013785702562569252
1411.5795671245075,1411.5795671245075,1.0010301075381434,0.001378769495312972
1411.5865115093693,1411.5865115093693,1.0007822465495486,0.0013784789507044596
1411.593455894232,1411.593455894232,1.0000709078955157,0.0013787604299737811
1411.6004002791276,1411.6004002791276,0.9992399045664261,0.0013788873221767949
1411.607344664049,1411.607344664049,0.9992067707160632,0.001377819915669229
1411.6142890489918,1411.6142890489918,1.000719409868298,0.0013785206011217009
1411.62123343397,1411.62123343397,1.0002971109538517,0.0013780855732665818
1411.6281778189605,1411.6281778189605,1.0019225711122208,0.0013788311329429738
1411.6351222039732,1411.6351222039732,0.9990178298258874,0.0013780148918409389
1411.6420665890332,1411.6420665890332,1.0009033684426796,0.001379092989894084
1411.6490109741164,1411.6490109741164,0.999092187475769,0.0013786695315201709
1411.6559553591762,1411.6559553591762,0.9963109589623974,0.0013779910724262688
1411.6628997442942,1411.6628997442942,1.0014423693120338,0.0013792932651176984
1411.6698441294584,1411.6698441294584,1.0004514637508362,0.001378970337091817
1411.676788514612,1411.676788514612,1.0012495647139628,0.0013790793377048923
1411.6837328997995,1411.6837328997995,0.9987676961632467,0.0013789651358317961
1411.6906772850227,1411.6906772850227,1.0024030866894513,0.0013802511387579544
1411.6976216702453,1411.6976216702453,0.9998186081191228,0.0013793704428248586
1411.7045660554797,1411.7045660554797,1.000967395864438,0.0013794468580293105
1411.7115104407612,1411.7115104407612,0.9996240909251259,0.0013796775702720786
1411.7184548260532,1411.7184548260532,1.0006243014904366,0.0013801908303923418
1411.7253992113697,1411.7253992113697,0.9999444273182643,0.0013797277380839016
1411.7323435967085,1411.7323435967085,0.9977944035254337,0.001379195371737999
1411.739287982048,1411.739287982048,1.0000646711755685,0.0013795477155742106
1411.7462323674338,1411.7462323674338,0.9989725379685606,0.0013792475030959524
1411.7531767528076,1411.7531767528076,1.0024076953546852,0.0013800497783883073
1411.7601211382175,1411.7601211382175,1.001507786907068,0.001379632702553885
1411.767065523661,1411.767065523661,0.9991718326411924,0.0013783128647382038
1411.7740099091052,1411.7740099091052,0.9998568888973418,0.0013782790738294842
1411.7809542945724,1411.7809542945724,1.001145934434977,0.0013795128386319044
1411.787898680051,1411.787898680051,0.9986039168021099,0.001378777491561819
1411.7948430655538,1411.7948430655538,1.0004457992718794,0.0013794719126204878
1411.801787451067,1411.801787451067,0.9996575295514584,0.0013793465234938755
1411.8087318366163,1411.8087318366163,1.0004843155169572,0.0013793832716830626
1411.8156762221533,1411.8156762221533,1.0001662233083108,0.0013790922976999946
1411.8226206077252,1411.8226206077252,1.0012522623277245,0.0013797638800787846
1411.8295649933093,1411.8295649933093,0.9977217090992669,0.0013794359285236085
1411.8365093789039,1411.8365093789039,0.9987060972642793,0.0013789084198430675
1411.8434537645119,1411.8434537645119,0.9998416952801407,0.0013789748737719106
1411.8503981501415,1411.8503981501415,1.0023030846119536,0.0013798633225829294
1411.8573425357952,1411.8573425357952,1.0016025913358075,0.0013797051274507706
1411.8642869214486,1411.8642869214486,0.9983922047256112,0.0013792934636225637
1411.8712313071255,1411.8712313071255,1.000654603640044,0.0013792797333909354
1411.878175692791,1411.878175692791,0.998507056855105,0.0013790810062970433
1411.8851200784907,1411.8851200784907,1.0018614511111152,0.0013797919476311708
1411.8920644642265,1411.8920644642265,0.9995890920560774,0.0013792759206344724
1411.899008849949,1411.899008849949,0.9980419654208553,0.0013788349401597417
1411.9059532356966,1411.9059532356966,1.0000823472405929,0.0013793360777567905
1411.9128976214429,1411.9128976214429,1.0001023703684861,0.0013784452990297084
1411.9198420072128,1411.9198420072128,0.9999944135301428,0.0013798429831401097
1411.9267863929947,1411.9267863929947,1.000475092113968,0.0013792885585947718
1411.933730778776,1411.933730778776,1.0008130734814817,0.0013787830003582366
1411.9406751645813,1411.9406751645813,0.9997754249321844,0.0013781935459008224
1411.9476195503973,1411.9476195503973,1.0001009536414593,0.0013782243415788112
1411.9545639362257,1411.9545639362257,0.9999591337700157,0.0013777073742832376
1411.9615083220538,1411.9615083220538,0.9977788492744283,0.0013771440223461534
1411.9684527078932,1411.9684527078932,1.0024323863268343,0.0013785161094024335
1411.9753970937686,1411.9753970937686,0.9982060086039792,0.0013773515080691757
1411.9823414796315,1411.9823414796315,0.9998453793911566,0.001378248427458262
1411.9892858655066,1411.9892858655066,1.002091891220172,0.0013786587651624933
1411.9962302514045,1411.9962302514045,1.0017443857586543,0.001378472721390037
1412.0031746372908,1412.0031746372908,1.0005886056860138,0.0013781805253513235
1412.0101190232122,1412.0101190232122,0.9976866925903746,0.0013773223414375118
1412.0170634091332,1412.0170634091332,0.9999800047427552,0.0013781693479230786
1412.0240077950552,1412.0240077950552,0.997150062911089,0.0013779010995526304
1412.0309521809872,1412.0309521809872,0.9981668430826407,0.0013784021468864344
1412.0378965669324,1412.0378965669324,1.001991066279849,0.0013783930106906843
1412.0448409528885,1412.0448409528885,1.0017160894740642,0.0013784095981568738
1412.0517853388444,1412.0517853388444,1.0038724812704718,0.0013801950361670226
1412.0587297248362,1412.0587297248362,0.9999921937978357,0.0013789104886701052
1412.0656741108037,1412.0656741108037,1.0009346035650917,0.0013794847079606457
1412.0726184967607,1412.0726184967607,0.9984315822999058,0.0013788751564507075
1412.0795628827627,1412.0795628827627,0.9983473652003777,0.0013781693946963358
1412.0865072688007,1412.0865072688007,0.9997725523151166,0.0013785595624634466
1412.0934516547918,1412.0934516547918,0.9998905661201505,0.001378868933959765
1412.1003960407945,1412.1003960407945,1.0005705728928977,0.001380201545242054
1412.1073404268325,1412.1073404268325,0.9992832010232593,0.0013786642043681896
1412.1142848128582,1412.1142848128582,1.0004610067712154,0.0013792769417779343
1412.1212291988847,1412.1212291988847,1.0007615166983599,0.0013798501401377796
1412.128173584934,1412.128173584934,0.9991273773648173,0.00137921467061644
1412.1351179709836,1412.1351179709836,1.0013613543466966,0.0013797146095738597
1412.1420623570327,1412.1420623570327,0.999906752417749,0.0013783658183906498
1412.1490067430937,1412.1490067430937,0.9985571603010172,0.001378125265334151
1412.1559511291548,1412.1559511291548,1.0007472127134291,0.0013782580404575584
1412.1628955152387,1412.1628955152387,0.9997483279199424,0.0013778672759724665
1412.1698399013121,1412.1698399013121,1.0000547375144984,0.001378075543156524
1412.1767842873842,1412.1767842873842,0.9992315427020589,0.001377306453846008
1412.183728673469,1412.183728673469,0.9980305111633285,0.001377849376428575
1412.190673059565,1412.190673059565,1.0032805434112526,0.0013779610793670301
1412.1976174456604,1412.1976174456604,0.9986713361316675,0.0013776980730791314
1412.204561831757,1412.204561831757,1.0011354201235902,0.0013778135002516221
1412.2115062178639,1412.2115062178639,0.9988763764561227,0.0013768725333810614
1412.218450603972,1412.218450603972,0.9998243251051229,0.001377219805677214
1412.225394990091,1412.225394990091,1.0008144653572657,0.0013780183982777066
1412.2323393761988,1412.2323393761988,0.9989470079418332,0.0013778644514815456
1412.2392837623297,1412.2392837623297,1.000014052705421,0.0013771917113287856
1412.2462281484486,1412.2462281484486,0.999237263858953,0.0013769739545689934
1412.2542836363614,1412.2542836363614,0.998693360516539,0.0013769995123718748
1412.2634502260448,1412.2634502260448,0.9993278056144759,0.001376511418142185
1412.2734501420696,1412.2734501420696,1.0014150562298516,0.0013765558024658553
1412.2842833844609,1412.2842833844609,0.9996675999709381,0.0013767959831541541
1412.292061096945,1412.292061096945,1.0008669631127884,0.0013768112531082888
1412.299005483088,1412.299005483088,1.0006981643915476,0.0013772870258473061
1412.30594986923,1412.30594986923,1.0010020338953092,0.001377306231833976
1412.3128942553844,1412.3128942553844,0.9991601487961415,0.0013772200806279964
1412.3198386415384,1412.3198386415384,1.0016642909993332,0.0013777766615878466
1412.3267830276925,1412.3267830276925,1.0007064185726675,0.001377327679948608
1412.333727413847,1412.333727413847,0.9990832495520758,0.0013775151790493601
1412.340671800001,1412.340671800001,0.9998208202026853,0.0013779079722108685
1412.3476161861558,1412.3476161861558,0.9990973749952519,0.0013764834864754892
1412.354560572321,1412.354560572321,0.9992104093446168,0.0013770305516894834
1412.3615049584755,1412.3615049584755,0.9999232079083014,0.0013771695658259435
1412.3684493446408,1412.3684493446408,1.0009167446760383,0.0013780992306845386
1412.375393730807,1412.375393730807,1.0014113981792905,0.0013778212869329036
1412.3823381169727,1412.3823381169727,1.0006608909087045,0.0013776042990852415
1412.3892825031267,1412.3892825031267,0.9990897174288884,0.0013776124665145606
1412.3962268892928,1412.3962268892928,1.00075077423659,0.0013772329338077268
1412.4031712754581,1412.4031712754581,1.0001969546672997,0.0013774565687806899
1412.4101156616246,1412.4101156616246,0.9992786260280715,0.0013766113051721445
1412.4170600477903,1412.4170600477903,0.9988106797110621,0.0013766877999906281
1412.424004433956,1412.424004433956,0.9999793981189076,0.001377650959139731
1412.4309488201218,1412.4309488201218,1.0012575108514687,0.0013775480780896224
1412.4378932062875,1412.4378932062875,1.0002568545252903,0.0013775596738233014
1412.4448375924535,1412.4448375924535,0.998634137214769,0.0013768695855953803
1412.4517819786188,1412.4517819786188,0.9995132500765719,0.0013771063762762724
1412.458726364785,1412.458726364785,1.0002982672801917,0.001376244431524978
1412.4656707509505,1412.4656707509505,1.0015524425868467,0.0013773695291883958
1412.472615137105,1412.472615137105,1.0002166252892808,0.0013764868184510915
1412.4795595232708,1412.4795595232708,0.9991075736714334,0.0013766919970505018
1412.4865039094245,1412.4865039094245,0.99966884756328,0.0013774152677231975
1412.493448295591,1412.493448295591,1.001826350339461,0.0013781214056646418
1412.5003926817444,1412.5003926817444,1.0003601609044261,0.0013774586100455525
1412.507337067911,1412.507337067911,0.9981594586976777,0.0013764062439901336
1412.514281454053,1412.514281454053,1.0000321546189077,0.0013771884099454345
1412.5212258402194,1412.5212258402194,0.998169761546329,0.00137724893161029
1412.5281702263615,1412.5281702263615,1.0010248840894422,0.0013778263248315928
1412.5351146125158,1412.5351146125158,0.9989633850637665,0.0013770576071526776
1412.5420589986584,1412.5420589986584,1.0009248339284051,0.0013775508368053487
1412.5490033848123,1412.5490033848123,1.0003842905505895,0.001376951703153021
1412.555947770955,1412.555947770955,1.000432834972684,0.0013776835893762305
1412.562892157097,1412.562892157097,1.000620385660531,0.001376868487298525
1412.5698365432286,1412.5698365432286,0.9997502102695413,0.0013766662795301672
1412.5767809293707,1412.5767809293707,1.000641898586998,0.0013769831232009239
1412.5837253155019,1412.5837253155019,0.9993052800595317,0.0013769969214487818
1412.5906697016444,1412.5906697016444,0.9994311822577,0.0013766696509050595
1412.5976140877751,1412.5976140877751,1.0016417165025067,0.0013772370747714292
1412.6045584738947,1412.6045584738947,0.9990111282243053,0.0013772096792885424
1412.6115028600248,1412.6115028600248,0.9986108182712451,0.0013764063716365847
1412.6184472461448,1412.6184472461448,1.0006386788674297,0.0013768201434619974
1412.6253916322635,1412.6253916322635,1.0011007735628568,0.0013766340566430597
1412.6323360183717,1412.6323360183717,0.9997689543452027,0.0013773415529045269
1412.6392804044906,1412.6392804044906,0.998607628262689,0.0013765974797344202
1412.6462247905986,1412.6462247905986,1.0000719643432263,0.0013770326000003207
1412.653169176706,1412.653169176706,1.0011031255991933,0.0013766872765223607
1412.6601135628018,1412.6601135628018,0.9989338713393925,0.0013768385962230948
1412.6670579488982,1412.6670579488982,1.0015495284230587,0.0013771969997782472
1412.6740023349935,1412.6740023349935,1.0011811906929524,0.0013768786275546255
1412.68094672109,1412.68094672109,0.9977333885446307,0.0013759749103457969
1412.6878911071738,1412.6878911071738,0.9988943856312664,0.0013764283695395813
1412.6948354932472,1412.6948354932472,1.0014821277525459,0.0013766681516027375
1412.7017798793427,1412.7017798793427,1.0009984488311667,0.0013766869413613062
