time,time,flux,flux_err
1354.118721931778,1354.118721931778,1.0001087913497806,0.00012746562345800059
1354.1268239045,1354.1268239045,1.000067820786137,0.00011635876096943619
1354.1337684520151,1354.1337684520151,0.9998864107059028,0.00011634985555468457
1354.1407129995307,1354.1407129995307,0.9999213776647974,0.00011634674071598701
1354.1476575469526,1354.1476575469526,1.0000802651662029,0.00011636667842893551
1354.1546020940023,1354.1546020940023,0.9999033667787446,0.00011636074758383165
1354.161546640959,1354.161546640959,1.0000544784139127,0.00011636411117980489
1354.1684911878224,1354.1684911878224,0.9998971333659641,0.00011635723205125848
1354.1754357344062,1354.1754357344062,1.0001451406280684,0.00011636831613019962
1354.1823802808044,1354.1823802808044,0.9999118129261525,0.0001163559608157984
1354.1893248271087,1354.1893248271087,0.9998355678209198,0.00011635309591393711
1354.196269373227,1354.196269373227,1.0000607545811282,0.00011636320673016703
1354.203213919066,1354.203213919066,0.9998180213053324,0.00011634462475235144
1354.2101584648121,1354.2101584648121,1.0001304220533993,0.0001163662557338922
1354.2171030104644,1354.2171030104644,1.000011584609618,0.00011635435240463167
1354.224047555745,1354.224047555745,0.9999951954248246,0.00011635340804124943
1354.2309921009314,1354.2309921009314,1.0000988263643038,0.00011635455842002038
1354.237936646119,1354.237936646119,1.0001065780712306,0.0001163586702345216
1354.2448811910265,1354.2448811910265,0.999946820400794,0.00011635253705017533
1354.2518257357478,1354.2518257357478,0.9998644835378455,0.00011634415341297094
1354.2587702803758,1354.2587702803758,1.000100958023223,0.00011635647613533841
1354.265714824725,1354.265714824725,0.9999814018702654,0.00011634931630751099
1354.2726593689804,1354.2726593689804,1.0001898585570774,0.00011635944394913717
1354.279603913143,1354.279603913143,0.9996687470347624,0.00011633772327132524
1354.2865484569331,1354.2865484569331,1.000167744946379,0.00011636454392973997
1354.2934930007232,1354.2934930007232,1.000002520863045,0.00011635364077490977
1354.3004375443265,1354.3004375443265,1.0000090611923684,0.0001163581398100547
1354.3073820877444,1354.3073820877444,0.9999967653220129,0.00011635602036865905
1354.314326631069,1354.314326631069,0.999997122071812,0.00011635312917637663
1354.3212711741137,1354.3212711741137,1.0000402426333324,0.00011636021482155156
1354.3282157172519,1354.3282157172519,0.9998082993747133,0.00011634859201491889
1354.3351602599244,1354.3351602599244,1.0000405286900063,0.00011636489118524082
1354.3421048025034,1354.3421048025034,1.0000079687736416,0.00011635661106377407
1354.3490493450831,1354.3490493450831,0.9999634698326296,0.00011635613076184883
1354.3559938873827,1354.3559938873827,1.0000772953327073,0.00011636314780045205
1354.3629384294968,1354.3629384294968,0.9999609016143189,0.00011635393466219309
1354.3698829716107,1354.3698829716107,1.0000188589642134,0.00011636476265863538
1354.3768275134444,1354.3768275134444,1.000045401168439,0.00011635671021208815
1354.3837720550928,1354.3837720550928,0.9999538136782352,0.00011636117588192764
1354.3907165968335,1354.3907165968335,1.000135016699441,0.0001163697070066998
1354.3976611382022,1354.3976611382022,1.000103811622976,0.00011637112404329338
1354.404605679571,1354.404605679571,0.9999478455956865,0.00011635701056920188
1354.41155022066,1354.41155022066,0.9997647473463509,0.00011634451797662314
1354.4184947616563,1354.4184947616563,1.0000368846849563,0.00011636751126770518
1354.425439302373,1354.425439302373,0.9999257744178258,0.00011635688131170956
1354.4323838433688,1354.4323838433688,1.0000036390842069,0.0001163642718334965
1354.4393283838992,1354.4393283838992,1.0000241142989965,0.00011636492893843595
1354.4462729241502,1354.4462729241502,0.999854004395322,0.00011635302347405175
1354.4532174644944,1354.4532174644944,1.000290586122422,0.00011637721507533158
1354.4601620045594,1354.4601620045594,1.0001341749097314,0.00011637125790514365
1354.467106544531,1354.467106544531,0.9999987641309307,0.00011636139315019856
1354.4740510844094,1354.4740510844094,0.9996695171968917,0.00011634515855507121
1354.4809956241015,1354.4809956241015,0.9999436608778757,0.00011635908221931804
1354.4879401637004,1354.4879401637004,1.0002799544864571,0.00011637725470562466
1354.4948847031137,1354.4948847031137,1.000143878855926,0.00011637730688872853
1354.5018292424334,1354.5018292424334,0.9999238997096868,0.00011635899339081943
1354.5087737815666,1354.5087737815666,0.999912532221388,0.00011635903284894092
1354.515718320607,1354.515718320607,1.0000082509759316,0.00011636473543510238
1354.522662859461,1354.522662859461,0.9998511814517375,0.00011635364350029843
1354.529607398315,1354.529607398315,0.9999194822811892,0.0001163609813448622
1354.5365519368897,1354.5365519368897,0.9999410996508891,0.00011636073991492171
1354.5434964754645,1354.5434964754645,0.9999102587295265,0.00011636059142281407
1354.5504410137596,1354.5504410137596,1.0003460258510837,0.00011637980867628358
1354.557385551962,1354.557385551962,1.0000349531467319,0.0001163601661833681
1354.5643300901636,1354.5643300901636,0.9998684883596486,0.00011635406390156413
1354.5712746279,1354.5712746279,1.0001731481211569,0.00011637050957508764
1354.578219165823,1354.578219165823,0.9998306775311085,0.00011635497382849724
1354.5851637035594,1354.5851637035594,1.0001824221190212,0.00011637404741374037
1354.5921082411098,1354.5921082411098,0.9998413987418022,0.00011635710537319218
1354.5990527785666,1354.5990527785666,1.0001380112254203,0.0001163770203390398
1354.6059973159308,1354.6059973159308,1.000068269871417,0.00011636932533989628
1354.612941853015,1354.612941853015,0.9999494447971463,0.00011636767356593421
1354.6198863900995,1354.6198863900995,0.9999433794830859,0.00011636721349446875
1354.626830927091,1354.626830927091,0.999886408273146,0.00011636183416071954
1354.633775463896,1354.633775463896,0.9999119230935207,0.00011636316877751479
1354.640720000608,1354.640720000608,1.0000373333207446,0.0001163666921731319
1354.6476645371338,1354.6476645371338,0.9999780976145084,0.00011636233327908508
1354.654609073566,1354.654609073566,0.9999576975139352,0.00011636731198848864
1354.6615536099062,1354.6615536099062,1.0000088218475613,0.00011636859510680171
1354.6684981460592,1354.6684981460592,1.0002070877620206,0.00011638005976308021
1354.6754426823052,1354.6754426823052,1.0000457016468176,0.00011637090407372566
1354.6823872181794,1354.6823872181794,1.0003331559395081,0.00011639018219111422
1354.689331754053,1354.689331754053,0.9997320672548659,0.00011635927692949556
1354.6962762897406,1354.6962762897406,0.9997956715276978,0.00011636123110195262
1354.7032208253352,1354.7032208253352,1.0000719055138525,0.00011637607598743714
1354.7101653607433,1354.7101653607433,0.9998883811316948,0.0001163687657886195
1354.7171098961512,1354.7171098961512,0.9999693254884316,0.00011637112893196012
1354.7240544313731,1354.7240544313731,0.9999569126792519,0.000116373410976625
1354.7309989665018,1354.7309989665018,1.00009528271343,0.00011637624002740477
1354.7379435015378,1354.7379435015378,1.000055595272346,0.00011637789193809616
1354.7448880364802,1354.7448880364802,0.9998797503168,0.00011636747193029013
1354.751832571236,1354.751832571236,1.000247013417553,0.00011638943668239193
1354.7587771058995,1354.7587771058995,0.9998775659365611,0.00011637018813110116
1354.765721640469,1354.765721640469,1.0000061579734085,0.00011637670934688314
1354.7726661749464,1354.7726661749464,1.0002030228698309,0.00011638898460100131
1354.7796107092367,1354.7796107092367,1.0000905017378894,0.0001163802024970185
1354.7865552434341,1354.7865552434341,0.999755104871858,0.00011636306301250848
1354.7934997775385,1354.7934997775385,0.999848408352608,0.00011636899554451168
1354.8004443114564,1354.8004443114564,1.0000003084821043,0.0001163781608881684
1354.8073888452814,1354.8073888452814,0.9998377768762479,0.00011636271921746484
1354.8143333792925,1354.8143333792925,1.0001261767552971,0.0001163868570813017
1354.821277912838,1354.821277912838,1.00012969887153,0.00011638766225620068
1354.8282224463837,1354.8282224463837,1.000106203563488,0.00011638771896389347
1354.8351669798362,1354.8351669798362,1.0001326472511842,0.00011638952460015344
1354.842111513009,1354.842111513009,0.999981213184306,0.0001163817653014929
1354.8490560462753,1354.8490560462753,0.9998773413497574,0.00011637489198845243
1354.856000579448,1354.856000579448,0.9997660268302463,0.00011637007741230434
1354.8629451124348,1354.8629451124348,1.0000418048597077,0.00011638695101004965
1354.8698896453286,1354.8698896453286,0.9998556992903369,0.00011637414726280428
1354.8768341781288,1354.8768341781288,1.000189034480944,0.0001163947093634228
1354.8837787107432,1354.8837787107432,1.000147845481346,0.00011639300453293044
1354.8907232432641,1354.8907232432641,0.9999824738982322,0.00011638234272848033
1354.8976677758783,1354.8976677758783,0.9999826170550683,0.00011638241209994272
1354.9046123082135,1354.9046123082135,0.9998708743961536,0.00011637966647609682
1354.9115568404545,1354.9115568404545,1.0000834204123221,0.00011638688613081984
1354.91850137251,1354.91850137251,1.0000356938976585,0.0001163838128477777
1354.9254459046583,1354.9254459046583,0.9998796681494422,0.00011638076213142806
1354.9323904365278,1354.9323904365278,0.9998879191314141,0.00011637956094958616
1354.9404460934848,1354.9404460934848,1.0002691090120255,0.00011639525584517173
1354.9476684065096,1354.9476684065096,0.9999820920077627,0.00011638383376375349
1354.9546129380992,1354.9546129380992,1.000035102651598,0.00011639348019307403
1354.9615574695026,1354.9615574695026,1.0000089899851359,0.00011639411710093902
1354.9685020010925,1354.9685020010925,0.9998868177652334,0.00011637735072314061
1354.9754465324027,1354.9754465324027,0.9999923175867795,0.00011638504189362261
1354.98239106362,1354.98239106362,1.0000276123648848,0.00011639612996430692
1354.9893355947443,1354.9893355947443,0.9999566671072552,0.00011639222041977737
1354.9962801255886,1354.9962801255886,1.0000158164228612,0.00011639804455257081
1355.0032246565265,1355.0032246565265,1.000015934982898,0.00011640016726035144
1355.010169187371,1355.010169187371,0.9999167552741438,0.00011638903434114806
1355.0171137180296,1355.0171137180296,1.0000929929274935,0.00011640171738964287
1355.0240582486879,1355.0240582486879,0.9999430146756406,0.00011638992722853316
1355.03100277916,1355.03100277916,1.000115325142173,0.0001163971872655947
1355.0379473096323,1355.0379473096323,0.9999120004680065,0.00011639689221146778
1355.0448918399184,1355.0448918399184,0.9999897236636173,0.00011639539747361038
1355.051836370111,1355.051836370111,0.9999233223167865,0.00011639445940286614
1355.0587809001174,1355.0587809001174,1.0001654849842159,0.00011640866553444742
1355.065725430217,1355.065725430217,1.0001594202626005,0.00011640795488005615
1355.072669960224,1355.072669960224,0.9997316724702824,0.00011638610813349919
1355.0796144900437,1355.0796144900437,1.0000153402775305,0.00011639667762535671
1355.0865590197707,1355.0865590197707,0.9999658930792812,0.00011639933107338914
1355.0935035494049,1355.0935035494049,1.0000127964047187,0.00011640039741476482
1355.1004480789456,1355.1004480789456,1.0000690447085823,0.00011639888071233926
1355.1073926083932,1355.1073926083932,1.0001169238701728,0.00011640749194384982
1355.114337137748,1355.114337137748,0.9998584805650307,0.00011639097648230137
1355.1212816670093,1355.1212816670093,1.0000677618402851,0.00011640327286140695
1355.1282261961776,1355.1282261961776,0.9999280984445894,0.00011639865466548654
1355.135170725253,1355.135170725253,0.9999316652484447,0.00011639751415445862
1355.1421152541413,1355.1421152541413,1.0000506129707627,0.00011640889807101739
1355.1490597830305,1355.1490597830305,1.0000607929602754,0.00011640096364845473
1355.1560043119196,1355.1560043119196,0.9999694605405468,0.00011639866637793419
1355.162948840622,1355.162948840622,0.9999774761363431,0.0001164023811955826
1355.1698933692319,1355.1698933692319,0.9999676757631887,0.00011639857635948837
1355.1768378976549,1355.1768378976549,1.0003220452118717,0.00011642122515710847
1355.1837824261715,1355.1837824261715,0.9999144946025684,0.00011639843916627112
1355.1907269544083,1355.1907269544083,0.9999993101933807,0.0001164034308080243
1355.1976714827383,1355.1976714827383,0.9999868001839864,0.00011640280083763402
1355.2046160108823,1355.2046160108823,1.0001560064493553,0.00011641467023098069
1355.2115605389329,1355.2115605389329,0.9999739549451456,0.00011640602334099751
1355.2185050668904,1355.2185050668904,0.9997561044416374,0.00011639177481146941
1355.2254495947552,1355.2254495947552,1.0002275097758537,0.00011642049564691757
1355.2323941226193,1355.2323941226193,0.9999723360348611,0.00011640945165728685
1355.239338650298,1355.239338650298,1.0001061590468985,0.00011641662484865297
1355.2462831777896,1355.2462831777896,0.9998730511942278,0.00011640303610315045
1355.2532277053745,1355.2532277053745,0.9999181990764706,0.00011640417682899384
1355.2601722327734,1355.2601722327734,0.9999675308840921,0.00011641284334873531
1355.2671167601723,1355.2671167601723,1.0000811134829228,0.00011641678082758138
1355.2740612873845,1355.2740612873845,0.9999573026615778,0.00011641121840106237
1355.281005814504,1355.281005814504,0.9999601327784189,0.00011640840397250676
1355.2879503416232,1355.2879503416232,1.00001586558777,0.0001164214940921848
1355.29489486865,1355.29489486865,1.00013223853962,0.00011641999696261575
1355.3018393954894,1355.3018393954894,0.9999718343706153,0.00011641439595964143
1355.3087839223294,1355.3087839223294,1.0000210295777652,0.00011641854703218016
1355.3157284488905,1355.3157284488905,1.000066201985924,0.00011641257347352118
1355.322672975451,1355.322672975451,0.9998664291174609,0.00011641244281420101
1355.3296175020116,1355.3296175020116,0.9999376733314633,0.00011640585103341909
1355.337117590697,1355.337117590697,1.0000308786702061,0.00011641914289269102
1355.344895460445,1355.344895460445,0.9999076268927777,0.00011641464688399185
1355.35183998654,1355.35183998654,0.9999921745248705,0.00011641882794174352
1355.358784512728,1355.358784512728,1.0002408695973446,0.00011643879166932795
1355.365729038916,1355.365729038916,0.9998290806759507,0.00011641131048795205
1355.3726735649175,1355.3726735649175,0.9999772814822114,0.00011641727549095212
1355.3796180908266,1355.3796180908266,0.999992102384949,0.00011641510557231982
1355.386562616735,1355.386562616735,0.9998006826184469,0.00011640639928098948
1355.3935071424576,1355.3935071424576,1.000122336476068,0.00011643055035958894
1355.401285011088,1355.401285011088,0.9999933866377038,0.00011642302246714477
1355.4087850988417,1355.4087850988417,1.0001152024900348,0.00011643347823730355
1355.4157296242852,1355.4157296242852,0.9999285985669069,0.00011642346814221836
1355.4226741496348,1355.4226741496348,0.9998907877208592,0.00011642649035478766
1355.4296186750776,1355.4296186750776,1.0001434341795714,0.00011643555805306355
1355.4365632002416,1355.4365632002416,1.0000784056230618,0.00011643429321823832
1355.443507725405,1355.443507725405,0.9999023933025892,0.00011642799324227539
1355.4504522504753,1355.4504522504753,0.9999202135501235,0.00011642835268099269
1355.4573967755462,1355.4573967755462,0.9999888173759768,0.00011643490209712866
1355.4643413003373,1355.4643413003373,1.000067155011558,0.00011644204770927087
1355.4712858252212,1355.4712858252212,1.0000066865102792,0.00011643808550479285
1355.4782303500128,1355.4782303500128,0.9998846081364823,0.000116431706754608
1355.4851748746175,1355.4851748746175,0.9999621635256902,0.00011643623882549056
1355.4921193993155,1355.4921193993155,1.000061443586528,0.00011644373631894051
1355.4990639236407,1355.4990639236407,1.0000281033475775,0.00011644093374291729
1355.5060084482454,1355.5060084482454,1.000134158787691,0.00011644052379331854
1355.5129529724775,1355.5129529724775,0.9996648920247819,0.00011642004070070808
1355.5198974967102,1355.5198974967102,1.0001913135488474,0.0001164441947493828
1355.526842020942,1355.526842020942,1.0000303625353903,0.00011643523974830703
1355.5337865449883,1355.5337865449883,1.0000254849368753,0.0001164323226679767
1355.5407310689413,1355.5407310689413,1.000068409890669,0.00011642825732779237
1355.547675592894,1355.547675592894,0.999942154891005,0.00011643002256145723
1355.554620116754,1355.554620116754,0.9999468663543525,0.00011643138648041932
1355.5615646405208,1355.5615646405208,1.0001653485750543,0.00011644177204666193
1355.568509164194,1355.568509164194,0.999870987863984,0.00011642465306607585
1355.5754536878678,1355.5754536878678,0.9998039606772193,0.00011642245174261904
1355.5823982113548,1355.5823982113548,1.0000575823528706,0.00011644218556499587
1355.5893427348424,1355.5893427348424,1.00001896536143,0.00011643823806753231
1355.5962872581429,1355.5962872581429,0.9999584770955936,0.00011643663230353101
1355.603231781444,1355.603231781444,1.0002102644662743,0.00011644887134378937
1355.610176304652,1355.610176304652,1.0001457804707667,0.00011645120887887642
1355.6171208276735,1355.6171208276735,0.9999972167867337,0.0001164404386873096
1355.624065350788,1355.624065350788,1.0000094223651728,0.00011644502939689251
1355.63100987381,1355.63100987381,0.9999399080404523,0.00011644491168660352
1355.6379543966452,1355.6379543966452,0.9996438373420163,0.00011642536300460978
1355.6448989194803,1355.6448989194803,1.000096107401453,0.00011645054301563738
1355.6518434422226,1355.6518434422226,1.0000619063393272,0.00011645429264427708
1355.6587879648719,1355.6587879648719,0.9998937251296498,0.00011644668777842006
1355.6657324875207,1355.6657324875207,1.0004519548375868,0.00011646834652356941
1355.6726770099838,1355.6726770099838,0.9998587333812002,0.0001164454875200786
1355.6796215323534,1355.6796215323534,0.9999882651505082,0.00011645446982031279
1355.686566054723,1355.686566054723,1.0000154481813583,0.00011645950004375149
1355.6935105769062,1355.6935105769062,1.0000165197378617,0.0001164612743980495
1355.7004550992758,1355.7004550992758,1.000115949700968,0.00011647186917370965
1355.7073996211798,1355.7073996211798,1.000051537701515,0.00011646492231795105
1355.7143441433632,1355.7143441433632,0.9999387707092648,0.000116458205546911
1355.7212886654536,1355.7212886654536,1.0000266149262305,0.0001164673044495417
1355.7282331873575,1355.7282331873575,1.0000524918471214,0.00011646762209853117
1355.7351777087958,1355.7351777087958,0.9997265614663625,0.00011645144318840563
1355.7421222306998,1355.7421222306998,0.9998643523435835,0.00011645849219581957
1355.750177875736,1355.750177875736,1.0000176169132973,0.00011646816123490148
1355.7574001782368,1355.7574001782368,1.0001434591850564,0.0001164704193166453
1355.764344699675,1355.764344699675,1.0001330316539199,0.00011647354219215685
1355.7712892211134,1355.7712892211134,0.9998480197244255,0.0001164612774952894
1355.7782337424585,1355.7782337424585,1.0001320757629963,0.00011647350206471742
1355.7851782637106,1355.7851782637106,1.0000675849296654,0.00011646684234927291
1355.7921227848697,1355.7921227848697,0.9998585935620486,0.00011645132474320746
1355.7990673059358,1355.7990673059358,1.000029804052972,0.00011646571414526252
1355.8060118270012,1355.8060118270012,0.9999337032757264,0.00011645813083745218
1355.8129563479738,1355.8129563479738,1.0001611000668569,0.00011647733052807654
1355.819900868854,1355.819900868854,0.9999408883820479,0.00011646534905029006
1355.8268453896399,1355.8268453896399,1.0001047532822245,0.00011646718101043484
1355.8337899104265,1355.8337899104265,1.0001167544219745,0.00011647824753892864
1355.8407344309337,1355.8407344309337,0.9999883218356483,0.0001164696625897053
1355.8476789515335,1355.8476789515335,0.9999789771007961,0.0001164694752777456
1355.8546234720404,1355.8546234720404,1.0001408013079043,0.00011647841648218356
1355.8615679925479,1355.8615679925479,0.9999564794043814,0.00011646535924149623
1355.8685125128682,1355.8685125128682,0.999751811948196,0.0001164601303553843
