time,time,flux,flux_err
1410.9054884414402,1410.9054884414402,0.9997270415211655,0.0005926699891786433
1410.9131271443007,1410.9131271443007,1.0000581248944809,0.0005412012076223264
1410.920071419791,1410.920071419791,0.9996246622198439,0.0005411197237810527
1410.9270156954312,1410.9270156954312,0.9999453327915496,0.0005411917631293211
1410.9339599711661,1410.9339599711661,0.9998156457192893,0.0005409563076126553
1410.940904247051,1410.940904247051,1.0000696306428245,0.0005410498845980402
1410.9478485230761,1410.9478485230761,1.0000075592170465,0.0005410823845097988
1410.95479279923,1410.95479279923,1.0000881948398923,0.0005410664130967064
1410.9631259307762,1410.9631259307762,0.9999051044030413,0.0005407226673427537
1410.9792366523043,1410.9792366523043,1.0003330449312013,0.0005407704363074622
1410.9867364711763,1410.9867364711763,0.9993447294145558,0.000540983184415661
1410.9964584588502,1410.9964584588502,0.9993496343373381,0.0005403312285773754
1411.006180446711,1411.006180446711,1.0003117058638342,0.0005409690271114203
1411.013124723958,1411.013124723958,1.000813963327505,0.0005409330401545769
1411.0200690012873,1411.0200690012873,1.0005277879434513,0.0005409273064833198
1411.0270132787562,1411.0270132787562,1.0001886262531374,0.0005407857121505155
1411.0339575563526,1411.0339575563526,1.0001373519242944,0.0005405247481899691
1411.040901834066,1411.040901834066,0.9994313673707996,0.0005405237545885217
1411.0489571963665,1411.0489571963665,0.9999627304406186,0.0005404635605649386
1411.0561792454569,1411.0561792454569,0.9987521863901982,0.0005402111409326764
1411.0631235235423,1411.0631235235423,0.9996537696204744,0.0005402516937320207
1411.070067801779,1411.070067801779,1.000194030186657,0.0005405515880820173
1411.0770120800983,1411.0770120800983,1.0009799208777659,0.0005405712967079932
1411.0839563585444,1411.0839563585444,1.0006640631510795,0.000540343231901815
1411.0909006371076,1411.0909006371076,0.9989658420475992,0.000540257255216477
1411.0978449158106,1411.0978449158106,1.0006572883270124,0.0005407071108083038
1411.1047891945946,1411.1047891945946,1.0013273921860595,0.0005404232183318785
1411.1117334735077,1411.1117334735077,0.9989596500899129,0.0005402896464709488
1411.1186777525359,1411.1186777525359,0.9997584828180172,0.0005404278950894078
1411.1256220316695,1411.1256220316695,0.9995996028202541,0.0005400729489535941
1411.1325663109308,1411.1325663109308,0.9989232362010698,0.000540302314748679
1411.1395105902852,1411.1395105902852,1.000228073565281,0.0005404573161315746
1411.1464548697572,1411.1464548697572,1.0002928665614617,0.0005404864116727331
1411.153399149344,1411.153399149344,0.9999300664729226,0.0005401725289361665
1411.160343429025,1411.160343429025,1.0002219819435123,0.0005403783119357174
1411.167287708834,1411.167287708834,1.0005491910083186,0.0005400982274809171
1411.1742319887467,1411.1742319887467,1.0007981389698635,0.0005402787590869048
1411.1811762687778,1411.1811762687778,0.9997581077439817,0.0005400181507858378
1411.1881205488767,1411.1881205488767,0.9992556970393549,0.000540035091840926
1411.1950648291163,1411.1950648291163,0.9992582092060568,0.0005399658552955064
1411.2020091094605,1411.2020091094605,1.0006225382748053,0.0005401319218601641
1411.2089533898743,1411.2089533898743,1.000033656742973,0.0005402400045894693
1411.2158976704407,1411.2158976704407,1.0000207500901235,0.000540013298471756
1411.2228419510752,1411.2228419510752,1.0002136413988696,0.0005401926075343595
1411.2297862318155,1411.2297862318155,1.0003479560640167,0.0005400419874285677
1411.2367305126602,1411.2367305126602,1.0006701236909579,0.000540463541438306
1411.2436747936329,1411.2436747936329,0.9990913787221227,0.0005402346803019851
1411.2506190746644,1411.2506190746644,0.9998879527966917,0.0005403267375137961
1411.257563355823,1411.257563355823,1.000853036005263,0.0005405592770769145
1411.264507637064,1411.264507637064,0.9984891374931483,0.0005402471680483952
1411.2714519184212,1411.2714519184212,1.0001262239105417,0.0005402631372964986
1411.2783961998825,1411.2783961998825,0.9995006954580647,0.0005400821520298411
1411.2853404814148,1411.2853404814148,0.9994288413090295,0.0005402488778141724
1411.2922847630505,1411.2922847630505,1.0007777174856174,0.0005406548458327925
1411.2992290448153,1411.2992290448153,1.0003147815789653,0.000540541866959352
1411.3061733266265,1411.3061733266265,1.0002754022524765,0.0005407553172710605
1411.313117608554,1411.313117608554,1.0000261127449783,0.0005405362635039449
1411.3200618905632,1411.3200618905632,1.0006388726110884,0.0005407251913433168
1411.3270061726885,1411.3270061726885,0.9999178274322187,0.0005404183271565945
1411.3339504549072,1411.3339504549072,0.9984357800451062,0.0005399907778902561
1411.3408947371954,1411.3408947371954,0.9999887693352806,0.000540451817436458
1411.3478390195883,1411.3478390195883,0.999260334461083,0.0005403716211065667
1411.3547833020748,1411.3547833020748,0.999706491603176,0.0005403274931853246
1411.3617275846423,1411.3617275846423,1.0005931056803854,0.0005402465867763546
1411.3686718673039,1411.3686718673039,1.000606465544688,0.0005404075746658524
1411.3756161500692,1411.3756161500692,1.000544591187799,0.0005403799236429531
1411.3825604329045,1411.3825604329045,1.0006836116614592,0.0005401660883757136
1411.3895047158337,1411.3895047158337,0.9989961051529106,0.0005399906669321388
1411.3964489988664,1411.3964489988664,0.9998937444838173,0.0005397994289701934
1411.4033932819707,1411.4033932819707,1.0000041391569634,0.0005400770623303003
1411.4103375651546,1411.4103375651546,1.0001932925705586,0.0005401433511746347
1411.4172818484562,1411.4172818484562,1.0000989181120337,0.0005400186139056033
1411.4242261318038,1411.4242261318038,1.0006256006791738,0.0005402159349029293
1411.4311704152558,1411.4311704152558,0.9989547686657223,0.0005399232254778257
1411.4381146987907,1411.4381146987907,1.0002732915150585,0.0005398986304075117
1411.4450589824175,1411.4450589824175,0.9998244402926751,0.0005398675986715758
1411.4520032661144,1411.4520032661144,0.9996874982265576,0.0005400401494958381
1411.458947549893,1411.458947549893,1.0006799678825544,0.0005401453141050323
1411.465891833764,1411.465891833764,0.9991411451508434,0.0005398667592036025
1411.47283611773,1411.47283611773,0.9995797486050634,0.0005400002903602182
1411.4797804017521,1411.4797804017521,1.0007509192348722,0.0005400945172196495
1411.4867246858569,1411.4867246858569,0.9987080198951311,0.0005399849758889534
1411.493668970043,1411.493668970043,1.0006325755088197,0.0005402765814119319
1411.5006132543215,1411.5006132543215,1.0000458976682414,0.0005402628476275553
1411.507557538671,1411.507557538671,1.0011134755139264,0.0005404142240259137
1411.514501823101,1411.514501823101,0.9998461300841651,0.0005399149279384004
1411.5214461076132,1411.5214461076132,0.9998131280383715,0.0005402767249534482
1411.5283903921948,1411.5283903921948,0.9997080414115868,0.0005403529241631083
1411.5353346768698,1411.5353346768698,0.9998317505503438,0.000540501531944736
1411.542278961603,1411.542278961603,0.9990115056118704,0.0005401506068059371
1411.5492232464173,1411.5492232464173,1.0001605016769077,0.0005406735043305168
1411.5561675313024,1411.5561675313024,1.000895808354448,0.000540814053985441
1411.5631118162912,1411.5631118162912,0.999984477080609,0.0005405304655035282
1411.5700561013155,1411.5700561013155,1.0002619530116417,0.0005405687945013345
1411.5770003864325,1411.5770003864325,0.9995632739139506,0.0005406546071441439
1411.5839446716195,1411.5839446716195,1.0000096886505987,0.0005406896787079859
1411.590888956877,1411.590888956877,0.9991957596417045,0.0005403793575673375
1411.5978332422267,1411.5978332422267,1.000019704400412,0.0005406740193221526
1411.6047775276354,1411.6047775276354,1.000026861405734,0.0005406425172533519
1411.6117218131135,1411.6117218131135,1.0004820248563864,0.0005408004523823344
1411.618666098684,1411.618666098684,1.0000986121952318,0.0005405573656698891
1411.625610384303,1411.625610384303,0.9999471484854283,0.0005406230638591579
1411.6325546700014,1411.6325546700014,1.0002016365536819,0.000540680190266025
1411.6394989557596,1411.6394989557596,1.000223688557003,0.0005405793114802958
1411.6464432415983,1411.6464432415983,1.000413609558076,0.0005405309939680019
1411.6533875275068,1411.6533875275068,1.000483393447233,0.0005405626147698463
1411.6603318134748,1411.6603318134748,0.999620074809646,0.0005405314226404038
1411.6672760995345,1411.6672760995345,0.9991968531581005,0.000540375140117451
1411.6742203856302,1411.6742203856302,1.000112448285781,0.0005405135462153777
1411.6811646718295,1411.6811646718295,0.9995425166005072,0.0005403392450537586
1411.6881089580763,1411.6881089580763,1.0002858186591097,0.0005407291987555801
1411.6950532443927,1411.6950532443927,0.999201935269024,0.0005405262249185926
1411.7019975307671,1411.7019975307671,1.0001696552888473,0.0005406251618055624
1411.708941817212,1411.708941817212,1.000662043723926,0.0005406514549226123
1411.7158861037374,1411.7158861037374,0.9999752629208182,0.0005406431984174132
1411.7228303903103,1411.7228303903103,1.0003815410274453,0.0005406175093309637
1411.729774676964,1411.729774676964,1.000632038970976,0.000540737102951307
1411.7367189636643,1411.7367189636643,0.9994837189175929,0.000540607661425015
1411.7436632504464,1411.7436632504464,1.0000832257241563,0.000540872846778283
1411.7506075372864,1411.7506075372864,1.0000662147564012,0.000540809796206478
1411.757551824197,1411.757551824197,0.9995688074988106,0.0005407909805717404
1411.7644961111532,1411.7644961111532,0.9993166839962537,0.0005409474234312166
1411.7714403981802,1411.7714403981802,0.9995194655999484,0.0005407588533065486
1411.7783846852767,1411.7783846852767,1.0010741357416664,0.0005412328439669808
1411.785328972419,1411.785328972419,1.000125911823401,0.0005409264304360169
1411.7922732596442,1411.7922732596442,0.9996957592958211,0.0005410426893382679
1411.7992175469258,1411.7992175469258,1.0003695221488462,0.0005410654699228182
1411.8061618342672,1411.8061618342672,1.0000696267099058,0.000540990216451353
1411.813106121666,1411.813106121666,0.9989409677136548,0.0005407489297721673
1411.8200504091233,1411.8200504091233,1.000590540052679,0.0005412061159028503
1411.826994696639,1411.826994696639,1.0001568668560117,0.0005410200257521353
1411.8339389842356,1411.8339389842356,0.9997115356828715,0.0005407279087506734
1411.8408832718562,1411.8408832718562,1.0000154785864974,0.000540950297627663
1411.8478275595578,1411.8478275595578,0.9999216090107288,0.0005411069122015442
1411.8547718473178,1411.8547718473178,1.0008458523496078,0.000541199454281504
1411.8617161351358,1411.8617161351358,0.9997469023536567,0.0005409724558330155
1411.8686604229767,1411.8686604229767,0.9998297200209538,0.0005409592911635623
1411.8756047109234,1411.8756047109234,0.9995035133002925,0.0005409833649545297
1411.882548998916,1411.882548998916,1.0009627146805475,0.0005411766821993795
1411.8894932869557,1411.8894932869557,0.9997533227114459,0.0005411130173896108
1411.896437575053,1411.896437575053,0.9993447381714159,0.0005409743744889937
1411.903381863232,1411.903381863232,1.0003879719654418,0.0005410459461257938
1411.9103261514344,1411.9103261514344,0.9996742187392351,0.0005409322398607141
1411.917270439706,1411.917270439706,1.000264538047848,0.0005410871232605835
1411.9242147280256,1411.9242147280256,1.0006491281514571,0.0005411865441224186
1411.9311590164134,1411.9311590164134,0.9994591033870595,0.0005408167418591794
1411.9381033048373,1411.9381033048373,0.9996613207698857,0.0005407996104461356
1411.9450475933188,1411.9450475933188,1.0002194418315085,0.0005410072745514899
1411.951991881882,1411.951991881882,0.9998172616718973,0.0005409691088182466
1411.9589361704689,1411.9589361704689,0.9999987905435749,0.0005410802364945282
1411.9658804591243,1411.9658804591243,0.9996815652368085,0.0005409411687000467
1411.972824747828,1411.972824747828,1.0012369821634735,0.0005411939811572282
1411.9797690366001,1411.9797690366001,0.9996650408607344,0.0005410456068937322
1411.9867133253965,1411.9867133253965,1.0000544086150776,0.0005410778079293551
1411.9936576142625,1411.9936576142625,0.999577968095975,0.0005407966836031914
1412.0006019031748,1412.0006019031748,0.9991969545094188,0.0005411078147491676
1412.0075461921456,1412.0075461921456,1.0002161581242244,0.0005413241677183561
1412.0144904811625,1412.0144904811625,1.0012535091276509,0.0005412696822443481
1412.0214347702383,1412.0214347702383,0.9997394490843179,0.0005411524090888782
1412.0283790593598,1412.0283790593598,0.9997924152085222,0.0005410879831135008
1412.0353233485287,1412.0353233485287,1.000192058177705,0.0005411504481574414
1412.0422676377552,1412.0422676377552,0.9995128722274069,0.0005407263042345291
1412.0492119270284,1412.0492119270284,1.0003385658332775,0.0005411386175146969
1412.056156216372,1412.056156216372,0.9993606709803317,0.0005409193526551428
1412.063100505738,1412.063100505738,0.9995215856230221,0.0005410395872049673
1412.07004479514,1412.07004479514,0.9997895107177405,0.0005410880059769908
1412.076989084611,1412.076989084611,1.0007786765935074,0.0005412458030919725
1412.0839333741403,1412.0839333741403,0.9999339787543111,0.0005409525367563573
1412.0908776637048,1412.0908776637048,1.0001344907817884,0.0005409166948567084
1412.0978219533267,1412.0978219533267,1.000777845715648,0.0005411512315640482
1412.104766242985,1412.104766242985,1.0006466669268677,0.0005410525357268948
1412.1117105327116,1412.1117105327116,1.0000066979848545,0.0005412037695226496
1412.1186548224628,1412.1186548224628,0.9984315014469617,0.0005408167100801229
1412.1255991122716,1412.1255991122716,1.0004199827937206,0.000541075032452264
1412.1325434021387,1412.1325434021387,0.9999810617736834,0.0005410997087732239
1412.1394876920292,1412.1394876920292,0.9995052178901286,0.0005410495630129325
1412.1464319819772,1412.1464319819772,1.0001300697263507,0.0005412530250495306
1412.1533762719962,1412.1533762719962,1.0000345888915452,0.0005411250897093628
1412.1603205620256,1412.1603205620256,1.000121144930679,0.0005414907892725407
1412.167264852114,1412.167264852114,1.0008781015452568,0.000541451919418201
1412.1742091422602,1412.1742091422602,0.9993292280179349,0.0005410777194154345
1412.1811534324302,1412.1811534324302,1.000606729449332,0.0005415573842298788
1412.1880977226583,1412.1880977226583,0.9995799464094768,0.0005412354219369163
1412.1950420129326,1412.1950420129326,0.9995423303850519,0.0005412203822021296
1412.2019863032542,1412.2019863032542,0.999982845939312,0.0005410497072520644
1412.208930593598,1412.208930593598,0.9999904833204688,0.0005411977289062966
1412.2158748840127,1412.2158748840127,0.9994780840165735,0.0005409471037159507
1412.2228191744614,1412.2228191744614,0.99988943231666,0.0005410658595419571
1412.229763464969,1412.229763464969,1.000219414757642,0.0005410949185869346
1412.2367077554995,1412.2367077554995,0.9999298562921577,0.0005408365602281816
1412.2436520460647,1412.2436520460647,1.001394136273549,0.0005410947755601781
1412.2514296515874,1412.2514296515874,1.0001600022186519,0.0005407393727382029
1412.2600405720084,1412.2600405720084,1.000650203126076,0.0005401012366666725
1412.2700403506635,1412.2700403506635,0.9993242645785282,0.0005404030237574307
1412.2814289875764,1412.2814289875764,0.9986710644238741,0.0005399905544704322
1412.2894843649756,1412.2894843649756,0.9999576389490816,0.000540379812030036
1412.2964286558904,1412.2964286558904,0.9998579700139008,0.000540731297264777
1412.303372946817,1412.303372946817,1.0005817084499657,0.000541017089277707
1412.3103172378248,1412.3103172378248,0.9998650672248595,0.0005408240087792177
1412.3172615288445,1412.3172615288445,1.0001057586298499,0.0005411478227502356
1412.32420581991,1412.32420581991,0.9998822228586421,0.0005406306173153536
1412.3311501110234,1412.3311501110234,1.0009502586022252,0.0005412793193518832
1412.3380944021706,1412.3380944021706,1.0001347761638217,0.0005409433238319874
1412.3450386933653,1412.3450386933653,0.9998028083729995,0.0005405149615680248
1412.3519829846057,1412.3519829846057,0.9990563710059954,0.0005406405286826389
1412.3589272758816,1412.3589272758816,1.0000791791972419,0.0005407139845589285
1412.3658715671922,1412.3658715671922,1.0003117172949156,0.0005409830860810623
1412.3728158585375,1412.3728158585375,0.9998206382020722,0.0005410554097139439
1412.3797601499184,1412.3797601499184,1.000073697370495,0.0005410947712756396
1412.3867044413678,1412.3867044413678,1.000226294073178,0.00054096067743381
1412.3936487328422,1412.3936487328422,0.9993273312609949,0.0005410576720991487
1412.4005930243502,1412.4005930243502,1.000423861074327,0.0005410844030255415
1412.4075373158937,1412.4075373158937,1.0009401737472634,0.0005411229631863754
1412.414481607484,1412.414481607484,0.9994114030706257,0.0005406281581770259
1412.4214258991085,1412.4214258991085,0.9999316487442413,0.0005411725780327454
1412.4283701907923,1412.4283701907923,0.9993052109219741,0.0005410519002622324
1412.4353144824865,1412.4353144824865,1.0005256785190206,0.0005413344206189096
1412.442258774217,1412.442258774217,0.9998776518810368,0.0005408820708146219
1412.4492030659926,1412.4492030659926,1.0001096078762326,0.0005409922688137381
1412.4561473578156,1412.4561473578156,0.9992356078928772,0.0005404273990490799
1412.4630916496612,1412.4630916496612,0.9997044787013735,0.000540624449884376
1412.4700359415542,1412.4700359415542,1.000842711552907,0.0005408702348841056
1412.476980233482,1412.476980233482,1.0004846445130668,0.0005404936751197469
1412.4839245254557,1412.4839245254557,1.000516404950155,0.0005410756623139909
1412.4908688174423,1412.4908688174423,0.9994158682647305,0.0005407985811360889
1412.4978131094972,1412.4978131094972,1.0002116272209405,0.0005406976731535598
1412.5047574015655,1412.5047574015655,0.9993967930652984,0.000540849054288638
1412.5117016936786,1412.5117016936786,0.9995372055554921,0.0005409428742722437
1412.5186459858162,1412.5186459858162,1.0009392924363285,0.000541250886086141
1412.5255902779995,1412.5255902779995,0.9999490095524901,0.000541137070961512
1412.53253457023,1412.53253457023,1.0001573810064754,0.0005412219294254617
1412.5394788624722,1412.5394788624722,0.999898231726726,0.0005412536602986941
1412.5464231547835,1412.5464231547835,0.9998875312245051,0.0005413408987223372
1412.5533674470958,1412.5533674470958,1.0001387443912146,0.000541362968998638
1412.5603117394535,1412.5603117394535,0.9996152841534045,0.0005412626735241026
1412.567256031859,1412.567256031859,0.9998845306544203,0.0005412993958222992
1412.5742003242867,1412.5742003242867,1.000049945231432,0.0005414277540524844
1412.5811446167504,1412.5811446167504,1.0001254991977853,0.0005414590090943912
1412.5880889092482,1412.5880889092482,0.9997500781205224,0.0005413666397511539
1412.5950332017694,1412.5950332017694,0.9997453436766323,0.0005413186235178437
1412.6019774943375,1412.6019774943375,1.0013085817391199,0.0005416041725239591
1412.6089217869514,1412.6089217869514,0.9995594020653658,0.0005412852633773941
1412.61586607959,1412.61586607959,0.9997368805411732,0.0005412512131829374
1412.6228103722622,1412.6228103722622,0.9999102812745825,0.000541065969379715
1412.6297546649698,1412.6297546649698,0.99971180011824,0.0005412487522674743
1412.6366989577007,1412.6366989577007,0.9999725631800059,0.0005412335172605505
1412.6436432504665,1412.6436432504665,0.999841557265474,0.0005411487595675819
1412.650587543279,1412.650587543279,0.9998282789860558,0.0005412544710809693
1412.6575318361026,1412.6575318361026,1.0004983119166302,0.0005413131391898713
1412.6644761289738,1412.6644761289738,1.0001138612985678,0.0005413108951260596
1412.6714204218904,1412.6714204218904,1.0001612036590442,0.0005411947373286865
1412.6783647148197,1412.6783647148197,0.9999666868255546,0.000540676082815423
1412.6853090077946,1412.6853090077946,1.000967453948019,0.0005412933507838202
1412.6922533007937,1412.6922533007937,0.9994033847982919,0.0005411758218425787
1412.6991975938267,1412.6991975938267,0.9997619186029976,0.0005413632707409524
