time,time,flux,flux_err
1325.2980205034428,1325.2980205034428,1.0000888202816691,0.00019054998412405277
1325.3063538497813,1325.3063538497813,0.9999464895213913,0.00019067514099632734
1325.314687196489,1325.314687196489,1.0000386407635669,0.00019069060585000775
1325.3223260978978,1325.3223260978978,0.9999975111889482,0.00017408370202931547
1325.3292705539106,1325.3292705539106,1.0000759958449243,0.00017410447618616508
1325.3362150101798,1325.3362150101798,0.9995694893657685,0.00017407829602454825
1325.3431594666822,1325.3431594666822,1.000065813964189,0.000174136412855841
1325.3501039233704,1325.3501039233704,0.9997756093373995,0.00017413048452955308
1325.3570483802916,1325.3570483802916,1.000380601983038,0.00017420502806167205
1325.3639928374225,1325.3639928374225,1.0000600679383775,0.00017421656132617897
1325.3709372947626,1325.3709372947626,0.9999823008344502,0.000174219040071168
1325.3778817522893,1325.3778817522893,1.0000128954187246,0.00017424245776744343
1325.3848262100253,1325.3848262100253,1.0000403183227728,0.0001742839073888213
1325.3917706679708,1325.3917706679708,0.9999922415591112,0.00017431921997058895
1325.3987151261492,1325.3987151261492,0.9999450451914591,0.00017434738370638816
1325.4056595844445,1325.4056595844445,1.0001857901872544,0.0001743699239902631
1325.412604042995,1325.412604042995,0.9999281840461688,0.00017437805464494356
1325.4195485017558,1325.4195485017558,0.9998214157626333,0.0001744108929999647
1325.4264929606325,1325.4264929606325,1.0000755154777066,0.0001744662632921857
1325.4334374197424,1325.4334374197424,1.0001119780921657,0.00017446969528224168
1325.440381878992,1325.440381878992,0.9999844916469828,0.00017447704672369848
1325.4473263384975,1325.4473263384975,0.9998461844538973,0.00017450120480566822
1325.454270798166,1325.454270798166,0.9997792920790408,0.00017452683294203207
1325.4612152579741,1325.4612152579741,0.9998918523758592,0.00017454432964181184
1325.468159717992,1325.468159717992,1.0001394243536856,0.00017458459352131468
1325.475104178196,1325.475104178196,0.9998960983935611,0.00017455600971569407
1325.482048638563,1325.482048638563,1.000372153532341,0.00017463353776159648
1325.4889930990935,1325.4889930990935,1.0002264679635375,0.0001746561451909924
1325.4959375598096,1325.4959375598096,0.9999939840252813,0.0001746631656643714
1325.5028820206655,1325.5028820206655,0.9999796312198935,0.00017468715886052194
1325.5098264817311,1325.5098264817311,0.9997540804811352,0.0001746962943552673
1325.516770942913,1325.516770942913,1.0000224663972894,0.00017474458422677558
1325.5237154042813,1325.5237154042813,0.9998231304548242,0.00017476821743062483
1325.5306598658124,1325.5306598658124,0.9998879652590784,0.0001747939773776202
1325.5376043274832,1325.5376043274832,0.9999629113261678,0.0001748173656192223
1325.5445487893408,1325.5445487893408,1.0000260542388362,0.00017484311129533178
1325.5514932513374,1325.5514932513374,1.000242682934217,0.00017488829340522484
1325.5584377135208,1325.5584377135208,1.0001435672662988,0.00017488877897727195
1325.56538217582,1325.56538217582,0.9997825644466429,0.0001748802619952223
1325.572326638236,1325.572326638236,1.0000168144366666,0.0001749633306961855
1325.5792711008387,1325.5792711008387,1.0000060881143367,0.0001749618131411204
1325.586215563557,1325.586215563557,0.9999811467532623,0.00017498742821618493
1325.5931600264619,1325.5931600264619,1.0000517489972953,0.00017501194787966187
1325.6001044895067,1325.6001044895067,0.9999797632310476,0.00017502210422728928
1325.6070489526908,1325.6070489526908,1.0001769072111297,0.00017504653421909034
1325.6139934159917,1325.6139934159917,1.000004693250281,0.0001750561701887258
1325.6209378794551,1325.6209378794551,1.0001291949587856,0.00017507760983148752
1325.6278823430355,1325.6278823430355,0.9999008086506251,0.00017505916480099515
1325.634826806732,1325.634826806732,0.9999719481725453,0.00017507840528093886
1325.6417712705913,1325.6417712705913,0.9999456006811848,0.0001750851988924094
1325.6487157345907,1325.6487157345907,1.0000739496653845,0.00017511542427940132
1325.655660198683,1325.655660198683,0.9997705041229462,0.00017510192472387475
1325.6626046629385,1325.6626046629385,0.9997311585778748,0.00017509077246904528
1325.66954912731,1325.66954912731,0.999822611884397,0.0001750762967716391
1325.6764935918216,1325.6764935918216,1.0004997062512273,0.00017511098884929533
1325.6834380564494,1325.6834380564494,0.9999120214632194,0.00017509044241040554
1325.690382521147,1325.690382521147,0.9999225911843869,0.0001751041744823577
1325.6973269860314,1325.6973269860314,1.000178160626944,0.0001751342162102228
1325.7042714509853,1325.7042714509853,1.0000952580910591,0.00017512029460232454
1325.711215916125,1325.711215916125,0.9999691998839525,0.00017513302995147235
1325.718160381335,1325.718160381335,1.0001902059423218,0.00017513810697352496
1325.7251048466615,1325.7251048466615,1.0000416825009866,0.00017515858061345485
1325.7320493120808,1325.7320493120808,0.9998730597933955,0.00017515367409590507
1325.7389937776636,1325.7389937776636,0.9999515114129865,0.00017519799941743543
1325.7459382433385,1325.7459382433385,0.9998301051337851,0.00017517899173939564
1325.752882709131,1325.752882709131,0.9997480550932478,0.00017520921045913204
1325.7598271749928,1325.7598271749928,1.0003364323669373,0.00017526171770227745
1325.766771640971,1325.766771640971,0.9999014411020708,0.00017526576691138365
1325.773716107089,1325.773716107089,0.9999755852194261,0.0001752815086712686
1325.7806605732999,1325.7806605732999,0.9999529136392422,0.00017530515798105188
1325.7876050396044,1325.7876050396044,1.0001370485206031,0.00017530756025686405
1325.7945495060253,1325.7945495060253,1.0001327606308466,0.00017533237629967788
1325.801493972539,1325.801493972539,1.0000347717702012,0.00017536168760468786
1325.8084384391693,1325.8084384391693,0.9998116656859513,0.00017534045686444448
1325.815382905869,1325.815382905869,1.0001105177565845,0.00017538939801773105
1325.8223273726624,1325.8223273726624,0.9999351875007454,0.00017536116181114824
1325.8292718395953,1325.8292718395953,1.0000188836973432,0.00017537950937912908
1325.8362163065747,1325.8362163065747,0.9999952090741605,0.00017539971941780158
1325.843160773694,1325.843160773694,1.0001241951559083,0.00017539057875526226
1325.8501052409058,1325.8501052409058,0.9995839544991456,0.00017534561147434073
1325.857049708165,1325.857049708165,1.0001675880753587,0.0001754057720413508
1325.8639941755403,1325.8639941755403,1.0001521659522763,0.00017539274802609418
1325.8709386429855,1325.8709386429855,0.9998782700435569,0.0001753601212452888
1325.8778831105703,1325.8778831105703,1.0000490334454324,0.00017535279887230006
1325.8848275782016,1325.8848275782016,0.9999355682776162,0.00017532680076372617
1325.8917720459492,1325.8917720459492,1.0000533102434523,0.00017531346090820585
1325.898716513744,1325.898716513744,1.0001071986535455,0.00017531249899242215
1325.9056609816544,1325.9056609816544,0.9999361675703925,0.00017526066697144904
1325.912605449635,1325.912605449635,0.9998457979469688,0.00017523097727233263
1325.9195499177088,1325.9195499177088,0.9999830972797799,0.00017529162477811558
1325.9264943858527,1325.9264943858527,0.9999199032865385,0.00017526189417142366
1325.9334388541124,1325.9334388541124,1.0003361433349753,0.00017530085617876087
1325.9403833224192,1325.9403833224192,1.0001103590734175,0.0001752525061160541
1325.9473277907957,1325.9473277907957,0.9999790568219638,0.00017526195065441943
1325.9542722592887,1325.9542722592887,0.9999358540959156,0.00017525040325549598
1325.9620500640492,1325.9620500640492,0.9999406266118738,0.00017532094713306856
1325.9695500901544,1325.9695500901544,0.9997289244237872,0.0001752277833515658
1325.9764945588802,1325.9764945588802,1.0000983825174639,0.00017527250592456485
1325.9834390276988,1325.9834390276988,0.9997893710968547,0.00017523717950070097
1325.9903834965407,1325.9903834965407,1.0002554493391094,0.00017526968470559212
1325.9973279654996,1325.9973279654996,0.9999928002288163,0.00017529224407007347
1326.0042724345044,1326.0042724345044,1.0000294274068557,0.00017528435667697468
1326.0112169035797,1326.0112169035797,0.9999415895824993,0.00017530099964428638
1326.0181613727243,1326.0181613727243,1.000289320097581,0.00017530778870510354
1326.0251058419858,1326.0251058419858,0.9999724421024394,0.00017531709302016509
1326.03205031127,1326.03205031127,0.9997524189908515,0.00017531516877965122
1326.038994780601,1326.038994780601,0.9997085008851136,0.0001753194179311179
1326.0459392500254,1326.0459392500254,1.0002813168275175,0.00017535536347383496
1326.0528837195425,1326.0528837195425,1.000116820692789,0.00017536624610857166
1326.059828189083,1326.059828189083,1.0000651493504071,0.00017536939260269645
1326.066772658717,1326.066772658717,1.0001469919879178,0.00017538689811705802
1326.07371712842,1326.07371712842,0.9998394889599427,0.0001753432725387399
1326.0806615981478,1326.0806615981478,1.0001922253390123,0.00017539022339020476
1326.0876060679905,1326.0876060679905,0.9998487471229826,0.0001753561578036388
1326.0945505378572,1326.0945505378572,0.9999322491045165,0.00017537402258019586
1326.101495007817,1326.101495007817,0.9997051588453918,0.00017534725099865932
1326.1084394777997,1326.1084394777997,0.9999649257891587,0.000175383749069094
1326.1153839478761,1326.1153839478761,1.0001136616336423,0.00017542625504058022
1326.1223284179982,1326.1223284179982,0.9999420742315971,0.0001753939633914889
1326.129272888168,1326.129272888168,1.0001117032675393,0.00017537598809794016
1326.1362173584068,1326.1362173584068,1.000174539209237,0.00017539907506750947
1326.1431618287158,1326.1431618287158,1.0000190020379949,0.00017537749204506688
1326.1501062990715,1326.1501062990715,0.9997759606195302,0.000175369453498303
1326.15705076945,1326.15705076945,1.0001390544583628,0.0001754077821319755
1326.1639952399455,1326.1639952399455,1.0002641857219277,0.00017542591503317314
1326.1709397104637,1326.1709397104637,0.999930943043824,0.00017538325646915783
1326.1778841810524,1326.1778841810524,0.9998256093728143,0.00017538507907934194
1326.184828651687,1326.184828651687,0.9998273473634811,0.00017539189540454785
1326.191773122368,1326.191773122368,0.9999211642757604,0.00017536975122248006
1326.1987175930967,1326.1987175930967,1.000386571846811,0.00017541999353314506
1326.2056620639175,1326.2056620639175,1.0001290541884038,0.00017540932676633048
1326.212606534739,1326.212606534739,0.9999481255375038,0.0001753926931458097
1326.21955100563,1326.21955100563,1.0000342866855207,0.0001754039190792677
1326.226495476614,1326.226495476614,1.0002011075212969,0.00017542321716269754
1326.2334399475283,1326.2334399475283,1.0000104104573804,0.00017541410201384197
1326.2403844186285,1326.2403844186285,0.9997703108877068,0.0001753772016953067
1326.2473288897065,1326.2473288897065,0.9999819730954395,0.00017539168093446027
1326.2542733608764,1326.2542733608764,0.9997809909143521,0.00017540255617098718
1326.2612178320474,1326.2612178320474,0.9999539100202781,0.00017539681319249492
1326.2681623032872,1326.2681623032872,1.0002456281160377,0.00017543044080536158
1326.2751067745507,1326.2751067745507,1.0000237601942263,0.00017539511645564413
1326.2820512458843,1326.2820512458843,0.9999853339052981,0.00017541516254220937
1326.2889957172874,1326.2889957172874,1.000131175520506,0.0001754192430817274
1326.295940188714,1326.295940188714,1.000111980309776,0.00017539720525011567
1326.3028846601635,1326.3028846601635,0.9998746576416551,0.0001754151480710098
1326.30982913166,1326.30982913166,0.9999625553710898,0.00017543358091035415
1326.316773603273,1326.316773603273,1.0000445691516773,0.00017543667139687495
1326.3237180748854,1326.3237180748854,1.0000147223095204,0.00017545011295998523
1326.3306625464988,1326.3306625464988,0.9999703846398855,0.00017544990037047871
1326.337607018158,1326.337607018158,0.9998789471172611,0.0001754560075195378
1326.3451070476162,1326.3451070476162,0.999890023010302,0.000175445609280978
1326.3542737503778,1326.3542737503778,1.0003690363777065,0.00017550427570109216
1326.3612182222,1326.3612182222,0.9998850964657443,0.00017549917840999736
1326.3681626940693,1326.3681626940693,0.9998141965000575,0.00017548149034804964
1326.3751071659844,1326.3751071659844,0.9999537998583652,0.00017553465728765383
1326.3820516379467,1326.3820516379467,0.9998087170056339,0.00017550838102282893
1326.388996109932,1326.388996109932,1.0003913794429506,0.00017556934534321934
1326.3959405819405,1326.3959405819405,0.9999920485662077,0.0001755538031973983
1326.4028850540187,1326.4028850540187,0.999971004990212,0.00017554131852129013
1326.4098295261442,1326.4098295261442,1.0000074265172878,0.0001755777507645666
1326.4167739982227,1326.4167739982227,0.9999099198386319,0.0001755768876425097
1326.4237184704173,1326.4237184704173,1.0000375058366013,0.0001755704845157559
1326.4306629426353,1326.4306629426353,1.0002096358412387,0.00017563731269528546
1326.4376074149234,1326.4376074149234,0.999725695549604,0.0001755739060305172
1326.4445518872114,1326.4445518872114,1.000009489726144,0.00017563391096541851
1326.4514963595227,1326.4514963595227,1.0000999608444048,0.00017563085900453498
1326.4584408319038,1326.4584408319038,1.0000269191104256,0.0001756365175492139
1326.4653853042848,1326.4653853042848,1.0001261656718161,0.0001756612058325695
1326.4723297767127,1326.4723297767127,0.9997283879454084,0.0001756383176117139
1326.479274249164,1326.479274249164,1.000227513159911,0.00017569514732282426
1326.4862187216845,1326.4862187216845,0.9998005502643366,0.0001756645555985906
1326.4931631942288,1326.4931631942288,1.0001584280194067,0.0001757006565628267
1326.5001076667727,1326.5001076667727,1.0000765750450293,0.00017571183388551698
1326.5070521393868,1326.5070521393868,0.9997978970281199,0.00017569681059816233
1326.513996612024,1326.513996612024,0.9998067397790219,0.00017571838530429986
1326.5209410846846,1326.5209410846846,1.0000521218041285,0.00017571378316653111
1326.527885557415,1326.527885557415,0.9999787065352346,0.00017577910161150747
1326.5348300300752,1326.5348300300752,1.0002475174449206,0.00017577529193209572
1326.5417745028524,1326.5417745028524,1.000094342428962,0.0001757970718820146
1326.5487189756293,1326.5487189756293,1.0000190723802356,0.0001757966037809059
1326.5556634484994,1326.5556634484994,0.9997586010946602,0.00017579350595118057
1326.562607921346,1326.562607921346,1.0001849163255732,0.00017583142874861194
1326.5695523942163,1326.5695523942163,0.9997501157761473,0.00017578487429402402
1326.5764968671333,1326.5764968671333,0.9999923231255423,0.00017582001420498184
1326.583441340096,1326.583441340096,1.0002195858481864,0.00017583659777135218
1326.5903858130596,1326.5903858130596,1.0001500171946827,0.00017584243265457775
1326.597330286046,1326.597330286046,0.9999368755427719,0.00017587640926623973
1326.6042747591023,1326.6042747591023,1.000003243196258,0.00017586030922630763
1326.6112192321586,1326.6112192321586,0.999721176712575,0.00017584626120306814
1326.6181637052382,1326.6181637052382,0.9999916192364842,0.00017588368607412017
1326.6251081783412,1326.6251081783412,0.9999731647923996,0.00017585440401300727
1326.6320526514905,1326.6320526514905,1.0000077502630083,0.00017589043494465147
1326.6389971246867,1326.6389971246867,1.000386401434977,0.00017592312140472953
1326.6459415978593,1326.6459415978593,0.9997231636923354,0.0001758690012748988
1326.6528860710787,1326.6528860710787,1.0000790995951285,0.0001758848287850465
1326.6598305443447,1326.6598305443447,0.9998816318527732,0.00017585952339216728
1326.6667750176105,1326.6667750176105,0.9999401653717083,0.00017585637432772133
1326.6737194909233,1326.6737194909233,1.0001218554441114,0.0001758766403973975
1326.6806639642123,1326.6806639642123,1.0002028074304166,0.00017584533428202081
1326.6887195533086,1326.6887195533086,0.9997615875527479,0.00017582423868421824
1326.6959418056485,1326.6959418056485,0.9999889711070346,0.00017584091966782944
1326.7028862790773,1326.7028862790773,1.0004137572229805,0.00017585389958893843
1326.7103863103753,1326.7103863103753,1.0000113501259602,0.0001758253412419157
1326.7181641206537,1326.7181641206537,0.9995553733497642,0.00017577938148076108
1326.725108594129,1326.725108594129,0.9997280096092027,0.0001757672585551564
1326.7320530676511,1326.7320530676511,1.0001284373146733,0.00017578774847914607
1326.7389975411966,1326.7389975411966,1.000074966755164,0.00017574277746369867
1326.7459420147648,1326.7459420147648,1.0001719281788384,0.00017578534938194015
1326.7528864883334,1326.7528864883334,0.9997478185451193,0.0001757883077056353
1326.7598309619254,1326.7598309619254,0.9999637811250605,0.00017575855668991756
1326.7667754355869,1326.7667754355869,1.0003247159725788,0.00017578478101465083
1326.7737199092255,1326.7737199092255,1.0000458382565425,0.00017576097944122906
1326.7806643828872,1326.7806643828872,0.9999740234009391,0.0001757456156043575
1326.7876088565954,1326.7876088565954,1.0000184537931562,0.00017576053248717207
1326.7945533303036,1326.7945533303036,1.0001188811784534,0.00017577843125899487
1326.8014978040355,1326.8014978040355,0.9997777911555541,0.0001757727836792024
1326.8084422778134,1326.8084422778134,1.0000104901982738,0.00017579110190514197
1326.8153867515912,1326.8153867515912,0.999750550326692,0.00017581054782455212
1326.8223312253929,1326.8223312253929,1.0000791611637805,0.00017575936301956417
1326.8292756992173,1326.8292756992173,0.9999488664528252,0.00017579013329764852
1326.8362201730656,1326.8362201730656,1.000282819057588,0.0001758109302155012
1326.8431646469369,1326.8431646469369,0.9998809605001411,0.00017578768956843144
1326.850109120808,1326.850109120808,1.0002811887482537,0.00017580482788685315
1326.857053594749,1326.857053594749,0.9998356449178345,0.0001757727439538091
1326.8639980686905,1326.8639980686905,0.9999331355908382,0.00017575942123894812
1326.8709425426318,1326.8709425426318,0.9999147848792106,0.000175759852443393
1326.8778870165722,1326.8778870165722,0.9999816418464091,0.0001757392583980613
1326.884831490514,1326.884831490514,1.0001773250516468,0.0001757183738203668
1326.891775964571,1326.891775964571,0.9999086163175667,0.00017571769552099273
1326.8987204385821,1326.8987204385821,0.9997196779371279,0.00017565915513799682
1326.9056649126164,1326.9056649126164,1.0001992976271272,0.00017566773989593617
1326.912609386674,1326.912609386674,1.0000240234525142,0.00017564760114196874
1326.9195538607546,1326.9195538607546,1.000101958026302,0.00017559013069537514
1326.926498334859,1326.926498334859,1.0000610507880245,0.00017562373973102797
1326.933442808963,1326.933442808963,0.9999173468330416,0.00017554984903984136
1326.9403872830899,1326.9403872830899,1.000017504569671,0.00017554048418970506
1326.9473317572642,1326.9473317572642,1.0000183252981742,0.00017553078698012085
1326.9542762314381,1326.9542762314381,1.0000983707133253,0.00017553554937363124
1326.961220705612,1326.961220705612,0.9999684289929214,0.0001754953569116719
1326.9681651798096,1326.9681651798096,0.9997462189811639,0.00017546283598287625
1326.9751096540526,1326.9751096540526,1.0001033836120508,0.00017550122880960608
1326.9820541282738,1326.9820541282738,1.0000836385397909,0.00017545058996325526
1326.9889986025405,1326.9889986025405,1.0001990778077199,0.00017542734228142326
1326.995943076808,1326.995943076808,0.9997334032427043,0.00017540198244017803
1327.002887551098,1327.002887551098,1.0000136393302816,0.00017543657567603576
1327.0098320254117,1327.0098320254117,1.000036889471108,0.00017541207765209245
1327.0167764997486,1327.0167764997486,0.9999848001798799,0.0001754492898538136
1327.0237209740621,1327.0237209740621,1.0000638427111315,0.0001754005339513297
1327.0306654484225,1327.0306654484225,0.9998406249292217,0.00017539762411466174
1327.0376099227822,1327.0376099227822,1.0000527790128035,0.0001754462163609869
1327.0445543971662,1327.0445543971662,0.9999411067944548,0.00017539764961993498
1327.0514988715727,1327.0514988715727,1.0000174286610162,0.00017540323744537985
