time,time,flux,flux_err
1491.6405652630108,1491.6405652630108,1.0004142761189814,0.0004924445271912178
1491.6488987462296,1491.6488987462296,0.9999623330821233,0.0004915071569107857
1491.656537772332,1491.656537772332,1.0001606452097151,0.00044832360826725073
1491.6634823414745,1491.6634823414745,0.9999807941081629,0.00044789297494161526
1491.670426910617,1491.670426910617,0.9998645995534243,0.00044715599685784803
1491.6773714795727,1491.6773714795727,0.9993237182402422,0.00044644632188491475
1491.6843160486217,1491.6843160486217,1.0002312238803746,0.0004462352400780965
1491.6912606173912,1491.6912606173912,0.9998752623163698,0.0004456616208617397
1491.6982051862537,1491.6982051862537,1.0004659912061438,0.00044537681610423805
1491.7051497550233,1491.7051497550233,1.0005702552055267,0.00044482548110805675
1491.7120943236068,1491.7120943236068,0.9996132583032777,0.000444326258889035
1491.7190388921904,1491.7190388921904,0.9997977909563689,0.0004439165001871554
1491.7259834605873,1491.7259834605873,0.9993469226080766,0.0004433279810619736
1491.7329280290774,1491.7329280290774,1.0000484445458653,0.0004431462051697977
1491.7398725972885,1491.7398725972885,1.0001141049943592,0.0004427576834228609
1491.7468171655923,1491.7468171655923,0.999780541044456,0.00044237895928333804
1491.753761733617,1491.753761733617,1.0003813480735957,0.00044206961416675685
1491.7607063017344,1491.7607063017344,1.000146481927736,0.00044166155400160776
1491.7676508695727,1491.7676508695727,1.0002435505476641,0.00044149141455316905
1491.7745954374109,1491.7745954374109,0.9996051173355929,0.00044085192085663966
1491.7815400052493,1491.7815400052493,1.0003040253696045,0.00044081526827123503
1491.788484572901,1491.788484572901,0.9994464575706463,0.0004404091841721927
1491.7954291403669,1491.7954291403669,0.9997792251855342,0.000439968034726476
1491.802373708019,1491.802373708019,0.999863989272123,0.00043982485868716896
1491.8093182752982,1491.8093182752982,1.0010043170935439,0.00043966163801911426
1491.8162628425778,1491.8162628425778,0.9998655322621793,0.0004391077147057546
1491.8232074097643,1491.8232074097643,1.0001455885539103,0.0004388522085199906
1491.8301519766712,1491.8301519766712,0.9998744510705588,0.00043838559859568914
1491.8370965436711,1491.8370965436711,1.0001244266227878,0.000438175836541478
1491.844041110485,1491.844041110485,0.9990768709525376,0.00043764233913429467
1491.8509856772987,1491.8509856772987,1.0000692544724148,0.0004374937278362373
1491.8579302438334,1491.8579302438334,1.0000147443273721,0.0004371832836715309
1491.864874810461,1491.864874810461,1.0000446773835998,0.0004369074931512532
1491.8718193768093,1491.8718193768093,1.0008735478203286,0.00043694071923500876
1491.8787639430643,1491.8787639430643,1.0002934903440703,0.0004365023869706973
1491.8857085094126,1491.8857085094126,1.0000250441469352,0.00043622834409352905
1491.8926530753881,1491.8926530753881,0.9995595579387986,0.0004359369281157442
1491.8995976414567,1491.8995976414567,0.9998834735683158,0.00043572679120182963
1491.906542207246,1491.906542207246,0.9995547865121888,0.0004354876051447132
1491.9134867730359,1491.9134867730359,0.999764997616744,0.0004353432101387488
1491.9204313386385,1491.9204313386385,1.0003979611476832,0.00043537380739147043
1491.9273759042417,1491.9273759042417,0.9995947406827869,0.00043504160220529507
1491.9343204695656,1491.9343204695656,1.0002106840394216,0.0004348980101241386
1491.9412650349818,1491.9412650349818,0.9999159821135659,0.0004347268854624946
1491.9482095999333,1491.9482095999333,1.000756321522656,0.00043464804162378747
1491.9551541653505,1491.9551541653505,0.9994074985059628,0.0004342983800478026
1491.9620987303012,1491.9620987303012,0.9998967736959614,0.00043418256494014596
1491.9690432947868,1491.9690432947868,1.0000132884151156,0.0004342113219510696
1491.9759878597379,1491.9759878597379,1.0000636573614439,0.0004340462268015811
1491.9829324242232,1491.9829324242232,1.0003912469294631,0.00043404849695940345
1491.9898769887088,1491.9898769887088,0.9999243470425287,0.00043396651099168406
1491.9968215530084,1491.9968215530084,1.0001861719421916,0.0004340910309006339
1492.0037661174008,1492.0037661174008,0.9999991568004649,0.000433953036454676
1492.0107106814207,1492.0107106814207,0.999967276504881,0.0004339215269799574
1492.0176552453472,1492.0176552453472,0.9999950019044762,0.00043402785220333733
1492.0245998093671,1492.0245998093671,0.9998710428013837,0.00043403555864220095
1492.0315443730144,1492.0315443730144,0.9996947850966684,0.0004339063061203959
1492.038488936662,1492.038488936662,0.9994964335951529,0.000433869084869469
1492.0454335002162,1492.0454335002162,1.0004323189713111,0.00043404082235916775
1492.0523780635838,1492.0523780635838,0.9997355262364664,0.0004337409580761569
1492.0593226268586,1492.0593226268586,0.9999678395835268,0.0004338736985911036
1492.0662671899472,1492.0662671899472,1.0006503401694475,0.0004339267579038235
1492.0732117529426,1492.0732117529426,0.9998498740485637,0.000433684488915406
1492.080156315845,1492.080156315845,1.0001688613812458,0.00043368369873256874
1492.0871008784677,1492.0871008784677,0.9997331567668472,0.0004337135309001285
1492.0940454410904,1492.0940454410904,0.9999313708433079,0.00043391651622772334
1492.1009900037134,1492.1009900037134,1.0000682593965904,0.00043378191515975614
1492.1079345661503,1492.1079345661503,1.0000186213574973,0.00043380500292165776
1492.1148791284002,1492.1148791284002,1.0001515406917778,0.00043371293974374706
1492.1218236905574,1492.1218236905574,0.9999847347987609,0.0004336916283175788
1492.1287682525285,1492.1287682525285,1.0002475397762811,0.0004336752778828628
1492.135712814406,1492.135712814406,1.0003342147382512,0.00043379467177636374
1492.142657376191,1492.142657376191,0.9991560782081864,0.000433592203874835
1492.1496019377896,1492.1496019377896,0.9994284268035738,0.0004335174282861223
1492.1565464992018,1492.1565464992018,1.000663734314502,0.0004337382728738637
1492.1634910607067,1492.1634910607067,1.000316498954083,0.0004337611478579154
1492.1704356218397,1492.1704356218397,0.9999143915654296,0.0004337041231241916
1492.1773801829727,1492.1773801829727,0.9997250424933644,0.00043381860796314395
1492.1843247439188,1492.1843247439188,1.0001864921140025,0.00043375063700335165
1492.1912693048655,1492.1912693048655,0.9996623447614755,0.00043356283445658024
1492.1982138655326,1492.1982138655326,1.0003615866958528,0.000433562777059694
1492.2051584262927,1492.2051584262927,0.9997109902337067,0.00043365941233103865
1492.2121029865873,1492.2121029865873,0.9999389233124569,0.000433645679070677
1492.219047546882,1492.219047546882,0.999669001684315,0.0004334571775532851
1492.2259921071761,1492.2259921071761,1.0009749307524565,0.0004337376209260752
1492.2329366672845,1492.2329366672845,1.000179701989606,0.00043373910908158983
1492.239881227207,1492.239881227207,0.9993809908963875,0.0004334865387342215
1492.2468257870355,1492.2468257870355,1.0005466798883695,0.0004336859049665673
1492.253770346678,1492.253770346678,0.9996351448218371,0.00043351183469541086
1492.2607149063206,1492.2607149063206,0.9998233953723261,0.0004336267578279474
1492.2676594656837,1492.2676594656837,1.0002216879636343,0.00043353031298828184
1492.2746040249538,1492.2746040249538,0.9996208051733115,0.0004335066165298414
1492.2815485840379,1492.2815485840379,1.0000363156415493,0.00043364301055619036
1492.288493143215,1492.288493143215,1.000054293117525,0.00043365477623567795
1492.2954377020196,1492.2954377020196,0.9994447566873635,0.00043349976846028873
1492.3023822608243,1492.3023822608243,1.000549170125802,0.0004336137368417108
1492.3093268194425,1492.3093268194425,1.000510927433533,0.00043374893936116467
1492.3162713779673,1492.3162713779673,0.9997167817937986,0.00043351677013809566
1492.3232159363993,1492.3232159363993,1.0005716373978282,0.00043364817704993105
1492.3301604945516,1492.3301604945516,1.000072382195442,0.00043363582710269415
1492.3371050527974,1492.3371050527974,0.9992516553074624,0.00043349788651125706
1492.3440496107635,1492.3440496107635,0.9998805308613209,0.00043356761213072387
1492.3509941685434,1492.3509941685434,0.9996997586722172,0.00043335801341815017
1492.3579387262303,1492.3579387262303,0.9999030526170373,0.000433489665849735
1492.3648832838242,1492.3648832838242,1.0000835162710433,0.0004335183127573159
1492.3718278413248,1492.3718278413248,0.9998646587323885,0.0004335014811782411
1492.3787723985456,1492.3787723985456,1.0006473273338246,0.00043360652425993696
1492.3857169557668,1492.3857169557668,1.0005027541881213,0.0004335398279493373
1492.3926615128019,1492.3926615128019,0.9998467127461941,0.0004335409602651755
1492.3996060697436,1492.3996060697436,0.9999644462599531,0.0004334737116892716
1492.406550626499,1492.406550626499,1.0002082491213107,0.0004334363173872565
1492.4134951831616,1492.4134951831616,0.9998255152780053,0.0004333291282812752
1492.4204397397307,1492.4204397397307,0.9992007756842355,0.00043336929925364635
1492.4273842961138,1492.4273842961138,1.0009405806672995,0.00043360509218286734
1492.434328852404,1492.434328852404,0.9996559799141493,0.0004335991355267019
1492.4412734085076,1492.4412734085076,1.0003900991554735,0.0004335556098352761
1492.448217964425,1492.448217964425,0.9995456495686144,0.0004334948130615212
1492.4551625204356,1492.4551625204356,1.0004000944741986,0.0004336088352203354
1492.4621070761664,1492.4621070761664,1.0005807291331277,0.00043360592071943206
1492.4690516318042,1492.4690516318042,1.0000664131312538,0.00043364895192598467
1492.4759961869765,1492.4759961869765,1.000345872930314,0.0004334939136510043
1492.4829407424284,1492.4829407424284,0.9994549708946197,0.00043341927619037536
1492.4898852976005,1492.4898852976005,0.9991882552365741,0.00043326551465838964
1492.4968298526796,1492.4968298526796,1.000137329901122,0.0004335005629802751
1492.503774407666,1492.503774407666,1.0000110893067404,0.0004334614049390468
1492.510718962372,1492.510718962372,0.9997724816482364,0.0004333800898136847
1492.517663517079,1492.517663517079,1.000236820205935,0.00043355036401539985
1492.5246080716925,1492.5246080716925,0.9991809270960351,0.00043331193467325635
1492.5315526260265,1492.5315526260265,1.0010528159593688,0.0004335991713650204
1492.5384971802675,1492.5384971802675,1.0007413747603406,0.00043363752460321445
1492.5454417343221,1492.5454417343221,0.9994345680822277,0.00043317718785509
1492.5523862883767,1492.5523862883767,1.0003926978220092,0.00043373657064117797
1492.5593308422453,1492.5593308422453,1.000221731164179,0.00043328797959678127
1492.5662753959277,1492.5662753959277,0.9995944877127354,0.0004333763402162587
1492.5732199496094,1492.5732199496094,0.999792505558176,0.0004333468326872027
1492.5801645029192,1492.5801645029192,0.9994846500967991,0.0004334147194947365
1492.5871090562287,1492.5871090562287,1.0000271679026962,0.0004334170433508944
1492.5940536095382,1492.5940536095382,1.0000414909775324,0.00043344154749903137
1492.6009981626623,1492.6009981626623,0.9995938153077875,0.000433354316081609
1492.6079427155992,1492.6079427155992,1.0002257404677999,0.0004332752216832563
1492.6148872683502,1492.6148872683502,1.0000472330319758,0.0004334844725215072
1492.6218318211008,1492.6218318211008,1.0007757705389717,0.00043337733800899404
1492.6287763735727,1492.6287763735727,1.0001623298247775,0.00043328136439556167
1492.6357209259509,1492.6357209259509,1.0000281417077512,0.0004333101209111698
1492.6426654781426,1492.6426654781426,1.000215694297761,0.0004335553715525426
1492.6496100303348,1492.6496100303348,0.9999620342136014,0.0004333001092456555
1492.6565545823405,1492.6565545823405,1.0007600933763043,0.0004335704400877566
1492.663499134253,1492.663499134253,0.9996747012075075,0.00043326589230914287
1492.6704436859795,1492.6704436859795,0.9997897546905137,0.00043330580263025895
1492.6773882375196,1492.6773882375196,0.99952657059951,0.0004333745242885356
1492.6843327889665,1492.6843327889665,1.000274473490748,0.0004334192390239177
1492.6912773404138,1492.6912773404138,1.0005343890215557,0.0004335192640661404
1492.6982218914882,1492.6982218914882,1.0003379489974729,0.0004334325399942618
1492.7051664424691,1492.7051664424691,1.000332100638933,0.0004334125697518244
1492.7121109934506,1492.7121109934506,1.0001139128931276,0.0004334790838667094
1492.719055544432,1492.719055544432,0.9996558083057818,0.0004334153106713257
1492.7260000949477,1492.7260000949477,1.0000803086960648,0.00043341044725056434
1492.7329446455562,1492.7329446455562,1.000422511783547,0.0004334428567218265
1492.739889195886,1492.739889195886,1.0000515819837477,0.00043341504231219935
1492.7468337462149,1492.7468337462149,0.9994605552292348,0.00043327445109582404
1492.7537782963582,1492.7537782963582,1.000030547139176,0.0004333398196623032
1492.7607228464087,1492.7607228464087,1.0001451134883375,0.0004333293083462135
1492.7676673962724,1492.7676673962724,1.0008113561080876,0.00043339732211223594
1492.77461194595,1492.77461194595,0.9994646358104056,0.00043326429396310027
1492.7815564956272,1492.7815564956272,1.0005553879833318,0.00043341035361355566
1492.7885010451184,1492.7885010451184,0.9996183067393464,0.00043312143849692845
1492.79544559433,1492.79544559433,0.9993829519637123,0.00043318107227447453
1492.8023901436352,1492.8023901436352,1.0007803615246869,0.0004334891194840419
1492.809334692754,1492.809334692754,1.0005781120017345,0.00043348910745814325
1492.8162792416863,1492.8162792416863,0.9999504977924806,0.00043319098859992964
1492.8232237905256,1492.8232237905256,0.9999189901706922,0.00043306979085268505
1492.830168339179,1492.830168339179,0.999519297514021,0.00043312948502625585
1492.8371128878314,1492.8371128878314,0.999841719140069,0.0004333417487156579
1492.844057436019,1492.844057436019,0.9996892191621672,0.00043321494822413047
1492.8510019843927,1492.8510019843927,1.0006893124250111,0.0004332972682396185
1492.85794653258,1492.85794653258,1.0004731168791774,0.00043323992048981044
1492.8648910805812,1492.8648910805812,0.9998873402246706,0.00043325165678684827
1492.8718356284892,1492.8718356284892,1.0002144985427779,0.0004332641640780805
1492.8787801762105,1492.8787801762105,1.0005053702842321,0.00043331685194947044
1492.885724723839,1492.885724723839,0.9996916349155388,0.0004331205064502409
1492.892669271375,1492.892669271375,0.9996939762730215,0.00043337835644099407
1492.8996138186308,1492.8996138186308,0.9996696316775664,0.00043306872013762574
1492.9065583658867,1492.9065583658867,0.9999050930200498,0.0004332788709136598
1492.9135029130496,1492.9135029130496,0.9999397422247259,0.0004332106434357958
1492.9204474599326,1492.9204474599326,1.000666544619157,0.00043353623122819966
1492.927392006817,1492.927392006817,1.000075108208266,0.00043321014314876206
1492.9343365536074,1492.9343365536074,0.9997462581345358,0.00043334974213971657
1492.9412810999322,1492.9412810999322,1.0000740498198697,0.00043323788512860447
1492.9482256467224,1492.9482256467224,1.0000337425514343,0.0004332107195627246
1492.9551701928613,1492.9551701928613,0.9999014739798271,0.00043323678003410473
1492.9621147389064,1492.9621147389064,0.9996449570618523,0.00043306259076639827
1492.9690592850445,1492.9690592850445,0.9997544899350148,0.000433373052261365
1492.976003830997,1492.976003830997,0.9999941515072408,0.00043319108639710375
1492.9829483767628,1492.9829483767628,1.0005362585423867,0.00043325686415664964
1492.9898929223423,1492.9898929223423,1.0004450434394776,0.0004332895096356029
1492.9968374679218,1492.9968374679218,0.9998636157092295,0.00043318362041353746
1493.0037820133152,1493.0037820133152,1.0005393752001697,0.00043333289984324953
1493.0107265586155,1493.0107265586155,0.9992654267874741,0.00043295531027080986
1493.0176711037298,1493.0176711037298,0.9995983269392695,0.0004332484519375101
1493.0246156486573,1493.0246156486573,1.0006556252046124,0.00043326235815996296
1493.031560193585,1493.031560193585,0.9993913618188024,0.00043300830704508296
1493.0385047383265,1493.0385047383265,1.0001232925331114,0.0004330628972008002
1493.0454492828817,1493.0454492828817,0.9997790633995882,0.0004330492236699486
1493.0523938273438,1493.0523938273438,1.0001501728947013,0.0004332027510885351
1493.0593383716193,1493.0593383716193,0.9997915571483136,0.0004331060852366621
1493.0662829160817,1493.0662829160817,1.0003793960178247,0.0004332315753106885
1493.0732274600778,1493.0732274600778,0.9997564787621723,0.00043289822507033084
1493.0801720040743,1493.0801720040743,1.000656650242823,0.00043304531255529817
1493.0871165476983,1493.0871165476983,1.000057057604021,0.00043318718127850905
1493.0940610915084,1493.0940610915084,1.0002936106302904,0.00043312228837704683
1493.1010056350397,1493.1010056350397,0.9999182903429633,0.0004331735955097396
1493.107950178477,1493.107950178477,0.9997521043967394,0.000433117861790233
1493.1148947217284,1493.1148947217284,1.0002784146970602,0.00043330817103852273
1493.1218392649794,1493.1218392649794,0.9988278920115551,0.0004330317783488661
1493.1287838079518,1493.1287838079518,1.000403050751458,0.0004332571098216981
1493.1357283508305,1493.1357283508305,0.99941540140676,0.00043307674558736703
1493.1426728936162,1493.1426728936162,1.000486054782188,0.000433371681262423
1493.1496174363087,1493.1496174363087,1.0002390176815739,0.0004331266774806588
1493.1565619789083,1493.1565619789083,0.9998695295972378,0.00043311485530456666
1493.1635065211349,1493.1635065211349,1.000158453438977,0.000433004458763127
1493.1704510634552,1493.1704510634552,0.9993893610831683,0.0004329123862818026
1493.177395605589,1493.177395605589,1.0001517808873241,0.00043318691213998833
1493.1843401476294,1493.1843401476294,1.0003181254414848,0.00043310821890983343
1493.1912846893908,1493.1912846893908,1.000107459047994,0.00043312612676760936
1493.198229231059,1493.198229231059,1.0000328400603329,0.00043317312497523927
1493.2051737727265,1493.2051737727265,1.0002111775422269,0.0004332424105520412
1493.212118314395,1493.212118314395,1.0005530364904065,0.00043320846493361215
1493.2190628555977,1493.2190628555977,0.9998560310413176,0.00043287662282085664
1493.226007396893,1493.226007396893,0.999746067190376,0.00043312849336683384
1493.232951937909,1493.232951937909,0.9993710986286464,0.00043287113022651087
1493.2398964789252,1493.2398964789252,0.9997303890155843,0.00043308270704829047
1493.2468410197548,1493.2468410197548,0.9999465017454992,0.0004332374706694494
1493.253785560492,1493.253785560492,1.0001854744504493,0.00043301033465126704
1493.2607301010426,1493.2607301010426,0.9998188629309652,0.00043302953952181116
1493.2676746414995,1493.2676746414995,1.0004416355308394,0.0004331463055809036
1493.274619181771,1493.274619181771,0.9995661074673782,0.00043299408478638545
1493.2815637220424,1493.2815637220424,1.0005576197538149,0.00043320032014401044
1493.2885082620344,1493.2885082620344,0.9998188630035546,0.000433085198484249
1493.2954528020257,1493.2954528020257,1.0003385192845828,0.0004330993286783376
1493.3023973418315,1493.3023973418315,1.0005042341131558,0.00043334812230878947
1493.3093418814506,1493.3093418814506,0.9995929200648636,0.00043302511263137826
1493.3162864210694,1493.3162864210694,1.0001912094094654,0.0004333329833075369
1493.3232309605955,1493.3232309605955,0.9993391378543329,0.0004330330816901181
1493.3301754998424,1493.3301754998424,0.9996444143645128,0.0004331418106478965
1493.3371200388096,1493.3371200388096,1.0000695533812591,0.0004331599713516907
1493.3440645779633,1493.3440645779633,1.0004193674847563,0.0004332483548725225
1493.3510091168373,1493.3510091168373,0.9997671354061735,0.0004331209171688421
1493.357953655618,1493.357953655618,0.9997677504073677,0.00043307602139403163
1493.364898194306,1493.364898194306,1.000288293375958,0.00043316300810481866
1493.3718427328079,1493.3718427328079,1.000308601887803,0.0004331834178652228
1493.378787271216,1493.378787271216,1.0000347395432658,0.00043300806361128976
1493.3857318094383,1493.3857318094383,1.000260828264577,0.00043321358877927674
1493.3926763475677,1493.3926763475677,0.9998020440744332,0.00043317407134878467
