time,time,flux,flux_err
1325.3035726882229,1325.3035726882229,1.0000150315939316,2.418773519987759e-05
1325.311906069059,1325.311906069059,0.9999946747294066,2.4188719244128326e-05
1325.3202394496632,1325.3202394496632,1.0000050669733704,2.41884299512711e-05
1325.327878381883,1325.327878381883,0.9999389937187108,2.2079609473189036e-05
1325.3348228657192,1325.3348228657192,0.9999798155202981,2.2080905795279577e-05
1325.3417673495555,1325.3417673495555,0.9999614073476014,2.2080559923817505e-05
1325.3487118332057,1325.3487118332057,1.0000014426207646,2.2082071926119035e-05
1325.3556563167629,1325.3556563167629,1.0000335495842942,2.208075630803581e-05
1325.3626008002266,1325.3626008002266,1.0000727505295326,2.2082465113304004e-05
1325.3695452835975,1325.3695452835975,1.0000872600303907,2.2083292123194414e-05
1325.376489766968,1325.376489766968,1.0000531140321551,2.2082008379029685e-05
1325.3834342501527,1325.3834342501527,0.9998836021271924,2.2081475914434097e-05
1325.3903787333372,1325.3903787333372,0.9999604416912996,2.2082679148850835e-05
1325.3973232165215,1325.3973232165215,1.0000295317089445,2.2083967450266713e-05
1325.4042676994263,1325.4042676994263,1.0000215318143137,2.2084290833866017e-05
1325.411212182425,1325.411212182425,0.999883827927512,2.2082335255326884e-05
1325.41815666533,1325.41815666533,1.0000443162126866,2.2084170359384444e-05
1325.425101148235,1325.425101148235,0.9999936453431,2.2084260686483844e-05
1325.4320456309538,1325.4320456309538,1.0000446975566317,2.2085378485877984e-05
1325.4389901135794,1325.4389901135794,1.0000338477944208,2.2085439811973915e-05
1325.4459345962982,1325.4459345962982,0.9999798753029211,2.2083641041661138e-05
1325.4528790789236,1325.4528790789236,0.9999691215850721,2.20848642258706e-05
1325.4598235614565,1325.4598235614565,0.9999856933389178,2.208428974195953e-05
1325.4667680438956,1325.4667680438956,0.9999994039829435,2.2085118731648505e-05
1325.473712526335,1325.473712526335,0.9999816279898377,2.2085018639927122e-05
1325.4806570086814,1325.4806570086814,1.0000309739226165,2.208518122624274e-05
1325.4876014909344,1325.4876014909344,1.0000390811095934,2.2085761542705686e-05
1325.4945459731878,1325.4945459731878,1.000043456627733,2.208702182486997e-05
1325.5014904553477,1325.5014904553477,0.9999881372566868,2.2086289912104165e-05
1325.5084349375077,1325.5084349375077,0.9999455864503096,2.2085702325849404e-05
1325.5153794195749,1325.5153794195749,0.9999718152703354,2.208644520728015e-05
1325.5223239016414,1325.5223239016414,1.0000340508350583,2.2086818492690845e-05
1325.529268383615,1325.529268383615,0.9999832248938058,2.2086785548781414e-05
1325.5362128654956,1325.5362128654956,1.0000537000429264,2.2088128401369997e-05
1325.543157347283,1325.543157347283,0.9999980804111782,2.2087282294253227e-05
1325.5501018292573,1325.5501018292573,1.000029795090804,2.208765535740386e-05
1325.5570463109514,1325.5570463109514,0.9999165887100421,2.208672449504863e-05
1325.563990792739,1325.563990792739,0.9999803276984439,2.208716448154084e-05
1325.5709352742472,1325.5709352742472,0.9999715170722073,2.2087251550700836e-05
1325.5778797560345,1325.5778797560345,0.9999698121756679,2.208789058288335e-05
1325.5848242377292,1325.5848242377292,1.000001955306622,2.2088211055045805e-05
1325.591768719237,1325.591768719237,1.0000932590959644,2.208912312298874e-05
1325.598713200745,1325.598713200745,1.0000150464642954,2.2088441794364387e-05
1325.6056576822532,1325.6056576822532,1.0000909700403513,2.2089678427045544e-05
1325.6126021632954,1325.6126021632954,1.0000135679434154,2.20884007857662e-05
1325.6195466448037,1325.6195466448037,0.999949330163948,2.2087442197858202e-05
1325.6264911263117,1325.6264911263117,0.9999817590815597,2.2087880960313027e-05
1325.6334356073542,1325.6334356073542,0.9999048025958823,2.2086754608987952e-05
1325.640380088676,1325.640380088676,0.9998649361447194,2.2086260786302667e-05
1325.6473245699044,1325.6473245699044,1.000010920508428,2.208799791018392e-05
1325.6542690510403,1325.6542690510403,1.0000865520936018,2.2088541684240437e-05
1325.6612135321757,1325.6612135321757,1.0000310082393455,2.2088431707849545e-05
1325.668158013218,1325.668158013218,1.0000923678012152,2.208804549462787e-05
1325.6751024942605,1325.6751024942605,1.0000124463900353,2.2087930649300568e-05
1325.6820469753031,1325.6820469753031,0.9999784463540428,2.208581811857085e-05
1325.6889914562523,1325.6889914562523,1.0000875607830575,2.2088242849413812e-05
1325.6959359371085,1325.6959359371085,0.999906264103584,2.2085872217571283e-05
1325.702880418058,1325.702880418058,0.9999148351201164,2.20868796931025e-05
1325.7098248990073,1325.7098248990073,1.0000489967660218,2.2088392688592848e-05
1325.7167693796769,1325.7167693796769,1.0000545410311408,2.2088566279073467e-05
1325.7237138606263,1325.7237138606263,0.9999496787083363,2.208794674477786e-05
1325.7306583412962,1325.7306583412962,1.0000559006730596,2.2089389866870854e-05
1325.737602821966,1325.737602821966,0.999958405384351,2.208829848061097e-05
1325.744547302636,1325.744547302636,0.9999619582541005,2.2088751067108767e-05
1325.7514917833057,1325.7514917833057,1.0000348707792004,2.2090141094727526e-05
1325.7584362638827,1325.7584362638827,0.9999446597676462,2.2089050217868944e-05
1325.7653807444594,1325.7653807444594,0.9999762996239057,2.208983854444519e-05
1325.772325225036,1325.772325225036,1.000010860712908,2.2090508105655783e-05
1325.7792697055197,1325.7792697055197,1.0000498688454007,2.2091332615160914e-05
1325.7862141860032,1325.7862141860032,1.0000703856469912,2.209146776921261e-05
1325.793158666487,1325.793158666487,1.0000349900092202,2.209114462374291e-05
1325.8001031468775,1325.8001031468775,0.9999381743033577,2.2090260145636597e-05
1325.8070476272683,1325.8070476272683,0.9999575111114686,2.2090845448987407e-05
1325.8139921075654,1325.8139921075654,0.9999930616360965,2.2091462284837894e-05
1325.8209365879557,1325.8209365879557,0.9999809608655464,2.2091730537736057e-05
1325.8278810682532,1325.8278810682532,0.9999966499954113,2.2092247327311197e-05
1325.8348255484575,1325.8348255484575,1.000040617332663,2.209286228182561e-05
1325.841770028755,1325.841770028755,1.0000423819342523,2.2093523010537477e-05
1325.8487145088661,1325.8487145088661,0.999996876623171,2.209252476629099e-05
1325.85565898907,1325.85565898907,0.9999530647429775,2.209131151986291e-05
1325.8626034691813,1325.8626034691813,0.9999087408818758,2.209131422006653e-05
1325.8695479492922,1325.8695479492922,1.0000308170130439,2.209218891531727e-05
1325.8764924294037,1325.8764924294037,1.000012958780271,2.2093317360734484e-05
1325.8834369094216,1325.8834369094216,1.0000328203073527,2.2092866441565397e-05
1325.8903813894394,1325.8903813894394,1.000083678784439,2.2092724951451325e-05
1325.8973258694575,1325.8973258694575,0.9999734736868497,2.2092237867461166e-05
1325.9042703493826,1325.9042703493826,1.0000676807008355,2.209376672415476e-05
1325.9112148293068,1325.9112148293068,0.9999958511861742,2.209154072054905e-05
1325.918159309325,1325.918159309325,0.9999625892512458,2.2091682032983874e-05
1325.9251037890633,1325.9251037890633,0.9998708385625157,2.209130340142703e-05
1325.9320482689886,1325.9320482689886,1.0000124345258787,2.209246844628197e-05
1325.93899274882,1325.93899274882,0.999983261589322,2.209265240111537e-05
1325.945937228559,1325.945937228559,1.0000585599307912,2.209219571756724e-05
1325.9528817083906,1325.9528817083906,0.9999625776358707,2.2092273562485213e-05
1325.959826188129,1325.959826188129,1.0000349892681233,2.2092207668364396e-05
1325.9676040053696,1325.9676040053696,1.000028348497466,2.2093901549433954e-05
1325.9751040434423,1325.9751040434423,0.9999578829829081,2.2091020852204704e-05
1325.9820485230878,1325.9820485230878,1.0000187395191908,2.2091612044523772e-05
1325.988993002733,1325.988993002733,0.9999946593907021,2.2091154613251905e-05
1325.9959374823782,1325.9959374823782,0.9999800329004728,2.209162664995404e-05
1326.002881961931,1326.002881961931,1.000048136101031,2.2091582157096214e-05
1326.009826441483,1326.009826441483,1.0000573151790082,2.2092594805800443e-05
1326.0167709209425,1326.0167709209425,1.0000048279602278,2.2092081532441332e-05
1326.0237154005877,1326.0237154005877,0.9999153264249161,2.209202177460957e-05
1326.0306598799539,1326.0306598799539,1.0000033615430777,2.2092469597481545e-05
1326.0376043594129,1326.0376043594129,1.0000190146065435,2.209312180214209e-05
1326.0445488387788,1326.0445488387788,1.0000390301381104,2.209370008574828e-05
1326.0514933182383,1326.0514933182383,0.9999512656685955,2.2092886659819443e-05
1326.0584377975113,1326.0584377975113,0.9999470096229283,2.2093274120984212e-05
1326.0653822770632,1326.0653822770632,1.000010800558646,2.209363766599924e-05
1326.0723267562432,1326.0723267562432,1.0000760473528651,2.209469174920083e-05
1326.0792712354225,1326.0792712354225,1.0000128157244261,2.2094502833565336e-05
1326.0862157146032,1326.0862157146032,0.9999385324714252,2.2093090596559646e-05
1326.0931601942482,1326.0931601942482,0.9999267774926416,2.2093291684022533e-05
1326.1001046734284,1326.1001046734284,0.9999696829820062,2.2094218946251688e-05
1326.1070491526082,1326.1070491526082,1.0001475084422138,2.20959589852355e-05
1326.1139936317875,1326.1139936317875,1.0000558773946824,2.209468804180614e-05
1326.1209381108742,1326.1209381108742,1.0000189317917267,2.209546608646893e-05
1326.1278825896811,1326.1278825896811,0.9998523254596281,2.2092357228825064e-05
1326.1348270688616,1326.1348270688616,1.000009120086453,2.2094443637438135e-05
1326.1417715480409,1326.1417715480409,1.0000141631501853,2.2093960048277652e-05
1326.148716027221,1326.148716027221,1.0000228064398329,2.2094706460560802e-05
1326.1556605059352,1326.1556605059352,0.999944158919303,2.209398904568029e-05
1326.1626049851147,1326.1626049851147,0.9999822247268704,2.2094129947598166e-05
1326.1695494640153,1326.1695494640153,1.0000748564827242,2.2095261042193132e-05
1326.1764939430086,1326.1764939430086,1.0000205530742874,2.209419779876591e-05
1326.1834384219092,1326.1834384219092,1.0000251545073016,2.2094850063187537e-05
1326.1903829009027,1326.1903829009027,0.9999727353579398,2.2094115191619293e-05
1326.1973273796164,1326.1973273796164,0.9999040671554837,2.2093147191200485e-05
1326.2042718585174,1326.2042718585174,1.0000237240046297,2.2094132982251244e-05
1326.2112163373242,1326.2112163373242,1.0000190626401468,2.2094615397625276e-05
1326.218160816132,1326.218160816132,1.0000973648773819,2.2094776762478962e-05
1326.2251052949389,1326.2251052949389,0.9999628993406258,2.2094604275476603e-05
1326.2320497736532,1326.2320497736532,0.9999966260429813,2.209450989751126e-05
1326.238994252367,1326.238994252367,0.9999928111964829,2.2093961907737385e-05
1326.2459387309877,1326.2459387309877,1.0000046851932,2.2093920528027827e-05
1326.2528832097025,1326.2528832097025,0.9999685980956695,2.2093967555115634e-05
1326.2598276883232,1326.2598276883232,0.9999709109916907,2.209397135794964e-05
1326.2667721669445,1326.2667721669445,1.0000152954861259,2.209441555220425e-05
1326.2737166455654,1326.2737166455654,0.99992495365092,2.209409325030695e-05
1326.280661124093,1326.280661124093,1.0000325218510202,2.2094408069772704e-05
1326.2876056027144,1326.2876056027144,1.000054075227938,2.2094427015377775e-05
1326.294550081242,1326.294550081242,1.0000351668290635,2.2094350037080886e-05
1326.3014945596765,1326.3014945596765,1.0000157714199296,2.2093378988236772e-05
1326.3084390382974,1326.3084390382974,0.9999835256678408,2.2092701395861108e-05
1326.3153835166393,1326.3153835166393,0.9999563944225269,2.209303474665354e-05
1326.322327995074,1326.322327995074,0.9999714861776384,2.2092486752791842e-05
1326.3292724735086,1326.3292724735086,1.0000334247701268,2.209444423038604e-05
1326.3362169518507,1326.3362169518507,0.9999462750069796,2.2092399520784085e-05
1326.3431614301921,1326.3431614301921,1.0000408395982234,2.209320588268151e-05
1326.350661466775,1326.350661466775,1.0000740379834627,2.2093775874940945e-05
1326.3598281781747,1326.3598281781747,1.0000531178860195,2.2093165912158137e-05
1326.3667726564229,1326.3667726564229,1.000001180114618,2.209351566400084e-05
1326.3737171346716,1326.3737171346716,0.9999626292568419,2.2093275222551082e-05
1326.3806616128265,1326.3806616128265,0.9999254970916421,2.2093296240403942e-05
1326.3876060910752,1326.3876060910752,0.9999930504503183,2.2093482483861434e-05
1326.3945505692304,1326.3945505692304,0.9999863390461348,2.2093449833606914e-05
1326.4014950473859,1326.4014950473859,0.9999384416467336,2.2093707981566412e-05
1326.408439525541,1326.408439525541,0.9999925017023428,2.209420718309967e-05
1326.4153840036038,1326.4153840036038,1.0000694511623638,2.2095858882481637e-05
1326.4223284816658,1326.4223284816658,1.0000400664122593,2.2095076057067875e-05
1326.4292729596348,1326.4292729596348,1.0000788813948103,2.209578184449307e-05
1326.436217437697,1326.436217437697,1.0000051736428963,2.2095405207501834e-05
1326.4431619156658,1326.4431619156658,0.9999942303326705,2.209554162678813e-05
1326.4501063937282,1326.4501063937282,0.999968217955419,2.2095174127399434e-05
1326.4570508716974,1326.4570508716974,0.9999565822219039,2.2095566736511623e-05
1326.4639953494802,1326.4639953494802,0.9999999523647732,2.2096368005905893e-05
1326.4709398275422,1326.4709398275422,0.9999586203286871,2.209542919329857e-05
1326.477884305325,1326.477884305325,0.9999648551526319,2.209625049991361e-05
1326.4848287832015,1326.4848287832015,1.0000025274052686,2.2097121588569378e-05
1326.4917732609836,1326.4917732609836,1.0000296253291812,2.2096709946341305e-05
1326.498717738767,1326.498717738767,1.0000046016789992,2.209671540805865e-05
1326.5056622165494,1326.5056622165494,1.0000343336033843,2.2097124976256122e-05
1326.5126066943324,1326.5126066943324,0.999994444702845,2.2096431986353627e-05
1326.519551172022,1326.519551172022,0.99999932051775,2.2096413419418636e-05
1326.5264956497117,1326.5264956497117,0.9999952432428829,2.209649215247424e-05
1326.5334401274013,1326.5334401274013,1.0000054480457974,2.2097243770441995e-05
1326.5403846049978,1326.5403846049978,0.999995231283493,2.209718600714598e-05
1326.5473290825944,1326.5473290825944,1.0000158794388248,2.209773474616167e-05
1326.5542735602842,1326.5542735602842,1.000025726718242,2.2097368221513212e-05
1326.5612180377873,1326.5612180377873,1.0000236643672362,2.20984038022025e-05
1326.568162515384,1326.568162515384,0.9999887341186404,2.2097895413342622e-05
1326.5751069927942,1326.5751069927942,0.9999179313832383,2.2096408422978932e-05
1326.5820514703912,1326.5820514703912,0.9999896400077247,2.2098144352889757e-05
1326.5889959478009,1326.5889959478009,0.9999806392671797,2.2098320538414727e-05
1326.5959404252117,1326.5959404252117,1.0000651520058834,2.2098939257887214e-05
1326.6028849026218,1326.6028849026218,1.0000485689877898,2.2099078741394115e-05
1326.6098293801251,1326.6098293801251,0.9999796017284656,2.209732228435721e-05
1326.6167738574422,1326.6167738574422,0.9999991773073098,2.209801837648946e-05
1326.6237183347591,1326.6237183347591,0.9999907250478213,2.2098043032412565e-05
1326.6306628120767,1326.6306628120767,0.9999778980824783,2.209669418246592e-05
1326.6376072893004,1326.6376072893004,0.9999014021471334,2.209661120462518e-05
1326.6445517666177,1326.6445517666177,1.0000264401930892,2.2097717924389624e-05
1326.6514962438418,1326.6514962438418,0.9999861122484133,2.2097281817817318e-05
1326.6584407210655,1326.6584407210655,0.9999974491104903,2.2097310411725446e-05
1326.6653851981969,1326.6653851981969,1.0000826573301578,2.2097982386210285e-05
1326.6723296754203,1326.6723296754203,1.0000581842003706,2.2097179088696525e-05
1326.679274152552,1326.679274152552,1.000020610441817,2.209671092022937e-05
1326.6862186295893,1326.6862186295893,0.999984289124151,2.2096323761009924e-05
1326.6942742231095,1326.6942742231095,1.0000278703364525,2.2096484452681472e-05
1326.701496479128,1326.701496479128,0.9999641544536356,2.2096531865064123e-05
1326.7084409559798,1326.7084409559798,0.9999477151123459,2.209548960731073e-05
1326.715940991445,1326.715940991445,0.9999475239207744,2.2095806690856385e-05
1326.7237188055187,1326.7237188055187,1.0000408651104835,2.2096429903553857e-05
1326.7306632823702,1326.7306632823702,1.0000045539105795,2.2096806396585696e-05
1326.7376077592216,1326.7376077592216,1.0000015974881458,2.2096175706785703e-05
1326.7445522360733,1326.7445522360733,0.999978041101064,2.2094497600034672e-05
1326.7514967129246,1326.7514967129246,0.9999499546137539,2.2095876204234142e-05
1326.7584411897758,1326.7584411897758,1.0001237783886883,2.209759313991424e-05
1326.7653856666275,1326.7653856666275,0.9999674431192203,2.209460211058176e-05
1326.7723301434787,1326.7723301434787,0.9999831674929439,2.2095773664210202e-05
1326.7792746203304,1326.7792746203304,1.0000152590925295,2.2095612242603462e-05
1326.7862190968094,1326.7862190968094,0.9999950766007263,2.2095417032156486e-05
1326.7931635735679,1326.7931635735679,0.999910591328185,2.209486820678879e-05
1326.8001080503261,1326.8001080503261,1.0000456101802517,2.20964659231502e-05
1326.8070525268054,1326.8070525268054,1.0000417955795582,2.2096700598626347e-05
1326.8139970035634,1326.8139970035634,0.9999710553790445,2.2095617502935884e-05
1326.8209414800422,1326.8209414800422,1.0000792523572704,2.209781853775926e-05
1326.8278859566144,1326.8278859566144,1.0000223643830684,2.2096413237800657e-05
1326.8348304331864,1326.8348304331864,0.9999273276098959,2.2095992822279593e-05
1326.8417749096657,1326.8417749096657,0.9999701488900893,2.2096374193567435e-05
1326.8487193860515,1326.8487193860515,1.0000263701846466,2.2096608156920202e-05
1326.8556638625303,1326.8556638625303,0.9999859327409355,2.209671649940159e-05
1326.862608338916,1326.862608338916,1.0000077249025943,2.209646280720964e-05
1326.8695528153023,1326.8695528153023,0.9999983786989736,2.209635064258035e-05
1326.876497291688,1326.876497291688,0.9999912018911965,2.2096408850308104e-05
1326.8834417680735,1326.8834417680735,0.9999956604421308,2.2095784432011085e-05
1326.8903862442735,1326.8903862442735,1.0000443724989012,2.2095883516273866e-05
1326.8973307205656,1326.8973307205656,0.9999964952011322,2.209617293968805e-05
1326.9042751968586,1326.9042751968586,0.9999687298315895,2.20947247677244e-05
1326.911219673058,1326.911219673058,1.0000088934589606,2.20950409006851e-05
1326.9181641492578,1326.9181641492578,0.9999710306046037,2.2094715580294488e-05
1326.9251086254571,1326.9251086254571,1.0000654129025355,2.2094945064616776e-05
1326.9320531015637,1326.9320531015637,0.9999756802484953,2.2093714028869122e-05
1326.9389975776703,1326.9389975776703,0.9999756685264753,2.209283443779102e-05
1326.9459420537764,1326.9459420537764,0.9999717941184121,2.2092469003538996e-05
1326.95288652979,1326.95288652979,1.0000305303424413,2.209323984593525e-05
1326.9598310058032,1326.9598310058032,1.0000614060700477,2.2093542018890908e-05
1326.9667754818167,1326.9667754818167,0.9999610892672548,2.2092283733733717e-05
1326.9737199577369,1326.9737199577369,1.0000305533781613,2.209243803881906e-05
1326.9806644336563,1326.9806644336563,1.0000287651038422,2.209296188185635e-05
1326.9876089095774,1326.9876089095774,0.9999332321078753,2.2090977370819077e-05
1326.994553385497,1326.994553385497,0.9999062685867204,2.2089709552639376e-05
1327.0014978613247,1327.0014978613247,1.00006078234033,2.209190515264705e-05
1327.0084423371513,1327.0084423371513,0.9999991178248602,2.2091368191665656e-05
1327.015386812885,1327.015386812885,0.9999744068538412,2.2090084059520605e-05
1327.0223312886192,1327.0223312886192,0.9999747170423413,2.2090715779848675e-05
1327.029275764539,1327.029275764539,1.0000310641498082,2.2090003594728102e-05
1327.0362202401805,1327.0362202401805,1.0001812349557084,2.2091943079545883e-05
1327.0431647159137,1327.0431647159137,1.0000194538336806,2.2090606336714914e-05
1327.0501091913686,1327.0501091913686,0.999905698071041,2.2089566972348046e-05
1327.0570536670089,1327.0570536670089,0.999908808873851,2.2089018062344563e-05
