time,time,flux,flux_err
1410.9103040998125,1410.9103040998125,0.9994426605762013,0.0009258808889229123
1410.9186376401092,1410.9186376401092,1.0006859056976083,0.000926256226752266
1410.9269711801735,1410.9269711801735,1.0004015892586455,0.0009261435663893668
1410.9346102586082,1410.9346102586082,1.0005315187070942,0.0008454919491373573
1410.9415548750444,1410.9415548750444,1.0014687898280825,0.0008457050660393512
1410.9484994914792,1410.9484994914792,0.9991858922051644,0.0008448706030431749
1410.9554441078212,1410.9554441078212,0.9996258891580213,0.0008450936839362541
1410.9629442933667,1410.9629442933667,1.0006951474246506,0.0008454696189523737
1410.974055679011,1410.974055679011,1.0003948710936588,0.0008447420782790357
1410.9873893413746,1410.9873893413746,0.9989051323228283,0.0008447695267239102
1410.9943339571585,1410.9943339571585,1.0006408448602149,0.0008450833394314539
1411.006278695769,1411.006278695769,1.0022404423554179,0.0008449052105178632
1411.0137788805691,1411.0137788805691,0.999241446048708,0.0008442167595435005
1411.0207234956072,1411.0207234956072,0.9988909515251875,0.0008441533434817297
1411.027668110646,1411.027668110646,1.0001017393189227,0.0008447155086688437
1411.034612725684,1411.034612725684,0.999379563607957,0.0008442534305560061
1411.0415573407222,1411.0415573407222,1.0018758293263859,0.0008452311503191016
1411.048779740176,1411.048779740176,1.000182525490411,0.0008448798282269766
1411.0568354931543,1411.0568354931543,1.0002261302082263,0.0008444783506179089
1411.0637801076346,1411.0637801076346,1.0002115467147905,0.0008452698932228072
1411.07072472202,1411.07072472202,0.9995507779392625,0.0008448608475153435
1411.0776693363136,1411.0776693363136,1.000000465129475,0.0008449510324336091
1411.0846139505138,1411.0846139505138,1.0004858236997776,0.0008449771882921718
1411.0915585644339,1411.0915585644339,0.9993037158071945,0.000844772809232758
1411.0985031783553,1411.0985031783553,1.000267596269517,0.0008453865022850168
1411.1054477921828,1411.1054477921828,0.9981773502170264,0.0008448448219111314
1411.112392405917,1411.112392405917,1.0003173802503742,0.000845249824429486
1411.1193370193726,1411.1193370193726,1.000615185971362,0.000845281963394903
1411.1262816328267,1411.1262816328267,1.0006341636455474,0.000845197237893893
1411.1332262460962,1411.1332262460962,1.0000599025084131,0.0008445899190443016
1411.1401708592714,1411.1401708592714,0.9986761825153984,0.0008449284021260215
1411.1471154723538,1411.1471154723538,1.0006950398067733,0.000844892991460895
1411.1540600852506,1411.1540600852506,0.9996200535002299,0.0008450290900988329
1411.16100469796,1411.16100469796,1.0005888210992668,0.0008448279091122712
1411.1679493106706,1411.1679493106706,1.0009425019003888,0.0008450730205234116
1411.174893923194,1411.174893923194,0.9988443246224306,0.0008443404276728946
1411.1818385356248,1411.1818385356248,1.0010771309938489,0.0008450536712833608
1411.1887831478691,1411.1887831478691,1.000282999122725,0.0008452056348213562
1411.1957277599265,1411.1957277599265,1.0006271794533175,0.0008453646220820295
1411.2026723720783,1411.2026723720783,0.9988179328155716,0.0008446642127682461
1411.2096169838567,1411.2096169838567,0.9990022626013217,0.0008447672026818956
1411.2165615956355,1411.2165615956355,0.9995145611288718,0.000844758770427162
1411.223506207321,1411.223506207321,0.9999477011889338,0.0008444363947932287
1411.2304508187267,1411.2304508187267,1.0005637225212998,0.0008449980964294441
1411.2373954301336,1411.2373954301336,1.0006861740927722,0.0008449769016017336
1411.2443400413529,1411.2443400413529,0.9991173038157208,0.0008446569924274299
1411.2512846523866,1411.2512846523866,1.0007648754027836,0.0008452579427878366
1411.2582292634202,1411.2582292634202,0.9997060187225374,0.0008447880663575979
1411.2651738742675,1411.2651738742675,1.000861601714603,0.000844860895281912
1411.2721184850222,1411.2721184850222,0.9997396973712516,0.0008444852498801841
1411.2790630954034,1411.2790630954034,1.0001440999249482,0.0008445803829648013
1411.2860077057853,1411.2860077057853,0.9984650144434184,0.0008442182177312128
1411.2929523161667,1411.2929523161667,0.9992474690349098,0.0008443157833131056
1411.2998969265482,1411.2998969265482,1.0014646337302358,0.00084516817724881
1411.3068415365578,1411.3068415365578,1.0011460350653332,0.0008450404767394865
1411.3137861464734,1411.3137861464734,0.9994642693675756,0.00084495904153705
1411.3207307562038,1411.3207307562038,1.0011286004018116,0.0008452100152558298
1411.3276753659334,1411.3276753659334,0.9987295984468048,0.0008445278858305131
1411.334619975383,1411.334619975383,1.000196090308955,0.000844754373914007
1411.3415645847413,1411.3415645847413,0.998797495622122,0.0008444218698031265
1411.3485091940045,1411.3485091940045,0.9995302674445281,0.0008447649940028512
1411.355453803176,1411.355453803176,1.001171669007741,0.0008454197338239492
1411.3623984121605,1411.3623984121605,1.0000436447968566,0.0008452033687844461
1411.369343021052,1411.369343021052,1.0030482321915564,0.0008460138328021374
1411.3762876297578,1411.3762876297578,0.9996769249050039,0.0008452943018904928
1411.3832322383694,1411.3832322383694,1.000876211930906,0.0008456043221860721
1411.3901768467954,1411.3901768467954,1.00089447084723,0.00084553848507741
1411.3971214551284,1411.3971214551284,0.9994424524938263,0.0008449685090709499
1411.4040660631815,1411.4040660631815,1.0002661427477446,0.0008450890565566811
1411.4110106712353,1411.4110106712353,0.9984073805076751,0.0008446064331185303
1411.417955279288,1411.417955279288,1.0001424461738933,0.0008447991579572506
1411.4248998870626,1411.4248998870626,0.9998436023372135,0.0008449351025579973
1411.4318444947432,1411.4318444947432,1.000136064159983,0.0008450743106863303
1411.4387891022375,1411.4387891022375,0.9998719732470663,0.0008447836631905684
1411.4457337096394,1411.4457337096394,1.0009732635415944,0.0008450289873520162
1411.452678316854,1411.452678316854,0.999463774840623,0.0008443235595657153
1411.459622923977,1411.459622923977,1.0008580675254182,0.0008443599117953846
1411.466567530912,1411.466567530912,0.9998371537727706,0.0008441509424881773
1411.4735121377548,1411.4735121377548,1.0004070707674888,0.0008447147720612091
1411.4804567445046,1411.4804567445046,0.9986607803355094,0.0008441139234516271
1411.4874013511605,1411.4874013511605,1.0001055904275638,0.0008445948145747407
1411.4943459575384,1411.4943459575384,1.0011932493547056,0.0008448692386321744
1411.5012905639146,1411.5012905639146,0.9999209215711165,0.0008448160820420721
1411.5082351700125,1411.5082351700125,1.0014048163748324,0.0008450704015859746
1411.515179776203,1411.515179776203,0.9993887902806264,0.0008443778665327992
1411.5221243819278,1411.5221243819278,0.9972744632875973,0.0008441213492075196
1411.5290689876535,1411.5290689876535,1.0013207468861183,0.0008453188062193908
1411.5360135933781,1411.5360135933781,1.0004539830536445,0.0008453359450950557
1411.5429581990106,1411.5429581990106,0.999739704770518,0.000844919767425047
1411.549902804363,1411.549902804363,0.9985823721608098,0.0008445265332201349
1411.556847409529,1411.556847409529,1.0006116606804931,0.0008451771669316779
1411.563792014696,1411.563792014696,0.9998510248246155,0.00084527899535915
1411.570736619675,1411.570736619675,1.0009169383593615,0.0008453425285942642
1411.5776812245626,1411.5776812245626,1.0000730922140828,0.0008448063968279357
1411.5846258291697,1411.5846258291697,0.9993288728454018,0.0008446193006870437
1411.591570433684,1411.591570433684,0.9997524382511294,0.000844812225984716
1411.598515038292,1411.598515038292,1.0014013609117636,0.0008453202363948736
1411.6054596425263,1411.6054596425263,0.999719667457849,0.0008449738604919624
1411.612404246762,1411.612404246762,0.9985829450596956,0.0008445441937506487
1411.6193488507172,1411.6193488507172,1.0010117691220783,0.0008451655917131468
1411.6262934546726,1411.6262934546726,0.9993539720209663,0.0008446632143086113
1411.6332380585352,1411.6332380585352,1.0009777748931374,0.0008451213902359734
1411.6401826620247,1411.6401826620247,1.0007326390480558,0.0008450894296618133
1411.6471272654221,1411.6471272654221,0.9993042835602278,0.000844465325207836
1411.6540718688184,1411.6540718688184,0.9993938726737982,0.0008446663849206238
1411.6610164722156,1411.6610164722156,0.9989994595544476,0.0008443718364653308
1411.6679610753326,1411.6679610753326,1.0005062263132394,0.0008449315919721593
1411.674905678357,1411.674905678357,0.9999037732933056,0.0008445781572925222
1411.6818502811952,1411.6818502811952,1.000114334334087,0.0008446042691708381
1411.6887948839394,1411.6887948839394,1.0022776735266752,0.000845392986975979
1411.695739486499,1411.695739486499,1.0000046114617056,0.0008449158384192933
1411.7026840889635,1411.7026840889635,0.9986701796667452,0.0008445837011561571
1411.709628691243,1411.709628691243,0.9989741574391727,0.0008443426893781586
1411.7165732934293,1411.7165732934293,1.0018264060621587,0.00084528205825879
1411.7235178955216,1411.7235178955216,1.000608604730131,0.0008447928231555664
1411.7304624975222,1411.7304624975222,0.998492696445639,0.000844366443528812
1411.7374070992416,1411.7374070992416,1.000119678378843,0.0008448970985920939
1411.7443517009629,1411.7443517009629,0.9988246565519272,0.0008444871352078824
1411.7512963024033,1411.7512963024033,0.9989948675394027,0.0008449023082245738
1411.7582409039376,1411.7582409039376,1.0008685604460106,0.0008450888947004346
1411.7651855050065,1411.7651855050065,1.000364972950117,0.0008446704894410935
1411.7721301060744,1411.7721301060744,0.9989964426868425,0.0008441403584774281
1411.7790747071433,1411.7790747071433,1.000999176501661,0.0008446489802161516
1411.7860193082117,1411.7860193082117,1.0001301653822166,0.0008446116526892248
1411.7929639088145,1411.7929639088145,1.0005290732129661,0.0008448224351611851
1411.7999085095103,1411.7999085095103,0.9996092315842761,0.0008449174683496632
1411.8068531099266,1411.8068531099266,1.0017043572944304,0.0008452791111339168
1411.8137977103436,1411.8137977103436,1.0019862628219909,0.0008456259658881204
1411.8207423105737,1411.8207423105737,1.0017845372703298,0.0008460172757577338
1411.8276869106178,1411.8276869106178,1.0012082612203064,0.0008459498305012952
1411.8346315106617,1411.8346315106617,0.998561802142054,0.0008454439565941348
1411.8415761104263,1411.8415761104263,0.9968356052233132,0.0008449469698347822
1411.8485207100982,1411.8485207100982,0.9926882159109022,0.0008440893364961878
1411.855465309769,1411.855465309769,0.9924400965449063,0.000844361519881397
1411.8624099090687,1411.8624099090687,0.9928943256346388,0.0008445352520055557
1411.8693545084602,1411.8693545084602,0.9937972952255556,0.0008452110523493346
1411.876299107666,1411.876299107666,0.9941898414080395,0.0008451918322478262
1411.883243706779,1411.883243706779,0.9947017941549621,0.0008456375288696157
1411.890188305612,1411.890188305612,0.993445563651519,0.00084540677469521
1411.897132904353,1411.897132904353,0.9943603639008971,0.0008461125490891056
1411.9040775030921,1411.9040775030921,0.9944104458029948,0.0008462646805400285
1411.911022101647,1411.911022101647,0.996100997200427,0.0008469495783938229
1411.917966700014,1411.917966700014,0.9966652285247228,0.0008469515087194653
1411.9249112982886,1411.9249112982886,0.9950563535112036,0.0008469470339074242
1411.93185589647,1411.93185589647,0.9978721133375366,0.0008477993071813142
1411.9388004944649,1411.9388004944649,0.9945749577924395,0.0008462584920155928
1411.9457450923671,1411.9457450923671,0.9942561201308022,0.0008451681270087048
1411.9526896901757,1411.9526896901757,0.993296170857341,0.0008444612434348137
1411.9596342877987,1411.9596342877987,0.9927736768708867,0.0008437636726519252
1411.9665788853279,1411.9665788853279,0.9971467295541979,0.0008443247541359198
1411.973523482671,1411.973523482671,1.0010583280569305,0.0008457149479512366
1411.9804680799211,1411.9804680799211,0.9997048759035405,0.0008447888843498192
1411.987412677078,1411.987412677078,0.9998226190924611,0.0008449447840387181
1411.994357274049,1411.994357274049,1.0013271274023332,0.0008450419082853395
1412.0013018710192,1412.0013018710192,1.001328906312878,0.0008450219300435947
1412.008246467711,1412.008246467711,1.0006162639027976,0.0008444492462595226
1412.015191064309,1412.015191064309,0.9994500603780272,0.0008444090375780415
1412.0221356607203,1412.0221356607203,0.9991859313556217,0.000844394085371808
1412.029080257133,1412.029080257133,0.9994705520928602,0.0008441993511978151
1412.036024853544,1412.036024853544,0.9997793398087718,0.0008443103910904451
1412.042969449491,1412.042969449491,0.9994529329893711,0.0008440695520066053
1412.04991404553,1412.04991404553,1.0012806092863682,0.0008446009646971359
1412.056858641476,1412.056858641476,1.0003581779749573,0.0008448177631261964
1412.063803237143,1412.063803237143,1.0004269398297028,0.00084481203102948
1412.0707478328097,1412.0707478328097,0.9988892317450849,0.0008445821980496366
1412.0776924282907,1412.0776924282907,1.0003434460395728,0.0008449831287122069
1412.0846370236775,1412.0846370236775,0.9989562297566579,0.0008446506259852177
1412.0915816188794,1412.0915816188794,1.0014297983313711,0.0008453751577899525
1412.0985262139868,1412.0985262139868,1.0000083506285329,0.0008449650350802415
1412.1054708090019,1412.1054708090019,1.0004313941420397,0.0008451372723333942
1412.1124154038303,1412.1124154038303,0.9986880705159704,0.0008446910977468822
1412.1193599985659,1412.1193599985659,1.0004922656776105,0.0008453811970796351
1412.1263045932085,1412.1263045932085,0.99942541138127,0.0008448537165610701
1412.1332491876642,1412.1332491876642,0.9993314965087746,0.0008449247142400064
1412.1401937820278,1412.1401937820278,0.9997873127462047,0.0008446780598780392
1412.147138376111,1412.147138376111,0.9997343202748044,0.0008445494232404837
1412.1540829701946,1412.1540829701946,1.0000865530942122,0.0008445589478003147
1412.1610275642781,1412.1610275642781,1.0014548323311658,0.0008452113064136372
1412.167972158268,1412.167972158268,1.001203307055557,0.000845011970934108
1412.1749167519797,1412.1749167519797,0.9992733204620408,0.0008443697725040033
1412.181861345597,1412.181861345597,0.9994632724651249,0.0008445929589221519
1412.1888059390292,1412.1888059390292,1.0011394273868524,0.0008451469500602765
1412.1957505325538,1412.1957505325538,0.9998703248242352,0.0008445798837638308
1412.202695125706,1412.202695125706,1.0002635465689678,0.0008448658460751782
1412.2096397187656,1412.2096397187656,0.9988242233193845,0.0008445621878510612
1412.216584311917,1412.216584311917,0.999208209486768,0.000844619568046309
1412.2235289046976,1412.2235289046976,0.9995405485488073,0.0008447267057375798
1412.2304734974764,1412.2304734974764,1.000536263067343,0.0008451521852216997
1412.2374180901638,1412.2374180901638,1.0006224249894704,0.0008451997514657347
1412.2443626826637,1412.2443626826637,0.999758638757765,0.0008447207364940335
1412.251307275071,1412.251307275071,1.000499699474075,0.0008449901089851051
1412.2599185694062,1412.2599185694062,1.0005193604286635,0.0008445543888312288
1412.2690854309892,1412.2690854309892,0.9993803175264221,0.0008441212332168937
1412.2793634268796,1412.2793634268796,1.0003905182323696,0.0008446143719888407
1412.2896414226777,1412.2896414226777,1.0001885201764602,0.0008447520963292944
1412.297141581773,1412.297141581773,0.9991048328884601,0.0008445539874288356
1412.3040861731565,1412.3040861731565,0.9998977416414354,0.0008447038721365929
1412.3110307645384,1412.3110307645384,0.9999719629725661,0.000844910008789046
1412.3179753558286,1412.3179753558286,1.0005843398964211,0.000844964446635643
1412.3249199469315,1412.3249199469315,0.9997873007473563,0.000844765360169485
1412.3318645379418,1412.3318645379418,0.9996534460390087,0.0008442663582124348
1412.3388091287657,1412.3388091287657,0.9993160518381312,0.000844594825103825
1412.3457537194965,1412.3457537194965,0.9994966002599487,0.0008444283872991983
1412.3526983101347,1412.3526983101347,1.0002591648290475,0.0008441271800768013
1412.3596429005854,1412.3596429005854,1.0011961951356296,0.000844651138341543
1412.3665874909443,1412.3665874909443,1.0004042563686015,0.0008447766321045492
1412.3735320813023,1412.3735320813023,1.0002899700756824,0.0008446774295386324
1412.3804766713815,1412.3804766713815,1.000738970513233,0.0008449774855852264
1412.3874212613669,1412.3874212613669,0.9999121938047665,0.0008445808068939471
1412.3943658513526,1412.3943658513526,0.9998599071678917,0.0008447603460653173
1412.401310441152,1412.401310441152,0.998891109884083,0.0008445343379548734
1412.4082550307653,1412.4082550307653,0.9992031437042985,0.0008447645357127431
1412.4151996201927,1412.4151996201927,1.000399512435151,0.0008447388774631585
1412.422144209619,1412.422144209619,1.0001122939134426,0.0008449889804092888
1412.4290887990467,1412.4290887990467,1.000387843661251,0.0008451708492242523
1412.4360333882871,1412.4360333882871,0.9989652952417849,0.000844703347581055
1412.4429779773416,1412.4429779773416,1.0001772502929622,0.0008452468392978566
1412.4499225663028,1412.4499225663028,1.0017693014142912,0.0008454641304456552
1412.4568671550774,1412.4568671550774,0.9992936944215046,0.0008445188867896013
1412.463811743853,1412.463811743853,0.9995541750275617,0.0008445704490276882
1412.4707563324414,1412.4707563324414,0.9996629201191739,0.0008446221536328558
1412.4777009209374,1412.4777009209374,1.000307214958034,0.0008446692558694357
1412.4846455092465,1412.4846455092465,1.0016399207325164,0.0008452866368018752
1412.4915900974627,1412.4915900974627,0.9980717693994648,0.0008446491305764468
1412.4985346856795,1412.4985346856795,1.0002099416698942,0.000844931490643301
1412.505479273616,1412.505479273616,0.9999898006512609,0.0008445048862076365
1412.512423861553,1412.512423861553,0.9996199951084035,0.000844927316935715
1412.519368449303,1412.519368449303,1.0008601375080197,0.0008453814470623072
1412.526313036961,1412.526313036961,0.9983405546605353,0.0008444570732689827
1412.533257624525,1412.533257624525,0.9996937095130551,0.0008446157024182557
1412.5402022119033,1412.5402022119033,1.0008916113063164,0.0008450683168618987
1412.547146799281,1412.547146799281,1.0014124122461627,0.0008452521778273839
1412.5540913863802,1412.5540913863802,1.0010806287670364,0.0008451546411875307
1412.5610359734787,1412.5610359734787,0.9995039937883966,0.0008447033296450606
1412.5679805605766,1412.5679805605766,0.9989060439412054,0.0008444962705161414
1412.5749251472107,1412.5749251472107,0.9996604608168198,0.0008450264805213534
1412.581869734029,1412.581869734029,1.0004540000193456,0.0008449022926823969
1412.5888143206626,1412.5888143206626,0.9993008829397599,0.0008446895116233798
1412.5957589072023,1412.5957589072023,1.000086888259909,0.0008449611004243046
1412.602703493556,1412.602703493556,1.0004687155185912,0.0008451702569974594
1412.6096480797235,1412.6096480797235,1.0004762144585593,0.0008453838168560447
1412.6165926659837,1412.6165926659837,0.9996629916341551,0.0008451738878702825
1412.6235372518718,1412.6235372518718,1.0005773241041471,0.0008450657635524
1412.6304818378526,1412.6304818378526,0.9997327983671539,0.0008446800766326514
1412.637426423741,1412.637426423741,0.9992677971828023,0.0008447950160962381
1412.6443710093488,1412.6443710093488,0.9985908534600769,0.0008444957771714045
1412.651315594865,1412.651315594865,1.0008823269981555,0.0008454151203312443
1412.6582601804732,1412.6582601804732,1.000507374478113,0.0008450387711231282
1412.6652047657094,1412.6652047657094,0.9999044637510129,0.0008449528507746198
1412.6721493509453,1412.6721493509453,1.0001859260240376,0.0008450042914029748
1412.6790939359948,1412.6790939359948,1.0005296145566533,0.0008448289897854726
1412.6860385212315,1412.6860385212315,1.0000718831650477,0.0008446473775784872
1412.692983106001,1412.692983106001,0.9999741154843077,0.0008450342942954502
1412.6999276907723,1412.6999276907723,1.0001187033545944,0.0008447530169948068
1412.7068722755419,1412.7068722755419,0.9996799246380187,0.0008449144601051416
