time,time,flux,flux_err
1570.318086607247,1570.318086607247,1.0003135131352991,0.0008125003524724785
1570.326142294471,1570.326142294471,1.0014636333628946,0.0008063609187884408
1570.3330868524795,1570.3330868524795,0.9994232874606984,0.0008014324580424262
1570.340031410558,1570.340031410558,0.9997169797852961,0.0007968479616030277
1570.3483648803306,1570.3483648803306,0.9981481629269249,0.0007915730701735593
1570.3553094385247,1570.3553094385247,0.9988862641325016,0.00078672984550566
1570.3630873437821,1570.3630873437821,1.000487011347336,0.0007827497067684466
1570.3705874667953,1570.3705874667953,0.9995204393191944,0.0007781687794283624
1570.3789209368704,1570.3789209368704,0.9994443904299688,0.0007725978427226643
1570.3869766246767,1570.3869766246767,1.0004495745490858,0.0007686423107641771
1570.3947545302835,1570.3947545302835,1.000530132506976,0.0007646041624916844
1570.4039213476096,1570.4039213476096,1.002113979995841,0.0007608203424281017
1570.4108659062692,1570.4108659062692,1.0000171036167234,0.0007571109777106899
1570.417810464976,1570.417810464976,0.9996653818150311,0.0007541026193548814
1570.4258661531544,1570.4258661531544,0.9992017998457647,0.0007509389256990747
1570.4344774060814,1570.4344774060814,1.000653813198699,0.0007483436307038625
1570.4455887003382,1570.4455887003382,1.0009845835078417,0.0007451731328251868
1570.4525332593241,1570.4525332593241,0.9991428286396093,0.0007430457595211258
1570.4594778183798,1570.4594778183798,1.0001139628828892,0.0007414113568025876
1570.4664223774362,1570.4664223774362,0.9994975283339139,0.0007395429455212638
1570.4733669364925,1570.4733669364925,0.9999762895867587,0.0007382708705865632
1570.4803114956644,1570.4803114956644,0.9993035807386157,0.0007361839161632624
1570.4872560548827,1570.4872560548827,1.0001065727829521,0.0007348773639119405
1570.4942006141248,1570.4942006141248,1.000718732609597,0.0007338140397407007
1570.5011451734376,1570.5011451734376,1.000145539862852,0.0007321427063097044
1570.5080897327496,1570.5080897327496,1.0007550602940547,0.0007302657409040065
1570.5150342921547,1570.5150342921547,1.0015777664035368,0.0007300591878231088
1570.5225344163302,1570.5225344163302,1.0000501805390303,0.0007280263917538233
1570.5303123229385,1570.5303123229385,0.9988872174200175,0.0007270664332823015
1570.5375346648468,1570.5375346648468,0.9992497269538332,0.0007249945861112337
1570.546979265861,1570.546979265861,0.9992249196571574,0.000723910523740936
1570.5539238254987,1570.5539238254987,0.9998685819909868,0.0007225388072134032
1570.5608683851362,1570.5608683851362,1.000285158865017,0.000722412415937093
1570.5678129448215,1570.5678129448215,1.0008338697410726,0.0007208979189803985
1570.574757504576,1570.574757504576,1.0007507724450675,0.0007201391633602042
1570.58170206433,1570.58170206433,0.9996589776185536,0.0007185691624417043
1570.5886466241543,1570.5886466241543,0.9993701134723821,0.0007178403624117817
1570.5955911840013,1570.5955911840013,1.0006347954059411,0.0007172807722357966
1570.6025357438732,1570.6025357438732,1.0003597255381989,0.0007159759529531959
1570.6108692157877,1570.6108692157877,0.9999333752917318,0.0007146858498615421
1570.6178137757515,1570.6178137757515,0.999031455696602,0.0007132339896869795
1570.6247583357385,1570.6247583357385,1.0001491258384125,0.0007133008092047013
1570.6330918077929,1570.6330918077929,0.9997977861178464,0.0007111251987223798
1570.640036367874,1570.640036367874,1.0001783581665142,0.0007102427238175086
1570.6469809279774,1570.6469809279774,1.000100029272434,0.0007093639550063597
1570.6539254881272,1570.6539254881272,0.999932963962775,0.0007085201036070934
1570.6608700482775,1570.6608700482775,1.0004549401137397,0.0007077876271099525
1570.6678146084512,1570.6678146084512,0.9992791501711163,0.0007060366319673009
1570.674759168695,1570.674759168695,1.0008431093402717,0.0007058182656286622
1570.6817037290082,1570.6817037290082,0.999376428135666,0.0007045447866275533
1570.6886482892742,1570.6886482892742,1.000266043040206,0.0007036406718014536
1570.6955928496104,1570.6955928496104,1.0007540955536947,0.0007025815106167187
1570.7025374099474,1570.7025374099474,0.9998045980656196,0.0007017213854517543
1570.7094819703307,1570.7094819703307,0.999773175638196,0.0007002894335022587
1570.7164265307601,1570.7164265307601,0.999660354068142,0.0007001993686904674
1570.7233710911894,1570.7233710911894,1.0000406433714184,0.0006975799553769038
1570.730315651665,1570.730315651665,1.000258709802367,0.0006967939943349482
1570.7372602121422,1570.7372602121422,0.9990067418123691,0.000695906758201246
1570.744204772665,1570.744204772665,0.9997300768629771,0.0006940832461010694
1570.7511493332106,1570.7511493332106,1.0002713908582614,0.0006926351798631177
1570.758093893803,1570.758093893803,1.0001378230119002,0.0006917181391861098
1570.7650384543954,1570.7650384543954,1.0003473231267297,0.0006899396251165982
1570.771983015012,1570.771983015012,0.9999865480284585,0.0006899155847551978
1570.778927575651,1570.778927575651,1.0005123032731265,0.0006881966174139999
1570.7858721363366,1570.7858721363366,1.0002644434281973,0.0006871108609655796
1570.792816697022,1570.792816697022,1.0001365788146166,0.0006862746579003455
1570.7997612577542,1570.7997612577542,1.0005295220860682,0.0006853603051360745
1570.806705818487,1570.806705818487,0.9996535566423639,0.0006845346147798069
1570.8136503792427,1570.8136503792427,1.0007442338641415,0.0006842052602352549
1570.8205949400447,1570.8205949400447,0.9996425139428957,0.0006836089017653484
1570.8275395008463,1570.8275395008463,0.9993284586703979,0.000682160156171006
1570.8344840616485,1570.8344840616485,0.9990904580079085,0.0006812470377586744
1570.8414286225675,1570.8414286225675,1.0003635680542702,0.0006809142564969122
1570.8483731833933,1570.8483731833933,1.0006411145452936,0.0006806180569336989
1570.8553177442882,1570.8553177442882,1.0003480564240494,0.0006797743759982714
1570.8622623052065,1570.8622623052065,1.000100244564563,0.0006798265738455659
1570.869206866148,1570.869206866148,1.0003875021695408,0.0006786622606152633
1570.8767069919545,1570.8767069919545,0.9997620655031596,0.0006785033243177187
1570.884484900286,1570.884484900286,0.9998392291891541,0.0006775936979598952
1570.891429461274,1570.891429461274,0.9996779606631476,0.0006771135591820794
1570.8983740222625,1570.8983740222625,0.9992679200125583,0.0006765439609096146
1570.9053185832968,1570.9053185832968,1.000339008061466,0.0006765902095373252
1570.9122631443558,1570.9122631443558,1.0001022056321869,0.000675810767760713
1570.9192077054145,1570.9192077054145,1.0003542150723428,0.000675126728763113
1570.9261522664722,1570.9261522664722,1.0000776351735696,0.0006743603126223873
1570.9330968275767,1570.9330968275767,1.0001134277974866,0.0006744634722001201
1570.940041388728,1570.940041388728,1.0002768456060154,0.0006732716789162239
1570.9469859498336,1570.9469859498336,0.9998157708076754,0.0006726170604032989
1570.9539305109852,1570.9539305109852,0.9999395713721505,0.0006720983343936851
1570.960875072136,1570.960875072136,0.9999757449005415,0.0006717081315148321
1570.9678196333102,1570.9678196333102,1.001045203055527,0.0006714551666474612
1570.974764194508,1570.974764194508,0.998731833591564,0.0006704036990439895
1570.9817087557067,1570.9817087557067,0.9994832128571609,0.000669509434736137
1570.9886533169513,1570.9886533169513,0.9999456509882719,0.0006696370232087588
1570.9955978781722,1570.9955978781722,1.0001685419484374,0.0006685197169829209
1571.0025424394164,1571.0025424394164,1.0006819300362397,0.0006683137689269495
1571.009487000684,1571.009487000684,0.9996226627785847,0.000667495201694258
1571.0164315619522,1571.0164315619522,1.0001590878818996,0.0006667105993298616
1571.0233761232437,1571.0233761232437,0.9999996668344471,0.0006656583949915873
1571.0303206845344,1571.0303206845344,1.0001349618700435,0.0006645621367229529
1571.0372652458252,1571.0372652458252,0.9998760265275598,0.0006637067985909891
1571.0442098071858,1571.0442098071858,0.9999171134876473,0.0006630018230114334
1571.051154368477,1571.051154368477,0.9993734198607045,0.0006627032773615103
1571.0580989298387,1571.0580989298387,1.0007729341768326,0.0006617329305360342
1571.0650434912227,1571.0650434912227,1.0002500580592404,0.0006616018914900593
1571.0719880526071,1571.0719880526071,0.9996363651240555,0.0006598823609289449
1571.0789326139907,1571.0789326139907,1.0001185954934413,0.0006597437910995716
1571.085877175375,1571.085877175375,1.0003736345929457,0.000659709975093596
1571.0928217367596,1571.0928217367596,0.9997982682049253,0.0006583043329353784
1571.099766298144,1571.099766298144,0.9992382267053438,0.0006575431468302509
1571.106710859528,1571.106710859528,0.9999179990939886,0.0006574981947666646
1571.1136554209584,1571.1136554209584,1.0001193813637388,0.0006563058637635219
1571.1205999824122,1571.1205999824122,1.0011785078293656,0.0006567082627107266
1571.1275445438202,1571.1275445438202,0.9997636323662752,0.0006555902506258264
1571.134489105298,1571.134489105298,0.9997740451740219,0.0006551702608257443
1571.1414336667517,1571.1414336667517,0.999123386700488,0.0006546441728172269
1571.1483782282053,1571.1483782282053,1.000272767954526,0.0006547865358231535
1571.1553227896823,1571.1553227896823,1.0007038190429909,0.0006540382206232755
1571.1622673511836,1571.1622673511836,1.0001347761032084,0.0006530857372639452
1571.169211912661,1571.169211912661,0.9996285833460803,0.0006535062998605211
1571.1761564741614,1571.1761564741614,0.9994392470151565,0.000653047226058272
1571.183101035662,1571.183101035662,1.0003038189338178,0.0006525662339760625
1571.190045597162,1571.190045597162,0.9999200718993352,0.0006518741875789853
1571.196990158663,1571.196990158663,0.9995327407514345,0.0006518703801878276
1571.203934720211,1571.203934720211,1.0007974524183827,0.000651711126133342
1571.2108792817344,1571.2108792817344,1.0005213755741977,0.0006514637087752851
1571.2178238432584,1571.2178238432584,0.9990866334799889,0.0006524367492786515
1571.2247684048048,1571.2247684048048,1.0005238075203042,0.0006509114682165825
1571.231712966352,1571.231712966352,0.9996604622662263,0.0006509500179892286
1571.238657527877,1571.238657527877,0.9995558377785544,0.0006505007144297575
1571.2456020894472,1571.2456020894472,1.0005290481452236,0.0006504526808722799
1571.2525466509944,1571.2525466509944,1.0003195664414262,0.0006499194752756678
1571.2594912125878,1571.2594912125878,1.0010128410410375,0.0006500082935936629
1571.2664357741114,1571.2664357741114,0.9993319207091848,0.0006490209619444105
1571.2733803357055,1571.2733803357055,1.0004361284924976,0.0006495510595070341
1571.2803248972764,1571.2803248972764,0.9991541120924039,0.0006487582716269639
1571.2872694588466,1571.2872694588466,0.9995788087047857,0.0006483311332734718
1571.29421402044,1571.29421402044,1.000886935706727,0.0006480326936119131
1571.3011585820102,1571.3011585820102,0.9995395739970541,0.000647450016876352
1571.3081031435809,1571.3081031435809,1.0001293832613187,0.0006473154562628133
1571.3150477051986,1571.3150477051986,1.000202936376337,0.0006470467690434876
1571.3219922667922,1571.3219922667922,1.000157373816282,0.0006469532031021964
1571.3289368283854,1571.3289368283854,1.000218586240663,0.0006464763164137255
1571.3358813899788,1571.3358813899788,0.9998349238698052,0.0006456821883273234
1571.3428259515726,1571.3428259515726,1.0003600438139009,0.0006458389346237764
1571.349770513167,1571.349770513167,1.000483737879648,0.0006450999769603277
1571.356715074784,1571.356715074784,0.9994109271458032,0.0006454218879251199
1571.3636596363779,1571.3636596363779,1.0007920458731416,0.000644623520408678
1571.3706041979942,1571.3706041979942,0.9993627000871885,0.0006441265683207332
1571.377548759588,1571.377548759588,0.9988800256807074,0.0006439020820862139
1571.3844933211817,1571.3844933211817,0.9995507787874096,0.000643310529779842
1571.3914378827992,1571.3914378827992,1.0002457350919003,0.0006430849756323303
1571.3983824444163,1571.3983824444163,1.0002893778770159,0.0006429552174363627
1571.4053270060099,1571.4053270060099,1.0003792616793026,0.0006421545535602042
1571.4122715676265,1571.4122715676265,1.0004951358542076,0.0006419748392726411
1571.4192161292203,1571.4192161292203,0.9998209225296621,0.0006419610858307163
1571.4261606908376,1571.4261606908376,1.0003525368483455,0.0006421378415018039
1571.433105252455,1571.433105252455,0.9994547229423085,0.0006414863499303153
1571.4400498140487,1571.4400498140487,0.9993294546209883,0.0006419359786116357
1571.4469943756653,1571.4469943756653,0.9998677367572008,0.000640816637245957
1571.4539389372587,1571.4539389372587,1.001374710118517,0.0006411000152723623
1571.4608834988758,1571.4608834988758,1.0000251327785301,0.0006407080577735208
1571.4678280604703,1571.4678280604703,0.9994857460822871,0.0006403782145991815
1571.4747726220871,1571.4747726220871,1.0003239927626504,0.0006408769389043978
1571.4817171836805,1571.4817171836805,1.0000915522691123,0.0006407330089455444
1571.4886617452742,1571.4886617452742,0.9992099802456247,0.0006406967180904476
1571.4956063068676,1571.4956063068676,0.9999190649010412,0.00064075292237273
1571.5025508684853,1571.5025508684853,1.0002560285520687,0.0006401739702614784
1571.5094954300562,1571.5094954300562,0.9997243614265423,0.0006401932428638138
1571.516439991649,1571.516439991649,1.0003390261164848,0.0006407226971005982
1571.5233845532427,1571.5233845532427,1.000076604537198,0.0006403445670172684
1571.5303291148364,1571.5303291148364,1.0003966368546773,0.000640262148722435
1571.5372736764066,1571.5372736764066,0.9999926322303889,0.0006400966421117376
1571.5442182379782,1571.5442182379782,0.999892880726135,0.000640745621978141
1571.5511627995713,1571.5511627995713,0.9997431498013766,0.00064030145144592
1571.5581073611418,1571.5581073611418,0.9994264110502791,0.0006400975831936685
1571.5650519227122,1571.5650519227122,0.9999346538420177,0.0006406102257311461
1571.5719964842822,1571.5719964842822,0.9997726679554638,0.0006402878460470698
1571.5789410458297,1571.5789410458297,0.9994607665012765,0.0006402633680551098
1571.585885607424,1571.585885607424,1.0000707550133834,0.0006396794604949576
1571.5928301689476,1571.5928301689476,1.0002088814411738,0.0006399905278813596
1571.5997747305178,1571.5997747305178,0.9997973788514475,0.0006397157326423591
1571.606719292065,1571.606719292065,1.0000583634717295,0.0006397146540391936
1571.6136638535882,1571.6136638535882,1.0011261734958998,0.0006400313403689524
1571.6206084151368,1571.6206084151368,1.0003635181978943,0.0006394539241119058
1571.627552976684,1571.627552976684,0.9994653390808592,0.0006394950509860592
1571.6344975382071,1571.6344975382071,0.9995132190754156,0.0006393482029744039
1571.6414420997075,1571.6414420997075,1.0003897475900216,0.0006396683540359782
1571.6483866612543,1571.6483866612543,0.9995829674676197,0.0006392194054598006
1571.6553312227547,1571.6553312227547,0.9996728902712686,0.0006395899857903209
1571.6622757842802,1571.6622757842802,0.9998055268325696,0.0006398235084480763
1571.66922034578,1571.66922034578,1.0002307480437749,0.0006396312784393874
1571.6761649072805,1571.6761649072805,1.0002276281638542,0.000639399025650023
1571.6831094687573,1571.6831094687573,1.0004902810627627,0.0006391314675960398
1571.690054030258,1571.690054030258,1.000254575602978,0.0006395836966299932
1571.6969985917356,1571.6969985917356,1.000261474498539,0.0006389926641891137
1571.7039431532135,1571.7039431532135,0.9990335227034792,0.0006386579201623589
1571.7108877146907,1571.7108877146907,1.0004078089486765,0.0006388159933921045
1571.7178322761208,1571.7178322761208,0.9996461595541755,0.0006384357786884603
1571.7247768376214,1571.7247768376214,0.9997075014621487,0.0006386052706152803
1571.7317213990523,1571.7317213990523,0.9997886404952405,0.0006390382018177502
1571.7386659605068,1571.7386659605068,0.9993760190358865,0.0006383437897891069
1571.7456105219144,1571.7456105219144,0.9999762695899973,0.0006376871580161948
1571.7525550833914,1571.7525550833914,1.0009855967321335,0.0006374885226959888
1571.7594996447754,1571.7594996447754,1.001339549980513,0.0006374336019329145
1571.7664442061593,1571.7664442061593,0.9999833102023776,0.0006369201871128958
1571.7733887676595,1571.7733887676595,1.0010729454779614,0.0006374085671971809
1571.7803333290449,1571.7803333290449,0.9989531747257996,0.0006366827701519326
1571.787277890429,1571.787277890429,0.9994890257043808,0.0006365617192013478
1571.7942224518126,1571.7942224518126,1.0002596543090285,0.0006368479653907889
1571.8011670131966,1571.8011670131966,1.0002787238339144,0.0006365391514800733
1571.8081115745806,1571.8081115745806,0.9996160110091667,0.0006364154336060743
1571.8150561359412,1571.8150561359412,0.9995732140800495,0.0006360342316546787
1571.8220006972335,1571.8220006972335,0.9994011880608851,0.0006361158555395894
1571.8289452586173,1571.8289452586173,1.0008436220615184,0.0006357024632277939
1571.8358898199779,1571.8358898199779,1.000379872140361,0.000635838794299195
1571.842834381269,1571.842834381269,1.0003282665770006,0.0006354897499586184
1571.8497789426297,1571.8497789426297,0.9995925977649476,0.0006357352103502684
1571.8567235039206,1571.8567235039206,1.0000716184556828,0.0006357498932419943
1571.8636680652357,1571.8636680652357,1.0000980179692118,0.0006355861544928944
1571.8706126265265,1571.8706126265265,0.9992274796350454,0.0006351826440975099
1571.8775571878175,1571.8775571878175,0.9999828830990308,0.0006357711605068305
1571.8845017491085,1571.8845017491085,1.0001694467705227,0.0006353803984330104
1571.8914463103758,1571.8914463103758,1.0002072979504297,0.0006351890072828569
1571.8983908716204,1571.8983908716204,1.0000936403862923,0.0006349956061294529
1571.905335432889,1571.905335432889,1.0001801514644646,0.0006352444821134537
1571.912279994133,1571.912279994133,1.0005497413724969,0.0006355131551847103
1571.9192245553775,1571.9192245553775,0.9995657836354462,0.0006351386211580991
1571.926169116575,1571.926169116575,0.9999550616428629,0.0006349653886045955
1571.933113677796,1571.933113677796,0.9997954390991997,0.0006354473846879257
1571.9400582390172,1571.9400582390172,0.999880658111781,0.0006351254644029036
1571.947002800216,1571.947002800216,1.0001660472337304,0.0006354318286872864
1571.9539473613906,1571.9539473613906,0.999872287074125,0.0006354137147271838
1571.9608919225645,1571.9608919225645,0.9995086059897709,0.000634921256717092
1571.9678364837391,1571.9678364837391,0.9993844319488824,0.0006343912837930454
1571.9747810448903,1571.9747810448903,1.000988757175676,0.0006347552444714466
1571.9817256060185,1571.9817256060185,1.0006800241846816,0.0006348250000606003
1571.9886701671708,1571.9886701671708,1.0000165259152387,0.0006351883688230197
1571.995614728298,1571.995614728298,0.9992653066787411,0.0006341289470533667
1572.002559289403,1572.002559289403,1.0003324110747474,0.0006344211976039481
1572.0095038505076,1572.0095038505076,1.0005039025515683,0.0006341990229177007
1572.0164484115887,1572.0164484115887,0.9998019406763378,0.0006345829563682815
1572.0233929726937,1572.0233929726937,1.0002979765145865,0.0006339500625589764
1572.0303375337528,1572.0303375337528,0.9990146457529214,0.0006342795103806486
1572.0372820948105,1572.0372820948105,0.9996744914124946,0.0006342236834486468
1572.0442266558455,1572.0442266558455,0.9995814547489867,0.0006338866311890736
1572.0511712169034,1572.0511712169034,1.0000562740846592,0.0006337123649895533
1572.0581157779145,1572.0581157779145,1.0005312253598884,0.0006337667914074594
1572.0650603389265,1572.0650603389265,1.0008908810447665,0.000633744714791632
1572.0720048999156,1572.0720048999156,0.9998531930051643,0.0006337614790845312
1572.0789494609269,1572.0789494609269,1.0005101033925814,0.0006337932482410343
1572.0858940219152,1572.0858940219152,0.9993979423680761,0.0006334041663697216
1572.0928385828797,1572.0928385828797,0.9997264302841721,0.0006336235023248385
1572.0997831438212,1572.0997831438212,0.9993390794529018,0.0006333827380607071
1572.1067277047632,1572.1067277047632,0.9998913680658739,0.0006328737715711699
