time,time,flux,flux_err
1468.2811947358168,1468.2811947358168,1.00008593491886,0.0003032914379682167
1468.2895281061492,1468.2895281061492,1.000152514857729,0.00030334441843804483
1468.2971670286365,1468.2971670286365,1.0006835209196532,0.00027695793099750715
1468.3041115034196,1468.3041115034196,0.9993359016239225,0.00027687647130850965
1468.3110559782026,1468.3110559782026,0.999641821588974,0.00027687288938239277
1468.318000452799,1468.318000452799,1.0001597322383582,0.00027692627986032625
1468.324944927395,1468.324944927395,0.9997146948770865,0.0002768860092112209
1468.3318894017125,1468.3318894017125,1.000081624759558,0.0002768360759829216
1468.3388338759364,1468.3388338759364,1.0000348508869688,0.0002769175568719434
1468.3457783500671,1468.3457783500671,0.9999199371515581,0.00027695667005826947
1468.3527228240114,1468.3527228240114,1.000284530128848,0.00027687609881500307
1468.3596672978629,1468.3596672978629,1.0002467819563736,0.0002769109762953456
1468.3666117715284,1468.3666117715284,0.9999654233417005,0.0002768981361452452
1468.3735562451006,1468.3735562451006,1.0003087814816003,0.00027700167960987686
1468.382445171116,1468.382445171116,0.9994991610410267,0.00027675980820254353
1468.3971674544625,1468.3971674544625,0.9999480839554835,0.00027682387720161965
1468.4041119274764,1468.4041119274764,1.0000048273420394,0.00027682977786623846
1468.411056400024,1468.411056400024,1.0004203111892997,0.0002768597838881809
1468.4180008729436,1468.4180008729436,1.0000425602046046,0.0002768087578307628
1468.424945345491,1468.424945345491,0.9998207727676881,0.000276897825969472
1468.4318898179458,1468.4318898179458,0.9997382780185875,0.0002767505796283631
1468.4388342904,1468.4388342904,1.000391984859766,0.00027694307421887544
1468.4457787625752,1468.4457787625752,1.0001019700860514,0.00027688374149736087
1468.4527232346572,1468.4527232346572,0.9997828476323185,0.00027687563987619277
1468.4596677065529,1468.4596677065529,1.00015987174083,0.0002768370437664229
1468.4666121784487,1468.4666121784487,1.0000809641825708,0.00027680080089078973
1468.4735566501581,1468.4735566501581,1.0002811715086526,0.0002767921753659098
1468.4805011216808,1468.4805011216808,0.9998208734062736,0.0002768323144331522
1468.4874455931108,1468.4874455931108,1.0000356186175858,0.0002767351756970143
1468.494390064448,1468.494390064448,0.9996922069108718,0.0002768402623960873
1468.5013345355987,1468.5013345355987,1.0003718955537526,0.00027689406952562443
1468.5082790066558,1468.5082790066558,0.9997649636893999,0.00027689925868540474
1468.515223477527,1468.515223477527,0.999984287254527,0.0002767609788743057
1468.5221679482122,1468.5221679482122,1.0003976675759312,0.0002768930147048419
1468.5291124188968,1468.5291124188968,1.0000794040673777,0.00027683302468687763
1468.5360568895821,1468.5360568895821,0.9998638712231847,0.0002769091943136398
1468.5430013598948,1468.5430013598948,0.999612891232054,0.0002766995070619865
1468.5499458302065,1468.5499458302065,1.0001253062397093,0.00027685428107954456
1468.556890300426,1468.556890300426,1.0005505360075289,0.0002768139192163488
1468.5638347703662,1468.5638347703662,0.9996194245872795,0.00027677778662108524
1468.5707792402127,1468.5707792402127,1.0000429399125426,0.00027692466270466296
1468.5777237100594,1468.5777237100594,0.999993291048917,0.0002768487739520068
1468.5846681796268,1468.5846681796268,0.9998152022423186,0.00027683141599040755
1468.5916126491009,1468.5916126491009,0.9995715842007826,0.00027679458153742956
1468.5985571184822,1468.5985571184822,1.0005820403451988,0.00027685348761560813
1468.6055015877703,1468.6055015877703,0.999844473913208,0.00027677278019204546
1468.6124460568717,1468.6124460568717,1.0001446640544176,0.00027675067630894367
1468.6193905258801,1468.6193905258801,1.0002364451451584,0.0002768204272578658
1468.6263349947026,1468.6263349947026,0.9999495593476257,0.00027683083618414714
1468.6332794633388,1468.6332794633388,0.9993758408650404,0.0002766706927885747
1468.6402239320673,1468.6402239320673,1.0002898144108612,0.000276813791484116
1468.6471684005173,1468.6471684005173,0.9999898592201891,0.000276705155112849
1468.6541128688743,1468.6541128688743,0.9997786386830028,0.00027682517688510977
1468.6610573370444,1468.6610573370444,1.000297405896768,0.0002769410562854948
1468.6680018051218,1468.6680018051218,0.9999849321538367,0.00027680221447968443
1468.6749462730127,1468.6749462730127,1.0001603768343459,0.0002767974907168077
1468.6818907408103,1468.6818907408103,0.999954001448611,0.00027676314696783945
1468.6888352085148,1468.6888352085148,1.0002772124657169,0.000276836862288285
1468.6957796761267,1468.6957796761267,0.9999260895215508,0.00027672891964665967
1468.7027241435521,1468.7027241435521,0.9998606796396533,0.00027679325330773325
1468.709668610977,1468.709668610977,0.9995582829988565,0.00027674892814979785
1468.7166130781231,1468.7166130781231,1.000498811152654,0.00027679483530181065
1468.723557545083,1468.723557545083,0.9998818659463972,0.00027677252036668605
1468.7305020120425,1468.7305020120425,1.0005323686886376,0.0002767780107870671
1468.737446478816,1468.737446478816,0.9998055179831866,0.00027679886488577983
1468.744390945496,1468.744390945496,0.999850822191644,0.0002768335499372726
1468.7513354120829,1468.7513354120829,1.0003292321554813,0.00027684518360836827
1468.758279878391,1468.758279878391,0.9997339140431605,0.00027682872481937413
1468.7652243448852,1468.7652243448852,1.000166678040074,0.0002768818662993174
1468.7721688109136,1468.7721688109136,1.0001435471875375,0.0002767935400061922
1468.7791132769416,1468.7791132769416,0.9994521860641411,0.0002767305724236212
1468.78605774297,1468.78605774297,1.000234534730588,0.0002768321114492129
1468.7930022085327,1468.7930022085327,1.0003194187216264,0.0002768032682989615
1468.7999466742815,1468.7999466742815,0.9995994261161817,0.00027678234133600134
1468.806891139844,1468.806891139844,1.0001717269812667,0.000276823418804949
1468.8138356052204,1468.8138356052204,1.0001079434443545,0.00027690294631548494
1468.8207800705036,1468.8207800705036,0.9998803719367283,0.0002767619102315307
1468.8277245356007,1468.8277245356007,0.9998730583327442,0.00027675610446490343
1468.834669000605,1468.834669000605,1.0001187095415252,0.00027676802313962036
1468.8416134655154,1468.8416134655154,1.0001458871503872,0.00027671094876216367
1468.8485579303328,1468.8485579303328,0.9998068365776129,0.0002767688744659234
1468.8555023949646,1468.8555023949646,0.9997809121136573,0.0002769111553572102
1468.8624468594094,1468.8624468594094,1.0006124144000168,0.00027686890490822885
1468.8693913238549,1468.8693913238549,0.9994562052053808,0.0002766572310995553
1468.8763357881132,1468.8763357881132,0.9999882391235373,0.0002767683237370946
1468.8832802521858,1468.8832802521858,0.9999357210843233,0.0002768831421638857
1468.8902247161654,1468.8902247161654,1.000143209303968,0.00027678567791412283
1468.8971691799584,1468.8971691799584,1.0000787870767158,0.0002767733098711036
1468.9041136440314,1468.9041136440314,1.0000500353679667,0.0002767946358328261
1468.9110581072655,1468.9110581072655,1.000265455872149,0.0002768196552126735
1468.9180025709652,1468.9180025709652,0.9997840233214529,0.00027682005514282997
1468.9249470342932,1468.9249470342932,0.9998586384230382,0.00027686978362491323
1468.9318914975272,1468.9318914975272,1.000680460700313,0.00027680873223534833
1468.9388359606687,1468.9388359606687,0.9999608494276011,0.0002766985328522567
1468.9457804236233,1468.9457804236233,0.9995072634073198,0.000276714282918584
1468.952724886485,1468.952724886485,0.9999356535098546,0.0002767574971262796
1468.9599471277086,1468.9599471277086,0.9998470137678945,0.00027691214200395805
1468.9680027043903,1468.9680027043903,0.9999809537745573,0.00027679829561950183
1468.9749471668795,1468.9749471668795,0.9998370844324824,0.0002769514739891372
1468.9818916291827,1468.9818916291827,1.0000176233892213,0.00027688167300855934
1468.9888360913924,1468.9888360913924,1.0000338825485253,0.00027685124089832727
1468.9957805534161,1468.9957805534161,1.0005052958364709,0.0002768299647197763
1469.0027250153466,1469.0027250153466,0.9997642585167806,0.0002767799966376744
1469.0096694771837,1469.0096694771837,0.999914340088982,0.00027671901741447663
1469.0166139388348,1469.0166139388348,1.000333853484467,0.0002768443530471255
1469.023558400579,1469.023558400579,0.9999478116023421,0.00027676700685143145
1469.030502861951,1469.030502861951,0.9998876605683048,0.0002768616630581187
1469.037447323323,1469.037447323323,1.0000212215743092,0.0002767657156151051
1469.0443917845082,1469.0443917845082,0.9999089414885578,0.00027680673377126667
1469.0513362456002,1469.0513362456002,0.9998512166030157,0.0002768100206833372
1469.0582807065066,1469.0582807065066,1.000126695879705,0.00027688425889388065
1469.0652251673193,1469.0652251673193,1.0001225644826282,0.0002767450377667887
1469.0721696280393,1469.0721696280393,0.9998520336938519,0.0002766802968585532
1469.0791140885729,1469.0791140885729,1.0002464069510641,0.00027680781963040647
1469.0860585490132,1469.0860585490132,1.0000411088870726,0.0002767886731820841
1469.0930030092672,1469.0930030092672,1.000186428696143,0.00027675161024941593
1469.0999474695216,1469.0999474695216,0.9996694159196251,0.00027671459662203764
1469.1068919295894,1469.1068919295894,1.0000440375188577,0.00027669262943015745
1469.1138363895643,1469.1138363895643,1.0001212437300915,0.0002768492672427376
1469.1207808493525,1469.1207808493525,0.9999713701909221,0.00027683293883948594
1469.127725309141,1469.127725309141,1.00044298100968,0.00027678702853251285
1469.13466976865,1469.13466976865,0.999840625714554,0.00027677015520661326
1469.141614228066,1469.141614228066,1.0001576743942286,0.00027677971319312966
1469.1485586874821,1469.1485586874821,0.9996369362081484,0.00027674291192324245
1469.1555031466185,1469.1555031466185,0.9998681314366544,0.0002767622599971993
1469.1624476056616,1469.1624476056616,0.9999705519507789,0.00027677528322351104
1469.1693920647053,1469.1693920647053,0.9998292643627591,0.0002767880768963049
1469.1763365233762,1469.1763365233762,1.0005062434660983,0.0002768061471370347
1469.1832809821403,1469.1832809821403,1.0000697059381412,0.00027678232468093876
1469.1902254407182,1469.1902254407182,0.9998386496549438,0.000276778813327447
1469.1971698992024,1469.1971698992024,0.9997443785002222,0.00027670074881338034
1469.2041143574077,1469.2041143574077,1.0002498530325814,0.0002768015166003857
1469.2110588156131,1469.2110588156131,0.9999961977321534,0.00027684064203050156
1469.218003273725,1469.218003273725,1.0001371105163477,0.00027681007591726016
1469.2249477315577,1469.2249477315577,0.999908377337243,0.0002767976999212808
1469.2318921894835,1469.2318921894835,1.0005214125720598,0.00027684176619993683
1469.23883664713,1469.23883664713,0.9995470537207162,0.00027682642495624276
1469.2457811046836,1469.2457811046836,0.9997556827579013,0.0002766904426671613
1469.2527255622367,1469.2527255622367,0.9999283665629598,0.0002768193403894424
1469.2596700195104,1469.2596700195104,0.9996722042353472,0.00027675153432097786
1469.2666144766908,1469.2666144766908,1.0000089679385156,0.00027681379617516014
1469.2735589337785,1469.2735589337785,1.0002267063960493,0.0002767224545561376
1469.2805033907737,1469.2805033907737,1.000075722863556,0.00027670153019984607
1469.2874478474885,1469.2874478474885,1.0003748570924336,0.00027674919401812824
1469.294392304204,1469.294392304204,1.0001630477991512,0.0002767019542224
1469.3013367609187,1469.3013367609187,1.000183886277421,0.0002767588723124524
1469.308281217261,1469.308281217261,0.9996663380550685,0.00027674454624632193
1469.3152256736041,1469.3152256736041,1.0000045625984308,0.00027675606555270515
1469.3221701298535,1469.3221701298535,0.9996740738087574,0.00027668514755280167
1469.3291145859164,1469.3291145859164,0.9998458168569014,0.00027676342763626913
1469.3360590418865,1469.3360590418865,1.0002679976694409,0.0002768131389278741
1469.3430034976702,1469.3430034976702,1.0004056397776548,0.0002768597862996984
1469.349947953361,1469.349947953361,0.9998994214699076,0.0002766913047735315
1469.3568924089586,1469.3568924089586,1.0000422664875246,0.0002768584382730213
1469.3638368644629,1469.3638368644629,0.9997328628722257,0.00027675595171147276
1469.3707813197811,1469.3707813197811,1.0001449993082479,0.0002767902887630269
1469.377725775006,1469.377725775006,0.9999622481618922,0.0002767613300826417
1469.3846702300448,1469.3846702300448,0.9998823552348624,0.00027672213959656697
1469.3916146849904,1469.3916146849904,1.0002414685961578,0.0002767717835825799
1469.398559139936,1469.398559139936,1.000067463166571,0.00027678421848651363
1469.4055035946021,1469.4055035946021,1.0005176249738752,0.0002767966529763337
1469.4124480492683,1469.4124480492683,0.9995747585097462,0.0002766155235871119
1469.419392503655,1469.419392503655,0.9998900177942126,0.0002767265061454507
1469.426336958042,1469.426336958042,1.000000628732185,0.0002767489465967187
1469.4332814122426,1469.4332814122426,1.0002703233295123,0.0002767931040020627
1469.44022586635,1469.44022586635,0.999867601600904,0.0002767665423562231
1469.4471703202712,1469.4471703202712,0.9999599965866846,0.000276759810973777
1469.4541147740988,1469.4541147740988,0.9998845339609715,0.0002767136585394859
1469.4610592279269,1469.4610592279269,1.0000724274269752,0.00027674353865316095
1469.468003681569,1469.468003681569,0.9999269250903815,0.0002767783593818654
1469.4749481350243,1469.4749481350243,1.0000509720223931,0.0002767185378171705
1469.4818925883865,1469.4818925883865,1.000112556395783,0.00027675705163528067
1469.4888370415626,1469.4888370415626,1.0000084863873595,0.0002767587110415069
1469.4957814947388,1469.4957814947388,0.9996125852784521,0.0002768080741960098
1469.5027259477288,1469.5027259477288,1.0005820959033969,0.0002769390680513229
1469.5096704006255,1469.5096704006255,1.0000487176667208,0.0002768104076468119
1469.5166148532426,1469.5166148532426,0.9997941075955517,0.00027674367262528585
1469.5235593058596,1469.5235593058596,0.9998810154589748,0.0002767718027622691
1469.530503758477,1469.530503758477,0.9997026878506088,0.0002767438382898283
1469.537448210815,1469.537448210815,0.9998399458948452,0.0002767689492467781
1469.54439266306,1469.54439266306,1.0002476226103594,0.000276835722317789
1469.5513371151183,1469.5513371151183,1.0001459630974323,0.00027675531728020753
1469.5582815671767,1469.5582815671767,0.9998236569634195,0.00027677893330441854
1469.565226019142,1469.565226019142,1.000263598705798,0.00027679811038211456
1469.572170470828,1469.572170470828,1.0003093521290882,0.00027677417799509314
1469.579114922514,1469.579114922514,1.0005462370703044,0.00027687711977146724
1469.5860593739205,1469.5860593739205,0.9995476872205336,0.00027670921881198067
1469.5930038254205,1469.5930038254205,0.9999219625717186,0.0002767631185006392
1469.5999482766406,1469.5999482766406,1.000134167780898,0.0002767913042216419
1469.606892727768,1469.606892727768,0.9999597529433448,0.0002767706566449135
1469.6138371788952,1469.6138371788952,0.9995420086892783,0.00027671831549243693
1469.6207816297429,1469.6207816297429,0.999961284502891,0.00027674012956200325
1469.6277260804977,1469.6277260804977,1.0005390207808564,0.0002768628567896242
1469.634670531159,1469.634670531159,1.0000124668086063,0.00027690399918834914
1469.6416149816341,1469.6416149816341,0.9998441194682574,0.00027680721471774847
1469.6485594321096,1469.6485594321096,1.0004992237715735,0.0002767593201854877
1469.6555038823985,1469.6555038823985,0.9999217259972498,0.0002767942998149279
1469.6624483325943,1469.6624483325943,1.0005931091997886,0.00027688554699803296
1469.669392782604,1469.669392782604,0.9995716350245882,0.0002767775693444321
1469.6763372326134,1469.6763372326134,1.0000615848633674,0.0002768040687962019
1469.6832816823437,1469.6832816823437,0.9997534133224153,0.0002767802871673527
1469.690226132074,1469.690226132074,0.999912819683576,0.000276720424383505
1469.697170581525,1469.697170581525,1.0001249636169256,0.0002768669645611326
1469.7041150310686,1469.7041150310686,1.0001006988970311,0.0002767865560039592
1469.7110594802396,1469.7110594802396,0.9998870575689806,0.00027678428928281415
1469.7180039295042,1469.7180039295042,1.000215152437217,0.0002768382056763802
1469.7249483785827,1469.7249483785827,1.0000804302827937,0.0002768323057774131
1469.731892827475,1469.731892827475,1.0000895176819742,0.00027686854478210495
1469.738837276367,1469.738837276367,1.0000338567921752,0.0002767513954959791
1469.7457817249792,1469.7457817249792,0.9996330397282351,0.00027671675796043897
1469.7527261735918,1469.7527261735918,0.9999872181188454,0.00027685404015076156
1469.7596706220186,1469.7596706220186,0.9999197566851287,0.000276755914588857
1469.7666150704447,1469.7666150704447,1.0002514162791698,0.00027682021204552415
1469.7735595185916,1469.7735595185916,1.0000750705104746,0.00027681054448117824
1469.7805039667385,1469.7805039667385,1.0000048183091559,0.00027675082631729896
1469.787448414606,1469.787448414606,1.0004210204763566,0.0002768589490056054
1469.7943928625666,1469.7943928625666,1.0000938427872197,0.0002768195292984797
1469.801337310155,1469.801337310155,1.000457636629327,0.00027684340278264885
1469.8082817579295,1469.8082817579295,0.9994841056779175,0.00027673440539028145
1469.8152262053313,1469.8152262053313,0.9996704347955628,0.00027675881529444306
1469.8221706527331,1469.8221706527331,0.9996347109254182,0.0002767416394709855
1469.8291150999485,1469.8291150999485,1.0002494417447967,0.0002767818250362814
1469.836059547071,1469.836059547071,0.9999642475739524,0.00027676616518691234
1469.8430039940074,1469.8430039940074,1.0007636715474564,0.00027695078234708326
1469.8499484408508,1469.8499484408508,0.9997791579671877,0.0002767834566294453
1469.8568928876007,1469.8568928876007,1.0001810716316457,0.0002767864752342889
1469.863837334257,1469.863837334257,0.9998483420219657,0.00027673304543421675
1469.8707817807278,1469.8707817807278,0.9999873475684005,0.00027679175503737255
1469.8777262271983,1469.8777262271983,1.00030354288209,0.00027689158404370557
1469.8846706733898,1469.8846706733898,0.9998785955968039,0.0002767347128110012
1469.8916151195808,1469.8916151195808,0.9994155424780681,0.0002767695728562613
1469.8985595655856,1469.8985595655856,1.0000748251619815,0.0002768279263379842
1469.9055040114972,1469.9055040114972,0.999828535690163,0.00027680029264070773
1469.912448457223,1469.912448457223,0.999967652410783,0.00027680434477228024
1469.9193929029484,1469.9193929029484,0.9999981609832853,0.0002768139939632783
1469.9263373483948,1469.9263373483948,1.0001934903397223,0.00027683764969552236
1469.933281793934,1469.933281793934,1.0002005502345666,0.0002767960892032438
1469.9402262390074,1469.9402262390074,0.9998068177445087,0.0002767953448135949
1469.9471706845466,1469.9471706845466,1.0001300942049256,0.0002767721412438328
1469.9541151294338,1469.9541151294338,0.9999631895572454,0.0002767528266498258
1469.961059574228,1469.961059574228,1.0001134984707312,0.00027685165045010464
1469.9680040192088,1469.9680040192088,0.9999540730719051,0.00027677902837163637
1469.9749484638164,1469.9749484638164,0.9996985864720191,0.0002767177770067922
1469.9818929083315,1469.9818929083315,1.0004746208979316,0.0002769686491716352
1469.988837352846,1469.988837352846,0.9999743295379682,0.0002766999630711191
1469.9957817970812,1469.9957817970812,0.9995541973568061,0.0002767457274489287
1470.0027262413173,1470.0027262413173,1.0004665996929405,0.0002768287393585228
1470.0096706854592,1470.0096706854592,0.9998240731817034,0.0002767489146106155
1470.0166151293222,1470.0166151293222,1.0000632337837103,0.00027679740990525466
1470.0235595732777,1470.0235595732777,1.0000352443190181,0.0002768126101432789
1470.0305040169544,1470.0305040169544,0.9998582018157972,0.00027678478597916784
1470.0374484605381,1470.0374484605381,0.9997478904092472,0.0002767866238230176
1470.0443929041217,1470.0443929041217,0.9999420229504613,0.0002767319382952965
