time,time,flux,flux_err
1570.683824731924,1570.683824731924,1.0005957666051322,0.0012971014398310487
1570.6921582890934,1570.6921582890934,0.9994087808469363,0.0012922235397205182
1570.7004918463406,1570.7004918463406,0.9991077834821143,0.001286465637892918
1570.708130940566,1570.708130940566,0.9986934754050887,0.0011700637884749026
1570.7150755717525,1570.7150755717525,0.9993523438730252,0.001166030780647363
1570.7220202028461,1570.7220202028461,0.9997193526971525,0.0011621077746398552
1570.7289648340325,1570.7289648340325,0.9993961997005061,0.0011584509760260747
1570.7359094654057,1570.7359094654057,0.9995678581720036,0.0011545427436168583
1570.7428540966866,1570.7428540966866,1.001075753151355,0.0011502172428634195
1570.7497987279662,1570.7497987279662,0.9990842379294019,0.0011456007415041446
1570.7567433594327,1570.7567433594327,0.9990437591711139,0.001141168909216532
1570.763687990805,1570.763687990805,0.9992886619100988,0.0011367175841270193
1570.770632622271,1570.770632622271,1.0013081047145367,0.0011338687558891047
1570.7775772537384,1570.7775772537384,1.0008665702771908,0.0011300244568630212
1570.7845218852974,1570.7845218852974,1.000678559917624,0.001126530040287692
1570.7914665168566,1570.7914665168566,1.0006130373791908,0.0011244214596416158
1570.7984111485089,1570.7984111485089,0.9983861091267165,0.001120787102886881
1570.8053557800679,1570.8053557800679,0.9992123191366445,0.0011185120444539651
1570.8123004117217,1570.8123004117217,0.9995102736718424,0.001115749114173507
1570.819245043467,1570.819245043467,1.0009500922979118,0.0011133279176855574
1570.826189675212,1570.826189675212,0.9989043297077538,0.001110628406074832
1570.8331343068644,1570.8331343068644,0.9986070364462512,0.0011084088385548427
1570.8400789387028,1570.8400789387028,0.999789332424937,0.0011053255132876527
1570.8470235705427,1570.8470235705427,1.0001038015416075,0.0011028734676156219
1570.8539682022881,1570.8539682022881,1.0002165383688804,0.0011020284751660466
1570.8609128342196,1570.8609128342196,1.0002960753385834,0.0010995437855391005
1570.8678574661512,1570.8678574661512,1.0019435293937105,0.0010983135935247117
1570.874802098083,1570.874802098083,0.9993160617857934,0.0010956900847432696
1570.8828578711061,1570.8828578711061,0.9997141728644955,0.0010942770728596828
1570.890080288427,1570.890080288427,0.9988123060520874,0.0010925960438921915
1570.8970249204517,1570.8970249204517,0.9997689132948373,0.0010910050067883198
1570.9039695523832,1570.9039695523832,1.0000945075814638,0.0010889123631212967
1570.9109141845015,1570.9109141845015,0.9993957770590214,0.0010869582421879655
1570.9178588167138,1570.9178588167138,1.000314444346737,0.0010849816234047975
1570.9248034486452,1570.9248034486452,1.0006991597590567,0.0010831787926926365
1570.9317480808563,1570.9317480808563,1.0011466235064703,0.0010806894650436567
1570.938692712974,1570.938692712974,1.0003904334088964,0.0010784998996764212
1570.9456373451853,1570.9456373451853,1.0001670220485734,0.0010765473902336895
1570.9525819773044,1570.9525819773044,1.0001527141533155,0.001074797478165165
1570.9595266097017,1570.9595266097017,1.0002509578336087,0.0010729278553821494
1570.9664712417264,1570.9664712417264,0.9991479304729893,0.0010702925067798696
1570.973415874031,1570.973415874031,0.9995453000072301,0.00106836233187398
1570.9803605064283,1570.9803605064283,1.0004424744028333,0.0010671500297148866
1570.9873051388263,1570.9873051388263,1.0006582678776315,0.0010639287004619296
1570.9942497708514,1570.9942497708514,1.0004487160424667,0.0010622582402801382
1571.0011944031553,1571.0011944031553,0.9988344641185215,0.001059521274754675
1571.0081390355529,1571.0081390355529,1.000008048655956,0.001057965108103681
1571.0150836679502,1571.0150836679502,0.999802603723599,0.0010560771177198567
1571.0220283003484,1571.0220283003484,1.0008004265851553,0.001053190567176994
1571.0289729327462,1571.0289729327462,1.0006290878145767,0.0010518030254839266
1571.0359175651433,1571.0359175651433,1.0004943320448998,0.0010487552352500778
1571.0428621975402,1571.0428621975402,1.0008890667469443,0.0010462999415060611
1571.0498068299378,1571.0498068299378,1.0003575937213816,0.0010440588483610627
1571.056751462336,1571.056751462336,0.9991092703498261,0.0010414210593460574
1571.063696095013,1571.063696095013,0.9985380778860657,0.001038842753225148
1571.0706407275968,1571.0706407275968,0.9991024214284068,0.0010364698249362573
1571.0775853599941,1571.0775853599941,1.0003117260601109,0.0010348350331457665
1571.0845299923913,1571.0845299923913,0.9997613456896042,0.0010319979764921454
1571.0914746247893,1571.0914746247893,1.0023005826459073,0.001031367222576706
1571.098419257653,1571.098419257653,1.0001579775923115,0.0010284384646297652
1571.10536389005,1571.10536389005,1.0014171976822983,0.0010258092573936612
1571.1123085224476,1571.1123085224476,0.9993957347659524,0.0010239510416773301
1571.119253155124,1571.119253155124,1.0003703682460423,0.001021721840779003
1571.126197787708,1571.126197787708,0.9993438936495297,0.0010202206502039585
1571.1331424201062,1571.1331424201062,1.0004588385048792,0.0010189142519356708
1571.1400870529692,1571.1400870529692,0.9991128430203439,0.00101717750824719
1571.147031685367,1571.147031685367,0.9999392902869133,0.0010157305836455935
1571.1539763179503,1571.1539763179503,1.0001703044831518,0.00101401697923913
1571.160920950627,1571.160920950627,1.000865713979401,0.001013118676650548
1571.1678655831183,1571.1678655831183,0.9992846943759922,0.0010113989517347506
1571.1748102158886,1571.1748102158886,0.9986525203143299,0.001009558010748022
1571.1817548483791,1571.1817548483791,0.9983763098978296,0.0010081337504707708
1571.1886994811487,1571.1886994811487,0.999273114701517,0.0010073652209050422
1571.1956441136392,1571.1956441136392,1.0020939236372741,0.0010067810245495635
1571.2025887464101,1571.2025887464101,0.999201235794574,0.0010044494037887625
1571.2095333789007,1571.2095333789007,1.001697380038897,0.001004650547481855
1571.2164780116707,1571.2164780116707,1.0006610582530913,0.0010034345892284276
1571.223422644161,1571.223422644161,1.0001007438197405,0.0010017717780614287
1571.2303672769306,1571.2303672769306,0.9995880783629424,0.00100081362350936
1571.237311909515,1571.237311909515,0.9999090507829539,0.0009995640887294132
1571.2442565421923,1571.2442565421923,0.9994778616336244,0.0009987581826353617
1571.251201174869,1571.251201174869,0.9989008127052286,0.000997523281804556
1571.2581458074526,1571.2581458074526,1.001370869188074,0.0009968654736545201
1571.2650904402221,1571.2650904402221,0.9991951703715033,0.0009967926095325963
1571.272035072713,1571.272035072713,0.9996985476280157,0.0009950673665016622
1571.278979705577,1571.278979705577,1.0011522068057825,0.000994445898615307
1571.2859243380674,1571.2859243380674,0.9987573013041293,0.000992410694852013
1571.2928689708374,1571.2928689708374,1.0002718500509729,0.0009914444256883712
1571.2998136034207,1571.2998136034207,0.9994876142643296,0.0009907885372720986
1571.3067582360977,1571.3067582360977,0.9994293551841874,0.0009892777686957646
1571.313702868775,1571.313702868775,1.0003112424840355,0.0009878092911337173
1571.320647501359,1571.320647501359,0.9998424922598625,0.00098566148405831
1571.3275921341292,1571.3275921341292,1.000070743024017,0.0009844417999984982
1571.3345367666195,1571.3345367666195,1.0009123809237013,0.0009843361225753517
1571.3414813994825,1571.3414813994825,0.9996745244116625,0.0009817775083955037
1571.3484260318799,1571.3484260318799,1.0011810384525464,0.0009807709049162
1571.355370664744,1571.355370664744,0.9979508022013379,0.0009786111515524035
1571.3623152971413,1571.3623152971413,0.9987333969975735,0.0009771214447277664
1571.3692599300043,1571.3692599300043,0.9999341935544036,0.0009764550237352702
1571.3762045624014,1571.3762045624014,1.0010747021515525,0.0009747025065966556
1571.3831491952647,1571.3831491952647,1.000278217146336,0.0009734202928385475
1571.3900938276624,1571.3900938276624,0.9989384265738881,0.0009714474237462556
1571.3970384604331,1571.3970384604331,1.00059280730433,0.0009705965288448705
1571.4039830929237,1571.4039830929237,1.0007516726138537,0.0009699900131767301
1571.4109277255998,1571.4109277255998,0.9999246951834067,0.0009686428202478564
1571.4178723581836,1571.4178723581836,1.0006672977732236,0.0009685853327718784
1571.4248169906741,1571.4248169906741,0.9989765735184184,0.0009669912233007114
1571.431761623445,1571.431761623445,1.0010156565025816,0.0009666936757523166
1571.4387062558426,1571.4387062558426,1.0003103155677586,0.0009666178664145825
1571.4456508884257,1571.4456508884257,0.9989315937403027,0.0009649613161383689
1571.4525955211027,1571.4525955211027,1.0001612179823993,0.000964423089567131
1571.4595401535003,1571.4595401535003,0.9993798210309564,0.0009638723992489989
1571.4664847859908,1571.4664847859908,0.998473281459695,0.0009636983458080594
1571.4734294187615,1571.4734294187615,0.9996768694230418,0.0009633532726635643
1571.4803740511588,1571.4803740511588,1.0013406795299489,0.0009635401634268792
1571.4873186835562,1571.4873186835562,1.0003792917130574,0.000963038552091753
1571.4942633160467,1571.4942633160467,1.0010344976745884,0.0009625247024056134
1571.5012079488167,1571.5012079488167,0.998576962681493,0.0009623788811360662
1571.5081525812152,1571.5081525812152,1.0009222586471416,0.0009628412714716512
1571.5150972136125,1571.5150972136125,0.9996210495391953,0.000961489667218241
1571.5220418460096,1571.5220418460096,1.0002125615647999,0.0009618132139565854
1571.5289864784068,1571.5289864784068,0.999863806089661,0.0009610883311892877
1571.5359311108043,1571.5359311108043,1.0004762308209272,0.0009608343168401295
1571.5428757432023,1571.5428757432023,0.9995783902794635,0.0009610597189390736
1571.5498203756001,1571.5498203756001,1.000134461895071,0.0009602178921092805
1571.5567650079972,1571.5567650079972,0.9981937767196334,0.0009600306906442882
1571.5637096403948,1571.5637096403948,1.0015596541360776,0.0009609467194220793
1571.570654272792,1571.570654272792,0.9991169662635884,0.0009596728748103413
1571.577598905189,1571.577598905189,1.0005650151210417,0.0009606680909102214
1571.584543537588,1571.584543537588,0.9997283523931119,0.0009597174945529075
1571.5914881699848,1571.5914881699848,1.000794348302517,0.0009593568064002464
1571.5984328023824,1571.5984328023824,1.0009852520631664,0.0009596260135304764
1571.6053774347797,1571.6053774347797,0.998892585017602,0.0009586351377974453
1571.6123220668974,1571.6123220668974,1.0000077379396903,0.0009588997173760478
1571.6192666991092,1571.6192666991092,1.0000992463452567,0.0009592135523231205
1571.6262113315074,1571.6262113315074,0.9991851504539303,0.0009589104436059735
1571.6331559638115,1571.6331559638115,0.9999571625346491,0.0009586412030078833
1571.6401005958364,1571.6401005958364,1.000348063113711,0.0009588881707924917
1571.6470452282333,1571.6470452282333,1.0004548996136398,0.0009593287606920858
1571.6539898603514,1571.6539898603514,1.0003782205917242,0.0009587147323697089
1571.6609344925632,1571.6609344925632,1.0010049684573954,0.0009584382036737437
1571.6678791247748,1571.6678791247748,0.9982559969635979,0.0009574565366657047
1571.6748237568927,1571.6748237568927,0.9990719732890211,0.0009571604405741978
1571.6817683890108,1571.6817683890108,1.0009967310068866,0.0009576945071088831
1571.6887130212212,1571.6887130212212,1.0013143021476216,0.0009575361394919227
1571.6956576531531,1571.6956576531531,0.9986734326488624,0.0009565012614977502
1571.7026022853656,1571.7026022853656,1.000767808918551,0.0009571159829327675
1571.7095469174833,1571.7095469174833,0.9992975535817704,0.0009564030514826571
1571.7164915494152,1571.7164915494152,0.9987368088513691,0.0009548897581473778
1571.7234361814396,1571.7234361814396,1.001566557366845,0.0009549755248440186
1571.7303808135575,1571.7303808135575,0.9986992669425035,0.0009535504599663463
1571.73732544549,1571.73732544549,1.0013342959384484,0.0009537790936134435
1571.7442700775155,1571.7442700775155,0.9999724266580087,0.0009536380058471274
1571.7512147094471,1571.7512147094471,0.9998413975532682,0.0009525019947445713
1571.7581593413788,1571.7581593413788,1.0013643746405299,0.0009518492148032039
1571.7651039733103,1571.7651039733103,1.0020646296105973,0.0009514294433084587
1571.772048605149,1571.772048605149,0.9989012890101545,0.0009506301260632278
1571.778993237081,1571.778993237081,0.9993995430016847,0.0009491887965297645
1571.7859378689204,1571.7859378689204,1.0003669949253302,0.0009491295549105315
1571.7928825007589,1571.7928825007589,0.9987823788654643,0.0009487275073917044
1571.7998271325973,1571.7998271325973,0.9986815821950167,0.0009480328951868558
1571.806771764343,1571.806771764343,1.0007741739798965,0.0009483455301587309
1571.813716396181,1571.813716396181,1.0011819547536283,0.0009479081098629925
1571.8206610279271,1571.8206610279271,1.0006174658706024,0.0009477111557569761
1571.8276056596733,1571.8276056596733,1.0000980344579957,0.0009468197568502767
1571.8345502914185,1571.8345502914185,0.9984269271538764,0.0009463548054403153
1571.841494923071,1571.841494923071,0.9994438506945171,0.0009466372783618103
1571.848439554723,1571.848439554723,1.0002884353400021,0.0009460502839885341
1571.8553841863752,1571.8553841863752,1.0005721813710575,0.0009457270034842428
1571.8623288179356,1571.8623288179356,0.9994785901141313,0.0009446654238537576
1571.8692734495878,1571.8692734495878,1.00113648717078,0.000944463291138855
1571.87621808124,1571.87621808124,0.9993266119286772,0.0009448374492318492
1571.8831627127063,1571.8831627127063,1.0002018808301756,0.0009440765381015664
1571.890107344265,1571.890107344265,0.9999563612102159,0.0009436923319626036
1571.8970519757313,1571.8970519757313,1.0000380282529429,0.0009431237673096871
1571.9039966072912,1571.9039966072912,0.9989616614319029,0.0009429608761606018
1571.9109412387575,1571.9109412387575,0.9995923103225417,0.0009434719211562
1571.917885870224,1571.917885870224,1.0004351040076358,0.0009435095407064964
1571.9248305015965,1571.9248305015965,1.0017524205231005,0.000943784230733728
1571.9317751329693,1571.9317751329693,1.0007333164798973,0.0009437760184181703
1571.9387197643423,1571.9387197643423,0.9999385565151007,0.0009428127451337667
1571.9456643956225,1571.9456643956225,0.9989931802787273,0.0009430473554720211
1571.9526090270892,1571.9526090270892,0.9994783709303856,0.0009433522923312185
1571.959553658276,1571.959553658276,0.9995402550373889,0.000942767519655887
1571.9664982895554,1571.9664982895554,1.0002805703925124,0.000943289383136974
1571.973442920742,1571.973442920742,0.9994104421194094,0.0009428374719866641
1571.9803875520215,1571.9803875520215,1.0012145571853721,0.0009436452210657498
1571.9873321832092,1571.9873321832092,1.0007089188467115,0.0009428871809627779
1571.9942768143962,1571.9942768143962,0.9994893918815043,0.0009423450513950223
1572.0012214454896,1572.0012214454896,1.0003038409207439,0.0009423190236321242
1572.0081660766762,1572.0081660766762,0.9981530374408021,0.0009413090825550243
1572.0151107076765,1572.0151107076765,1.000808506155241,0.0009420205766090132
1572.0220553387699,1572.0220553387699,0.9996535626479746,0.0009415433631925431
1572.0289999697711,1572.0289999697711,0.9995535094805754,0.0009406853559688771
1572.0359446007717,1572.0359446007717,1.0010063221085583,0.0009409059903167157
1572.042889231772,1572.042889231772,0.9993753880326205,0.00094049495936928
1572.0498338627726,1572.0498338627726,1.0016669355847985,0.0009404048528619082
1572.0567784935865,1572.0567784935865,1.0004415009547163,0.0009402684266940494
1572.0637231245869,1572.0637231245869,1.0002924934212776,0.000940308400213709
1572.0706677554015,1572.0706677554015,1.000851753793794,0.0009396587441023388
1572.0776123863093,1572.0776123863093,1.0001911029951003,0.0009397670616723463
1572.0845570170304,1572.0845570170304,0.9996393708574309,0.0009388223359775783
1572.0915016478443,1572.0915016478443,0.9999039607635403,0.0009384654947973232
1572.0984462785652,1572.0984462785652,0.9981678881441972,0.0009384300696323176
1572.1053909093794,1572.1053909093794,1.0001775902337158,0.000938172765612298
1572.1123355400077,1572.1123355400077,0.9986093334407027,0.0009378055835643492
1572.1192801706363,1572.1192801706363,1.0004865308163022,0.0009383568045498609
1572.1262248013572,1572.1262248013572,1.0019840097396444,0.000938592648855845
1572.1331694318915,1572.1331694318915,1.0001885868483087,0.0009374539456406969
1572.1401140625194,1572.1401140625194,1.0005047432235399,0.0009371798323577091
1572.147058693054,1572.147058693054,0.9985056744358968,0.0009359690535191263
1572.1540033235892,1572.1540033235892,1.0002276413790816,0.0009367752730884658
1572.1609479540316,1572.1609479540316,1.0004085666808122,0.0009358102443309771
1572.167892584473,1572.167892584473,0.9995001494581259,0.0009354582779995251
1572.1748372150075,1572.1748372150075,0.9997218595157197,0.0009358008883661057
1572.1817818453565,1572.1817818453565,0.9995590174474642,0.0009352287596145828
1572.1887264756115,1572.1887264756115,0.9994171728701922,0.0009348485040902839
1572.1956711061462,1572.1956711061462,1.0020473771575615,0.0009354340922804619
1572.2026157362163,1572.2026157362163,1.000643208881836,0.0009352428123771655
1572.2095603667508,1572.2095603667508,0.9986862582963372,0.0009347335313387882
1572.2165049968203,1572.2165049968203,1.0000017246825426,0.0009346469115159245
1572.2234496269823,1572.2234496269823,1.0009284748997853,0.0009359056524051443
1572.2303942574238,1572.2303942574238,0.999471151907167,0.0009345846171449004
1572.2373388874923,1572.2373388874923,1.0001741112205955,0.0009352031701686282
1572.2442835175625,1572.2442835175625,1.000444682869834,0.0009344584215850123
1572.2512281476322,1572.2512281476322,0.9982491221813966,0.0009340291033964892
1572.2581727777008,1572.2581727777008,0.9995834805574176,0.0009338490047990035
1572.2651174077698,1572.2651174077698,1.0003033072630334,0.0009339749947738084
1572.272062037839,1572.272062037839,1.000461472211486,0.0009339526412848199
1572.2790066675354,1572.2790066675354,1.0014248232115253,0.0009336064119703691
1572.285951297512,1572.285951297512,1.0002854022923753,0.0009334459284014345
1572.2928959275814,1572.2928959275814,0.9986539628771827,0.0009327034693051376
1572.2998405571848,1572.2998405571848,1.0009850290491946,0.0009331715191855346
1572.3067851872538,1572.3067851872538,0.999880282034872,0.0009318771754762295
1572.3137298168572,1572.3137298168572,1.000051425980902,0.0009322292181493464
1572.32067444674,1572.32067444674,0.9995239774530275,0.0009320950602976864
1572.3276190764366,1572.3276190764366,0.9977568768660939,0.0009307388772981856
1572.3345637061338,1572.3345637061338,1.0003758732280223,0.0009313163350348361
1572.3415083357374,1572.3415083357374,1.0002492005895185,0.0009315619534424234
1572.3484529654343,1572.3484529654343,1.0016456234048086,0.0009310547458225467
1572.3553975950372,1572.3553975950372,1.0013664960421076,0.000930578135834867
1572.3623422245475,1572.3623422245475,0.9991093406288544,0.0009294825637960601
1572.3692868540575,1572.3692868540575,0.9995455036388909,0.0009297483002812031
1572.3762314835687,1572.3762314835687,0.999570185775343,0.0009288708162594895
1572.3831761130796,1572.3831761130796,0.9997879084605392,0.0009284054387082985
1572.3901207424033,1572.3901207424033,0.9975366415155303,0.0009277065090496518
1572.3970653718202,1572.3970653718202,1.0010786304966088,0.0009287714923275622
1572.4040100012373,1572.4040100012373,1.0012208846377018,0.0009278963881513122
1572.4109546305613,1572.4109546305613,1.0004432113496446,0.0009274010228415301
1572.4178992597922,1572.4178992597922,1.0009752139350383,0.0009271231578711415
1572.424843889024,1572.424843889024,0.9995597845151638,0.0009265580764201
1572.431788518255,1572.431788518255,0.9997973632787216,0.0009263827755704582
1572.4387331473924,1572.4387331473924,0.9997285638631114,0.0009261223139328345
1572.4456777765304,1572.4456777765304,0.999033336319225,0.0009257088366730768
1572.452622405668,1572.452622405668,0.9999844680094526,0.0009258768841713764
