time,time,flux,flux_err
1325.2981153988878,1325.2981153988878,1.0000953616140316,0.00011514870628884717
1325.3064487011827,1325.3064487011827,0.9998095577735292,0.00011514275595956959
1325.3140875619044,1325.3140875619044,1.0000592470556178,0.00010513272482191903
1325.321031981014,1325.321031981014,1.000046788984935,0.00010513370064905283
1325.3279764003096,1325.3279764003096,1.0000987386366156,0.0001051438942450162
1325.3349208198615,1325.3349208198615,0.9997717824524033,0.0001051350599662693
1325.3418652396463,1325.3418652396463,1.0001065441079826,0.00010515360619086438
1325.3488096596404,1325.3488096596404,0.999988258534399,0.00010516014371310335
1325.3557540798442,1325.3557540798442,1.0001168054623835,0.00010517089687938928
1325.3626985002807,1325.3626985002807,0.9999413780580158,0.00010517916085889083
1325.3696429209504,1325.3696429209504,1.0000305866718702,0.00010518179132851337
1325.3765873418058,1325.3765873418058,1.0000265695227708,0.00010519908284949474
1325.3835317628948,1325.3835317628948,1.000058097260539,0.00010520266018242763
1325.3904761841693,1325.3904761841693,1.000038119503476,0.00010521808164215931
1325.3974206056532,1325.3974206056532,0.9998670090358358,0.00010521892800359034
1325.404365027371,1325.404365027371,0.9998833842271276,0.0001052236848668423
1325.4113094492739,1325.4113094492739,0.9999811065900749,0.00010524217038026592
1325.4182538713874,1325.4182538713874,1.0001190829514557,0.0001052520609004746
1325.4251982937099,1325.4251982937099,1.0001067697067956,0.00010526299054824633
1325.4321427161951,1325.4321427161951,1.000023423542277,0.00010526806479316017
1325.4390871388905,1325.4390871388905,0.9999818694245961,0.00010526499032915005
1325.4460315617948,1325.4460315617948,1.0000032777302619,0.00010528209575790875
1325.4529759848624,1325.4529759848624,0.999778549914635,0.00010527330197107538
1325.4599204081394,1325.4599204081394,0.9998575815029109,0.00010528125544707946
1325.4668648316026,1325.4668648316026,1.0001594139502517,0.00010530399248353262
1325.4738092552295,1325.4738092552295,1.0000941298381167,0.00010530692749054415
1325.4807536790884,1325.4807536790884,1.0000839883228418,0.00010532248331350419
1325.4876981030643,1325.4876981030643,0.9999251181276521,0.00010531722350461069
1325.4946425272497,1325.4946425272497,1.000139917958316,0.00010533800600307552
1325.5015869515742,1325.5015869515742,0.9999784728633356,0.00010533472550764591
1325.5085313761554,1325.5085313761554,0.9999537986592383,0.00010534176530613928
1325.5154758008525,1325.5154758008525,1.0000891944533166,0.00010535999436693312
1325.5224202257598,1325.5224202257598,0.9999262297048943,0.0001053545519918483
1325.529364650806,1325.529364650806,0.9997770765894268,0.00010536217596621875
1325.5363090759927,1325.5363090759927,1.0000285361595975,0.00010538238911078545
1325.5432535013886,1325.5432535013886,0.9999254067928565,0.00010538430704557284
1325.5501979268774,1325.5501979268774,1.0000223135508812,0.00010539707626980772
1325.557142352646,1325.557142352646,1.0000529708791626,0.0001053999003821301
1325.5640867785075,1325.5640867785075,1.0002768198565117,0.00010542472912944208
1325.5710312045321,1325.5710312045321,1.0000267707359185,0.00010541875971879966
1325.5779756306968,1325.5779756306968,0.9999519531139412,0.00010542286159598165
1325.584920057047,1325.584920057047,1.0000549599044382,0.00010543265634256143
1325.591864483537,1325.591864483537,0.9999794270718484,0.0001054327234506435
1325.598808910167,1325.598808910167,0.9998945467764212,0.0001054323014972696
1325.6057533369597,1325.6057533369597,1.0000261892044375,0.00010544536453682249
1325.6126977639155,1325.6126977639155,0.999998761394089,0.00010544325302573132
1325.6196421910113,1325.6196421910113,1.0000768291068318,0.00010544932229391904
1325.6265866182232,1325.6265866182232,1.000121162892111,0.00010545668260583953
1325.6335310455981,1325.6335310455981,0.9999536510239352,0.00010545227834548008
1325.6404754731363,1325.6404754731363,0.9999165758271523,0.00010545433024837384
1325.6474199007903,1325.6474199007903,0.9998861539692987,0.00010545244925186743
1325.6543643285845,1325.6543643285845,1.0000515117486894,0.00010546293252246246
1325.6613087564947,1325.6613087564947,0.999992081152843,0.00010546391772884706
1325.668253184592,1325.668253184592,1.0000171559118047,0.00010546060167437601
1325.6751976127814,1325.6751976127814,1.000040426721665,0.00010546509337100473
1325.6821420411347,1325.6821420411347,1.0000367900570393,0.0001054597154564989
1325.6890864696038,1325.6890864696038,1.0001016485031031,0.00010547150221008848
1325.6960308981893,1325.6960308981893,0.9998613596170502,0.00010546422767700314
1325.702975326915,1325.702975326915,0.9999258575757237,0.00010546264817664964
1325.7099197557568,1325.7099197557568,1.0001645232525893,0.00010548028112755514
1325.7168641847381,1325.7168641847381,0.9997785153624177,0.00010546891673917807
1325.7238086138127,1325.7238086138127,1.000031198624962,0.00010547885484998235
1325.7307530430735,1325.7307530430735,1.0001953556512613,0.00010548977044048278
1325.7376974724277,1325.7376974724277,1.0000039224344017,0.00010548953136883319
1325.7446419018747,1325.7446419018747,0.9997134402433228,0.00010547591078725462
1325.7515863314616,1325.7515863314616,1.0000528209880049,0.00010549044908199671
1325.758530761165,1325.758530761165,1.0000496975857462,0.00010550100057435967
1325.7654751909843,1325.7654751909843,1.0000276915970168,0.0001055064697176705
1325.7724196208976,1325.7724196208976,1.0000436873978624,0.00010550480112274816
1325.7793640509262,1325.7793640509262,1.0001127536641108,0.00010550972868788729
1325.7863084811192,1325.7863084811192,0.9999590063915658,0.0001055160231287774
1325.7932529113577,1325.7932529113577,1.0000765999254086,0.00010552298099623415
1325.8001973417595,1325.8001973417595,0.9998968779658931,0.0001055153701237826
1325.8071417722313,1325.8071417722313,1.0000352003590984,0.00010551928554462693
1325.8140862028188,1325.8140862028188,0.9999261999500971,0.00010552201419844573
1325.8210306335236,1325.8210306335236,1.0000996438424483,0.00010552625650597958
1325.8279750643674,1325.8279750643674,0.9998073878770418,0.0001055206394677089
1325.834919495235,1325.834919495235,1.0000064135551567,0.00010553669344425096
1325.8418639262425,1325.8418639262425,0.9999970079333741,0.00010553808459754793
1325.8488083573423,1325.8488083573423,1.0000682453363643,0.00010554258993638457
1325.8557527885823,1325.8557527885823,1.0001711789818128,0.00010554137189486482
1325.8626972198688,1325.8626972198688,0.9999804384856518,0.00010553286934383587
1325.8696416513185,1325.8696416513185,0.9997906903065426,0.0001055182452259605
1325.8765860827912,1325.8765860827912,1.0002001633228872,0.00010552822654816946
1325.8835305143803,1325.8835305143803,0.9999058543244722,0.00010550569393363843
1325.8904749460862,1325.8904749460862,0.9999552631228223,0.00010550625469076299
1325.8974193778613,1325.8974193778613,0.999933938452949,0.00010550291449513952
1325.9043638097532,1325.9043638097532,1.0000960539192534,0.00010550764510041698
1325.9113082417614,1325.9113082417614,0.9999865059929839,0.00010549868889694453
1325.918252673793,1325.918252673793,1.0001561839746247,0.00010549596809576668
1325.9251971059414,1325.9251971059414,0.9999839425709652,0.00010549785521851666
1325.9321415381823,1325.9321415381823,0.999883820199375,0.00010548963906828908
1325.9390859705168,1325.9390859705168,0.999969443705352,0.0001054942918932051
1325.9460304029208,1325.9460304029208,0.9999393449975464,0.000105490521112244
1325.9529748354646,1325.9529748354646,1.0001983253599902,0.00010550240238958654
1325.9604748226875,1325.9604748226875,1.000000108221301,0.0001054911207895011
1325.9682525872377,1325.9682525872377,0.9998993076819582,0.0001054902284997997
1325.9751970200145,1325.9751970200145,0.9999719472024828,0.00010549514632099179
1325.982141452884,1325.982141452884,1.00012261478302,0.00010549675131202687
1325.9890858858005,1325.9890858858005,0.9997934207308461,0.00010547969413599106
1325.9960303188332,1325.9960303188332,1.0000327134871274,0.00010550063645969603
1326.0029747519125,1326.0029747519125,0.9999464950972682,0.00010550155431283923
1326.0099191851084,1326.0099191851084,1.0001136754446596,0.00010551305570878755
1326.0168636183507,1326.0168636183507,0.9999180012899828,0.0001055012075912401
1326.023808051686,1326.023808051686,1.0001317139636297,0.00010552438527003487
1326.0307524850916,1326.0307524850916,1.0001200771368604,0.00010552563778833128
1326.0376969185663,1326.0376969185663,1.0001185864425721,0.00010551967696043059
1326.044641352135,1326.044641352135,0.9998052224427472,0.00010549937945426037
1326.0515857857729,1326.0515857857729,0.9998850737767816,0.00010550937344210396
1326.0585302194575,1326.0585302194575,0.9998050682307593,0.00010551085592107399
1326.0654746532352,1326.0654746532352,1.000078850683664,0.0001055236298089099
1326.0724190870828,1326.0724190870828,1.0000642943239464,0.00010552616179875726
1326.0793635210007,1326.0793635210007,1.0000689556986,0.00010552427946559295
1326.0863079550113,1326.0863079550113,1.0000874599173177,0.00010552537151870788
1326.0932523890685,1326.0932523890685,0.9999298756089441,0.00010551980015527642
1326.1001968231722,1326.1001968231722,1.0001549977734636,0.00010553557696118597
1326.1071412573688,1326.1071412573688,0.9998720822042285,0.00010551498825152753
1326.114085691659,1326.114085691659,0.9998953409481096,0.00010551953683344765
1326.1210301259955,1326.1210301259955,1.0001535473211973,0.00010552522194577441
1326.1279745603788,1326.1279745603788,0.9999178382708749,0.00010551410661578764
1326.1349189948085,1326.1349189948085,0.9999499661923844,0.00010552366344111224
1326.1418634293314,1326.1418634293314,0.9999214395311087,0.00010551518703080719
1326.1488078639245,1326.1488078639245,0.9999817363191454,0.00010552353971150091
1326.1557522985631,1326.1557522985631,1.000072621958087,0.0001055257843112642
1326.162696733273,1326.162696733273,0.9999916438360182,0.00010551726108967293
1326.1696411680746,1326.1696411680746,1.0001282165548713,0.00010552622144680503
1326.1765856028771,1326.1765856028771,0.9999833007110913,0.00010551717899412525
1326.1835300378193,1326.1835300378193,1.0001247311199977,0.00010551957384257497
1326.1904744727608,1326.1904744727608,0.9999372991329738,0.00010550702089100386
1326.1974189077498,1326.1974189077498,0.9999013520646736,0.00010550227239050123
1326.2043633428311,1326.2043633428311,0.9999480653745094,0.0001055147635416659
1326.21130777796,1326.21130777796,0.999811974964679,0.00010550478754356881
1326.218252213134,1326.218252213134,1.0000150431355534,0.00010550776170747164
1326.2251966483789,1326.2251966483789,1.000177660253288,0.00010551388401239125
1326.2321410836935,1326.2321410836935,1.0000267375631915,0.00010551383740855562
1326.239085519054,1326.239085519054,0.9999493262308443,0.00010550798877697586
1326.2460299544623,1326.2460299544623,0.999955871090252,0.00010550682412001752
1326.2529743899163,1326.2529743899163,0.9999849684215494,0.00010551591090219483
1326.2599188254403,1326.2599188254403,0.9999645606319945,0.00010551205643148376
1326.2668632610112,1326.2668632610112,0.9998017150563465,0.00010549927493684976
1326.2738076966511,1326.2738076966511,1.000059340126221,0.00010551506933291665
1326.2807521323152,1326.2807521323152,1.0000532263552349,0.00010551730775601746
1326.2876965680487,1326.2876965680487,1.0000243418237098,0.00010551116016476378
1326.2946410038523,1326.2946410038523,1.0001905425009057,0.00010552102650481182
1326.3015854396785,1326.3015854396785,0.9999559039798775,0.00010551099153743545
1326.3085298755523,1326.3085298755523,1.0000906597601842,0.00010552264958286056
1326.3154743115188,1326.3154743115188,0.9999161117611475,0.00010551783018071642
1326.3224187474848,1326.3224187474848,0.9999765750316199,0.0001055194769561145
1326.3293631834983,1326.3293631834983,0.9999125231979221,0.00010551466850471814
1326.3363076195808,1326.3363076195808,0.9998668898617963,0.00010552320472105242
1326.3432520556867,1326.3432520556867,1.000184585778752,0.00010553227401754895
1326.3529742663752,1326.3529742663752,0.9999289764320481,0.00010552745676517238
1326.3599187026207,1326.3599187026207,0.9998579308223361,0.00010552417102199117
1326.3668631389132,1326.3668631389132,1.000019608933536,0.00010554020841335414
1326.3738075752287,1326.3738075752287,1.0001454390485942,0.00010553854020296117
1326.3807520116147,1326.3807520116147,0.9997611556625866,0.00010551911176505918
1326.3876964480467,1326.3876964480467,1.0000495156584095,0.00010553850524182097
1326.394640884502,1326.394640884502,0.9999972109878099,0.00010553717171256917
1326.4015853210271,1326.4015853210271,1.0001602034695036,0.0001055481541583823
1326.408529757576,1326.408529757576,0.9999382913791489,0.00010553720968850067
1326.4154741942175,1326.4154741942175,1.000071662244247,0.00010554763597482833
1326.4224186307893,1326.4224186307893,0.9998247293188524,0.00010553488701083922
1326.4293630674777,1326.4293630674777,0.9998274681018016,0.00010553411998613397
1326.4363075042584,1326.4363075042584,1.0001580645381776,0.00010556308863647959
1326.4432519409934,1326.4432519409934,1.0000117300507554,0.00010555292403755582
1326.4501963778214,1326.4501963778214,1.0000281435999843,0.00010555819976226857
1326.457140814649,1326.457140814649,1.0000424487258406,0.0001055624864750479
1326.464085251547,1326.464085251547,0.9999129679093623,0.00010555604247659196
1326.4710296884914,1326.4710296884914,1.000101326731717,0.00010557074592286688
1326.477974125459,1326.477974125459,0.9997712020432381,0.0001055576327795826
1326.484918562473,1326.484918562473,1.0002286091960226,0.00010558353342112175
1326.4918629995339,1326.4918629995339,0.9999149202557334,0.00010556808546156
1326.4988074366179,1326.4988074366179,1.0002029718563585,0.00010558502459067554
1326.5057518737249,1326.5057518737249,1.0000176322346732,0.00010558254053554754
1326.512696310879,1326.512696310879,0.9998759462788565,0.00010557093002612166
1326.5196407481026,1326.5196407481026,0.999790827903038,0.00010557177182622466
1326.5265851853032,1326.5265851853032,0.9999087075807129,0.00010558687099383023
1326.5335296225735,1326.5335296225735,0.9999994043080719,0.0001055866716936651
1326.5404740599367,1326.5404740599367,1.0001681235897126,0.00010559595196007738
1326.5474184972536,1326.5474184972536,0.9998827068834935,0.0001055974743448753
1326.5543629346403,1326.5543629346403,1.0001897396858248,0.00010561296983058607
1326.5613073720501,1326.5613073720501,0.9998995633808793,0.0001055990407395342
1326.5682518095068,1326.5682518095068,1.0001106299269793,0.0001056078547846023
1326.5751962470101,1326.5751962470101,1.0001167918259497,0.0001056088650050222
1326.582140684536,1326.582140684536,1.0000090956317804,0.00010560062762140742
1326.5890851221095,1326.5890851221095,0.9999217376207229,0.00010560785397907956
1326.596029559659,1326.596029559659,0.999956118198492,0.00010562009844612606
1326.602973997302,1326.602973997302,0.9999901298368048,0.00010560909074948406
1326.6099184349446,1326.6099184349446,0.9998002878496767,0.00010559994261575692
1326.6168628726339,1326.6168628726339,1.0000173571001536,0.00010562035997321703
1326.6238073103698,1326.6238073103698,0.999968492466914,0.00010561085742452393
1326.6307517481057,1326.6307517481057,1.0000588780124788,0.00010561853797988238
1326.6376961859346,1326.6376961859346,1.0000708224154842,0.00010561543190334437
1326.6446406236707,1326.6446406236707,1.0001312138768053,0.00010562302974872657
1326.651585061523,1326.651585061523,1.0001455429414396,0.00010562116962550968
1326.6585294994688,1326.6585294994688,0.999965011470404,0.000105608634588554
1326.665473937344,1326.665473937344,0.9999194709249414,0.0001056134097983706
1326.67241837529,1326.67241837529,0.999926172194149,0.00010560522511023735
1326.6793628132586,1326.6793628132586,0.9998818943157135,0.00010559435383254636
1326.6871405838394,1326.6871405838394,1.0000919160018895,0.00010560755312050794
1326.694640576906,1326.694640576906,1.0000544100888369,0.00010560254444401165
1326.7015850149678,1326.7015850149678,0.9999089428646822,0.00010559373500906319
1326.7088072305676,1326.7088072305676,0.9998962827808745,0.00010558847598368131
1326.7168627788255,1326.7168627788255,0.9998964258266408,0.0001055902788676784
1326.723807216957,1326.723807216957,1.0001263448752509,0.00010559866473417053
1326.7307516551587,1326.7307516551587,1.0000881945377564,0.00010559825936660014
1326.7376960933839,1326.7376960933839,1.0001992216649405,0.00010560001868813933
1326.7446405316086,1326.7446405316086,0.9998602329612687,0.00010556859584038752
1326.751584969903,1326.751584969903,1.0002191186111986,0.00010559741146518408
1326.758529408198,1326.758529408198,0.9999465320360773,0.00010557503200329143
1326.7654738464923,1326.7654738464923,0.9999233930454927,0.00010557645037587005
1326.7724182848574,1326.7724182848574,0.9998876060994336,0.00010557347210513881
1326.7793627232452,1326.7793627232452,0.9997209494349566,0.00010556964708747288
1326.7863071616796,1326.7863071616796,0.9999131543119469,0.00010557428232551693
1326.793251600114,1326.793251600114,1.0002182870819685,0.00010559026683432499
1326.8001960385486,1326.8001960385486,1.0000279787629034,0.00010558525752313425
1326.8071404769828,1326.8071404769828,1.0001868224708523,0.00010559041728916295
1326.8140849155102,1326.8140849155102,0.9998625671463554,0.00010557687609339399
1326.821029354038,1326.821029354038,1.0001548371042885,0.00010559200596066678
1326.8279737925889,1326.8279737925889,1.000102503118315,0.00010558191524906388
1326.8349182311626,1326.8349182311626,0.9999503638729607,0.00010558099681775917
1326.8418626697837,1326.8418626697837,0.9999332584419474,0.00010557226173288649
1326.8488071084043,1326.8488071084043,0.9999324473685032,0.0001055736948149416
1326.8557515470482,1326.8557515470482,1.0000291704552917,0.00010558746243340857
1326.862695985739,1326.862695985739,0.9998971934825732,0.00010556615526146288
1326.8696404244297,1326.8696404244297,0.999877606819647,0.00010557192882867002
1326.8765848631665,1326.8765848631665,1.0000943201369412,0.0001055786962064745
1326.8835293019038,1326.8835293019038,1.0001358660160453,0.00010556937779447285
1326.8904737406872,1326.8904737406872,1.0000961800614458,0.00010556482977619192
1326.897418179471,1326.897418179471,1.0000278125919588,0.00010555497082818524
1326.904362618278,1326.904362618278,0.9998310170706137,0.00010554756312990388
1326.9113070571316,1326.9113070571316,1.0000030519930947,0.00010554005192698079
1326.9182514959853,1326.9182514959853,0.9999143234294958,0.00010553105472174985
1326.9251959348617,1326.9251959348617,1.0000241396579463,0.00010553060275356296
1326.932140373762,1326.932140373762,0.999919248520236,0.00010551858906413733
1326.9390848127084,1326.9390848127084,1.0001851190522755,0.00010552177240939478
1326.9460292516085,1326.9460292516085,0.9999287726959473,0.00010550619499975524
1326.9529736906252,1326.9529736906252,0.9999596008834744,0.00010550727425141351
1326.959918129642,1326.959918129642,1.0000406978615342,0.00010550716509426323
1326.9668625686584,1326.9668625686584,1.0000020149733566,0.0001054974288356313
1326.9738070076746,1326.9738070076746,1.00005736217268,0.00010549700618709261
1326.9807514466913,1326.9807514466913,1.0002287889398727,0.00010550199710487457
1326.9876958857542,1326.9876958857542,0.9998991118655649,0.00010547984034009693
1326.994640324841,1326.994640324841,0.99995145688558,0.00010547188028850597
1327.0015847639736,1327.0015847639736,0.999790462269041,0.00010547631565676206
1327.0085292031065,1327.0085292031065,1.000199927074488,0.00010549127235349705
1327.0154736422626,1327.0154736422626,0.9998401292945926,0.00010547392243862688
1327.022418081419,1327.022418081419,0.9999492646017597,0.0001054775425973934
1327.0293625206218,1327.0293625206218,0.9999974141864071,0.00010548766071772397
1327.0363069598243,1327.0363069598243,0.9999973769892943,0.00010548274712974732
1327.0432513990509,1327.0432513990509,1.000021839221839,0.00010547865227169133
1327.0501958383,1327.0501958383,1.000184689411071,0.00010548555512330218
