time,time,flux,flux_err
1325.3028029083819,1325.3028029083819,1.0000993095965724,4.691684027272289e-05
1325.311136348629,1325.311136348629,0.9999552385473146,4.690623783336974e-05
1325.3194697888375,1325.3194697888375,1.0000887520604833,4.692087329046764e-05
1325.3271087756018,1325.3271087756018,0.9999160897849452,4.2837956427586526e-05
1325.3340533090309,1325.3340533090309,0.9998245988672707,4.28465909694907e-05
1325.3409978423672,1325.3409978423672,1.000020854511997,4.28610526287127e-05
1325.3479423757035,1325.3479423757035,0.9999498269528584,4.285716037156246e-05
1325.3548869089,1325.3548869089,0.9998519760468241,4.2870749763079714e-05
1325.361831442143,1325.361831442143,1.0001507999489911,4.2875846407197394e-05
1325.3687759753398,1325.3687759753398,1.000109483940436,4.2879191654436286e-05
1325.3757205084428,1325.3757205084428,1.0000008469547716,4.287972397877014e-05
1325.3826650415929,1325.3826650415929,0.9999236324698474,4.287706892787986e-05
1325.3896095746497,1325.3896095746497,0.9998752217409506,4.288784133634411e-05
1325.3965541077064,1325.3965541077064,1.0001660158677879,4.2887907544503386e-05
1325.4034986407164,1325.4034986407164,0.9998612131368618,4.2882700462474475e-05
1325.4104431736805,1325.4104431736805,0.9999969476810161,4.2882419059670496e-05
1325.4173877065507,1325.4173877065507,1.0000148129608815,4.288230688491427e-05
1325.4243322395146,1325.4243322395146,1.0000424593999064,4.288396121909833e-05
1325.4312767722918,1325.4312767722918,0.9999107085540146,4.288327419354286e-05
1325.438221305209,1325.438221305209,1.000156082113461,4.288004680376428e-05
1325.4451658379398,1325.4451658379398,1.0000019906755822,4.287849299362512e-05
1325.4521103706707,1325.4521103706707,0.9999080413702789,4.287233092176082e-05
1325.4590549034012,1325.4590549034012,1.000013436868773,4.287562792215916e-05
1325.465999436132,1325.465999436132,1.00002231834964,4.287580992556051e-05
1325.4729439687696,1325.4729439687696,0.9999935982311406,4.287541986990947e-05
1325.479888501361,1325.479888501361,1.0001302797474854,4.2876841165606056e-05
1325.4868330339984,1325.4868330339984,1.0000944671147833,4.2879325719927884e-05
1325.4937775665899,1325.4937775665899,0.9997451367471708,4.287078844747759e-05
1325.5007220990879,1325.5007220990879,1.0000193363996404,4.287726169105089e-05
1325.5076666315858,1325.5076666315858,1.0000245118900843,4.28810440209227e-05
1325.5146111640374,1325.5146111640374,1.0000322139681115,4.288018353974849e-05
1325.5215556964886,1325.5215556964886,1.0001502019923854,4.2882234413054784e-05
1325.5285002289402,1325.5285002289402,0.9999618938524882,4.2883857509745925e-05
1325.5354447612983,1325.5354447612983,0.9998587515130577,4.288413696612813e-05
1325.5423892937029,1325.5423892937029,1.0000904550585417,4.2891269163804194e-05
1325.5493338260153,1325.5493338260153,1.0000192100494578,4.288888012398986e-05
1325.5562783583266,1325.5562783583266,0.9999628209849354,4.288774804341194e-05
1325.563222890592,1325.563222890592,0.9999814936041647,4.288938516487986e-05
1325.5701674228571,1325.5701674228571,0.9998728863789236,4.289189512487473e-05
1325.5771119550757,1325.5771119550757,1.0000189594093878,4.2889169819109155e-05
1325.584056487248,1325.584056487248,1.000064403481703,4.289642173892428e-05
1325.5910010194198,1325.5910010194198,0.9998940149569691,4.289828933432747e-05
1325.597945551545,1325.597945551545,0.9999052359107052,4.289307596671571e-05
1325.6048900837172,1325.6048900837172,1.0002263399716047,4.289573739549368e-05
1325.6118346158426,1325.6118346158426,1.0001936541563157,4.290025822407729e-05
1325.618779147875,1325.618779147875,1.0000649637441756,4.289566260880802e-05
1325.6257236799538,1325.6257236799538,0.9999003612435093,4.2893474597977364e-05
1325.6326682119864,1325.6326682119864,0.9998652346407827,4.288990117782195e-05
1325.639612743972,1325.639612743972,0.9999282184872543,4.28965639379389e-05
1325.6465572759575,1325.6465572759575,0.9998504153369214,4.2898105783055826e-05
1325.653501807897,1325.653501807897,0.999941766523466,4.2895546297089815e-05
1325.6604463398362,1325.6604463398362,1.0000770365709872,4.2896437158147725e-05
1325.667390871729,1325.667390871729,1.0001026368234784,4.289944267443394e-05
1325.6743354035748,1325.6743354035748,1.000211618665466,4.289580363674983e-05
1325.6812799354675,1325.6812799354675,0.9999118153917476,4.289928881065108e-05
1325.6882244673136,1325.6882244673136,1.000009109228366,4.2889466879704984e-05
1325.695168999113,1325.695168999113,1.000004339844478,4.2897772182408286e-05
1325.7021135309128,1325.7021135309128,1.000107128702543,4.288960158392001e-05
1325.709058062666,1325.709058062666,0.9999166064705374,4.289688160858633e-05
1325.7160025944183,1325.7160025944183,0.9999428959072796,4.289600556160214e-05
1325.7229471261714,1325.7229471261714,0.9998462270577797,4.290443679145181e-05
1325.7298916577847,1325.7298916577847,1.0001172649619803,4.290483144920244e-05
1325.736836189584,1325.736836189584,1.0000387663117831,4.2900203222442054e-05
1325.743780721151,1325.743780721151,1.0000039953142106,4.2899069340667116e-05
1325.7507252527637,1325.7507252527637,1.0000239560393784,4.2905353558348834e-05
1325.757669784517,1325.757669784517,1.0000106372782773,4.2900376527775605e-05
1325.7646143160837,1325.7646143160837,0.9996674999689482,4.29032041271065e-05
1325.77155884765,1325.77155884765,1.000165986618667,4.290879144272019e-05
1325.778503379217,1325.778503379217,1.0001379864468922,4.290937579846054e-05
1325.7854479106904,1325.7854479106904,0.999892731568935,4.290867798919823e-05
1325.7923924421175,1325.7923924421175,1.0000036849449492,4.29098873407408e-05
1325.7993369736844,1325.7993369736844,1.0001949565550887,4.290923233207954e-05
1325.8062815051112,1325.8062815051112,0.999976521689471,4.290595677599886e-05
1325.813226036585,1325.813226036585,0.999906996343571,4.290964194915853e-05
1325.820170567965,1325.820170567965,0.9999596627314273,4.290409412159214e-05
1325.8271150993921,1325.8271150993921,1.000052699293852,4.2909874064821476e-05
1325.8340596307726,1325.8340596307726,0.9998039251840776,4.290916005163333e-05
1325.841004162153,1325.841004162153,1.0001410405304951,4.29120281566573e-05
1325.847948693487,1325.847948693487,1.000038570382443,4.290835045027687e-05
1325.8548932247736,1325.8548932247736,0.999986884755294,4.290541621146465e-05
1325.8618377561081,1325.8618377561081,0.9999292886754368,4.2903411894310996e-05
1325.868782287395,1325.868782287395,0.9999386010638676,4.290528092877953e-05
1325.875726818636,1325.875726818636,1.0001109690995893,4.29030873673732e-05
1325.8826713498302,1325.8826713498302,1.0000107413671042,4.291054099843159e-05
1325.8896158811174,1325.8896158811174,1.0000430385233976,4.290823423671954e-05
1325.8965604122648,1325.8965604122648,0.9999043970772551,4.290752847622353e-05
1325.9035049434592,1325.9035049434592,1.000121367849547,4.2903223179890075e-05
1325.910449474653,1325.910449474653,1.0000910044326816,4.291057594478616e-05
1325.9173940057542,1325.9173940057542,0.9999925722936112,4.291196225521647e-05
1325.924338536855,1325.924338536855,0.9999601064927253,4.290423240295532e-05
1325.9312830679564,1325.9312830679564,0.9998460514403046,4.291113210979049e-05
1325.9382275990106,1325.9382275990106,1.0000788226416444,4.291125558172663e-05
1325.9451721301118,1325.9451721301118,0.999919974018996,4.2917389580057005e-05
1325.9521166611198,1325.9521166611198,1.0000165599926354,4.29108163194599e-05
1325.9590611920812,1325.9590611920812,0.99994340362076,4.291031548899974e-05
1325.9668390667841,1325.9668390667841,0.9998205082673601,4.288505424445745e-05
1325.9743391602703,1325.9743391602703,1.0001253508924695,4.291108903806534e-05
1325.981283691232,1325.981283691232,1.000206310033135,4.291262127223823e-05
1325.988228222193,1325.988228222193,1.000043250857851,4.2912946405632084e-05
1325.9951727531075,1325.9951727531075,0.9999123327678479,4.291055610506319e-05
1326.002117283976,1326.002117283976,1.00016002776117,4.2913139851740615e-05
1326.0090618148438,1326.0090618148438,0.9999795909922253,4.291362565321878e-05
1326.0160063456658,1326.0160063456658,0.9997660284849607,4.291272693681369e-05
1326.022950876534,1326.022950876534,0.9998476885025223,4.29101546563911e-05
1326.0298954073558,1326.0298954073558,1.0002924328962255,4.2918211601425785e-05
1326.0368399381307,1326.0368399381307,0.9999200258934099,4.2909241049739426e-05
1326.043784468859,1326.043784468859,1.0000867704471135,4.2914875102660376e-05
1326.0507289996344,1326.0507289996344,0.9999252937169034,4.291686670122883e-05
1326.0576735303625,1326.0576735303625,1.0000370962693244,4.2916186359680706e-05
1326.0646180610445,1326.0646180610445,0.9998206408785398,4.291288404809215e-05
1326.0715625917267,1326.0715625917267,1.0001122587013729,4.291598089228776e-05
1326.078507122408,1326.078507122408,1.0002226605339466,4.2918842673729174e-05
1326.0854516530442,1326.0854516530442,1.0000506997189866,4.292028495271227e-05
1326.092396183679,1326.092396183679,0.9998503514879037,4.291709821156255e-05
1326.0993407143146,1326.0993407143146,0.9999330974552043,4.291803976634765e-05
1326.106285244857,1326.106285244857,0.99993196617293,4.292242791339519e-05
1326.1132297753988,1326.1132297753988,1.0000540494680459,4.292323354672316e-05
1326.1201743059878,1326.1201743059878,0.9998350909945899,4.291545182604046e-05
1326.1271188364367,1326.1271188364367,0.9999718573478324,4.291953786120753e-05
1326.1340633670259,1326.1340633670259,0.9999855168521904,4.292102071521592e-05
1326.1410078974282,1326.1410078974282,1.0000945731926048,4.291950482151372e-05
1326.1479524278307,1326.1479524278307,1.0001363254251587,4.2916807837492024e-05
1326.1548969584196,1326.1548969584196,0.9999027068191481,4.291753246368349e-05
1326.1618414888685,1326.1618414888685,1.0002561544995467,4.291921805408241e-05
1326.1687860192712,1326.1687860192712,1.000000142852766,4.291371340391707e-05
1326.175730549487,1326.175730549487,0.9999266324976495,4.2918797106451846e-05
1326.1826750798434,1326.1826750798434,0.9999458329785531,4.291156308138203e-05
1326.1896196102457,1326.1896196102457,0.999895435869113,4.291455262597534e-05
1326.1965641405548,1326.1965641405548,0.9998698754607658,4.2913681440108545e-05
1326.2035086708183,1326.2035086708183,1.0000291598681486,4.291508843145226e-05
1326.2104532011274,1326.2104532011274,0.99998901329186,4.291142891980217e-05
1326.2173977313905,1326.2173977313905,1.0002286144037282,4.2923087064461234e-05
1326.22434226156,1326.22434226156,1.0000444030243671,4.290891968638892e-05
1326.2312867917763,1326.2312867917763,0.9999245211962263,4.29115294695574e-05
1326.2382313219925,1326.2382313219925,0.9999812913883452,4.291603612170641e-05
1326.2451758521618,1326.2451758521618,0.999972020678995,4.291271378395521e-05
1326.2521203822857,1326.2521203822857,1.0000808637723275,4.291152255790747e-05
1326.2590649123617,1326.2590649123617,1.0000805059432554,4.291620479458321e-05
1326.2660094424853,1326.2660094424853,0.9997969943504394,4.291146981507243e-05
1326.2729539726083,1326.2729539726083,0.9999786213426418,4.2914865123317144e-05
1326.2798985025915,1326.2798985025915,1.0000984522512695,4.291545594489901e-05
1326.2868430327148,1326.2868430327148,1.000171665408632,4.2919680994518724e-05
1326.293787562698,1326.293787562698,0.9997388187860643,4.2908302097594055e-05
1326.3007320926815,1326.3007320926815,1.0000015982181834,4.291724527284692e-05
1326.3076766226648,1326.3076766226648,0.9999665438857054,4.29100882063289e-05
1326.3146211526018,1326.3146211526018,0.9999998331441902,4.2908060745552404e-05
1326.3215656824923,1326.3215656824923,0.9999234179880911,4.291091101521503e-05
1326.3285102124287,1326.3285102124287,0.9999989751735117,4.2906846883702453e-05
1326.3354547423198,1326.3354547423198,1.000092589797253,4.291168798399021e-05
1326.3423992721632,1326.3423992721632,0.9999820588695767,4.2906891928444776e-05
1326.3498993643927,1326.3498993643927,1.0001321348306191,4.291478609033612e-05
1326.3590661437322,1326.3590661437322,1.0001868560552594,4.291144890739724e-05
1326.3660106735292,1326.3660106735292,0.9999432027371068,4.290741114920481e-05
1326.37295520328,1326.37295520328,0.9999676457902611,4.290762828325219e-05
1326.3798997330305,1326.3798997330305,0.9999620943670575,4.2909354149141625e-05
1326.3868442627347,1326.3868442627347,0.9998985509609849,4.2911996057327936e-05
1326.3937887924387,1326.3937887924387,0.9998854700661095,4.29136436632025e-05
1326.4007333220961,1326.4007333220961,1.0001360517243278,4.291486888033873e-05
1326.4076778517533,1326.4076778517533,1.0000272110261457,4.291567654823374e-05
1326.4146223814114,1326.4146223814114,1.0001340576763658,4.2910873892383324e-05
1326.421566910929,1326.421566910929,0.9997440059242505,4.2917100706470475e-05
1326.4285114405861,1326.4285114405861,1.0000252345179745,4.292170882245072e-05
1326.435455970104,1326.435455970104,0.9999949480322707,4.2916664908088136e-05
1326.4424004996217,1326.4424004996217,1.0000586916092895,4.292332002171711e-05
1326.4493450291861,1326.4493450291861,1.0001601608703783,4.292566834993096e-05
1326.4562895586573,1326.4562895586573,0.9998576262832379,4.292018616640122e-05
1326.4632340880821,1326.4632340880821,0.9999296881913022,4.292602292674522e-05
1326.470178617553,1326.470178617553,1.0000903432110224,4.2925558587730554e-05
1326.4771231469779,1326.4771231469779,0.999963609863244,4.292154741946247e-05
1326.4840676763563,1326.4840676763563,0.9999145680908897,4.2922157896251975e-05
1326.491012205734,1326.491012205734,1.000088411137255,4.292606817936411e-05
1326.4979567350658,1326.4979567350658,0.9998656903102738,4.2923585176898734e-05
1326.5049012644436,1326.5049012644436,1.0000246406540758,4.292571141255678e-05
1326.511845793682,1326.511845793682,1.000066892633924,4.292522029775809e-05
1326.5187903229203,1326.5187903229203,1.0000107835139986,4.292463687537974e-05
1326.5257348521588,1326.5257348521588,1.0000924609979307,4.292849580316424e-05
1326.5326793813972,1326.5326793813972,1.0001537036823334,4.292468489164529e-05
1326.5396239106353,1326.5396239106353,0.9997702055743074,4.2928202655679e-05
1326.546568439874,1326.546568439874,0.9999477881902328,4.292152869230415e-05
1326.5535129690193,1326.5535129690193,0.9999520774852853,4.29313036988339e-05
1326.5604574981178,1326.5604574981178,1.0000258093057095,4.293103621233349e-05
1326.567402027263,1326.567402027263,1.0000465185011338,4.29264567383945e-05
1326.5743465563617,1326.5743465563617,1.0000724719394811,4.293489256301495e-05
1326.5812910853676,1326.5812910853676,1.0001277647147595,4.293231103673126e-05
1326.5882356144193,1326.5882356144193,0.9999567441277971,4.2929183286184815e-05
1326.5951801434717,1326.5951801434717,0.9999736167404629,4.293506892546116e-05
1326.6021246724306,1326.6021246724306,0.9998563667896377,4.292992946542468e-05
1326.6090692014363,1326.6090692014363,1.0000211378217752,4.2937433271484593e-05
1326.6160137303486,1326.6160137303486,0.9999554536531413,4.293844607947414e-05
1326.622958259261,1326.622958259261,1.0001781879683984,4.29398733773176e-05
1326.6299027881735,1326.6299027881735,0.9998258511369148,4.293988280085868e-05
1326.6368473170392,1326.6368473170392,1.000000858568641,4.293469517593084e-05
1326.6437918458585,1326.6437918458585,1.0000911442205676,4.293358515243656e-05
1326.6507363746778,1326.6507363746778,0.9998880477452399,4.2940919077475616e-05
1326.6576809034505,1326.6576809034505,1.0000272427396641,4.2938266779914865e-05
1326.6646254322234,1326.6646254322234,1.0000315811435836,4.293828320246559e-05
1326.6715699609958,1326.6715699609958,1.0000393033212815,4.2941235191756425e-05
1326.6785144896758,1326.6785144896758,1.0000586319787728,4.293566585725154e-05
1326.6854590184018,1326.6854590184018,1.0000166123451415,4.293498358924415e-05
1326.6935146716664,1326.6935146716664,0.9998822703294323,4.293717789315828e-05
1326.7007369814687,1326.7007369814687,1.000090428192207,4.293130903127976e-05
1326.7076815100086,1326.7076815100086,1.0000130852093976,4.294056616244061e-05
1326.7151816008877,1326.7151816008877,0.999816206914242,4.292782126808266e-05
1326.7229594728897,1326.7229594728897,1.00011028725585,4.293659698241941e-05
1326.7299040014295,1326.7299040014295,1.0000080325424476,4.293413166080448e-05
1326.7368485299228,1326.7368485299228,1.0000595440623123,4.293936534512215e-05
1326.7437930583699,1326.7437930583699,1.0000584958184997,4.293938150054777e-05
1326.750737586816,1326.750737586816,0.9999908342644644,4.293267286344924e-05
1326.7576821153095,1326.7576821153095,1.0000659576949384,4.293815722406934e-05
1326.7646266436634,1326.7646266436634,0.9998499431018285,4.293937907109227e-05
1326.7715711720168,1326.7715711720168,0.9998767128156392,4.2936948689249625e-05
1326.778515700417,1326.778515700417,0.9999550538243829,4.293226424159263e-05
1326.785460228724,1326.785460228724,1.0001008203792592,4.293875204128963e-05
1326.7924047570311,1326.7924047570311,0.9999527536554588,4.2934175686219004e-05
1326.7993492852916,1326.7993492852916,0.9999325033802717,4.29415707503526e-05
1326.8062938135524,1326.8062938135524,1.000207698740895,4.294377959925165e-05
1326.8132383417196,1326.8132383417196,1.0000940985950266,4.2941260513933635e-05
1326.8201828699798,1326.8201828699798,0.9998473309785633,4.293053985301926e-05
1326.8271273980542,1326.8271273980542,1.0001058762795467,4.294648567731494e-05
1326.8340719263147,1326.8340719263147,0.9999113202599226,4.293856335019955e-05
1326.8410164544357,1326.8410164544357,0.9999700472384354,4.2940082924030976e-05
1326.84796098251,1326.84796098251,1.0000024896594077,4.294273168733749e-05
1326.8549055105839,1326.8549055105839,1.0000857179585343,4.2939407436678746e-05
1326.861850038565,1326.861850038565,0.9999135366184774,4.294245863771907e-05
1326.8687945665,1326.8687945665,1.0000924770465853,4.294941697084022e-05
1326.8757390945743,1326.8757390945743,1.0000846084935495,4.294662077710468e-05
1326.8826836224616,1326.8826836224616,0.9999460651372098,4.294888328080492e-05
1326.8896281504433,1326.8896281504433,0.9999814494419542,4.294839515879172e-05
1326.8965726783308,1326.8965726783308,0.9998681650132186,4.2940931990215795e-05
1326.9035172061724,1326.9035172061724,1.0000383537044613,4.2940622456150214e-05
1326.9104617340604,1326.9104617340604,0.9998991397288263,4.294535820997725e-05
1326.9174062618554,1326.9174062618554,0.9999300075511639,4.293665410884102e-05
1326.92435078965,1326.92435078965,0.9999650930357191,4.2948426027865834e-05
1326.9312953173983,1326.9312953173983,0.9999358606089445,4.293302055960669e-05
1326.9382398451467,1326.9382398451467,1.0002754796260445,4.294740882611479e-05
1326.945184372848,1326.945184372848,1.000120767641051,4.29433025413196e-05
1326.9521289005033,1326.9521289005033,0.9999974845425005,4.2939172768438055e-05
1326.959073428205,1326.959073428205,1.0000708163008252,4.294272023358256e-05
1326.9660179558136,1326.9660179558136,0.9999985718869077,4.2939975895935226e-05
1326.9729624834224,1326.9729624834224,1.0000091566771556,4.294454451460119e-05
1326.9799070109839,1326.9799070109839,0.9997608201991692,4.293764607735668e-05
1326.9868515385465,1326.9868515385465,1.0000028045531562,4.293979250900098e-05
1326.9937960660616,1326.9937960660616,0.9999890093574428,4.2946735005421406e-05
1327.0007405935773,1327.0007405935773,0.9999877659015641,4.2940071666278305e-05
1327.0076851209992,1327.0076851209992,1.0001677540399896,4.294398103699023e-05
1327.0146296484218,1327.0146296484218,1.0000163015068977,4.294579851188612e-05
1327.021574175844,1327.021574175844,0.9999144361975165,4.293442860485278e-05
1327.0285187032198,1327.0285187032198,0.9999632465008551,4.295117725267198e-05
1327.0354632305957,1327.0354632305957,1.0001352852579841,4.295039856059462e-05
1327.0424077578778,1327.0424077578778,0.9998644163330266,4.2940353801500384e-05
1327.0493522851607,1327.0493522851607,0.9999565908162173,4.2946035521953345e-05
1327.0562968124898,1327.0562968124898,1.000055587771633,4.295615390900147e-05
1327.064074682909,1327.064074682909,0.9999737863644771,4.2951425651577396e-05
1327.0715747723439,1327.0715747723439,0.9998809408462842,4.2949505970399196e-05
