time,time,flux,flux_err
1385.9572664150971,1385.9572664150971,0.999910678595088,0.00010391204286142746
1385.9655999844197,1385.9655999844197,0.9999159099405993,0.00010391735236319402
1385.9732390893191,1385.9732390893191,1.0000015964419826,9.486916846595714e-05
1385.980183730247,1385.980183730247,1.0000487668540703,9.487915780956186e-05
1385.9871283708962,1385.9871283708962,0.9999047325029347,9.487341074910052e-05
1385.994073011545,1385.994073011545,1.0002648117745552,9.489294010515275e-05
1386.0010176517274,1386.0010176517274,0.9998590222146253,9.488211405295048e-05
1386.007962292283,1386.007962292283,0.999942125157468,9.4886299308472e-05
1386.0149069324666,1386.0149069324666,1.0002172131476115,9.490141250100296e-05
1386.0218515726488,1386.0218515726488,1.0000236468874715,9.489181290558057e-05
1386.028796212739,1386.028796212739,1.0000424543413404,9.489585499053709e-05
1386.035740852643,1386.035740852643,0.9999901196204025,9.4898620226573e-05
1386.042685492546,1386.042685492546,1.0001360437404412,9.490440395465592e-05
1386.0496301322635,1386.0496301322635,0.9999675911542425,9.489609785332521e-05
1386.056574771888,1386.056574771888,0.9997847991531568,9.489004040988167e-05
1386.0635194114188,1386.0635194114188,1.0000097017289693,9.49002455122222e-05
1386.070464050857,1386.070464050857,1.000038379062342,9.489529238337389e-05
1386.0774086902952,1386.0774086902952,1.000024112773516,9.490056176976118e-05
1386.0843533295467,1386.0843533295467,0.9997360239990449,9.488375290485811e-05
1386.0912979687048,1386.0912979687048,1.0001468846653858,9.489789390098674e-05
1386.0982426076775,1386.0982426076775,1.0001958898472367,9.490209870275533e-05
1386.10518724665,1386.10518724665,0.9999918243073564,9.489101971971814e-05
1386.1121318854352,1386.1121318854352,0.999971241836801,9.489031343311104e-05
1386.1190765241286,1386.1190765241286,1.0000935780164621,9.489874001445458e-05
1386.1260211629149,1386.1260211629149,0.9999970919981175,9.488777981536015e-05
1386.1329658012346,1386.1329658012346,0.9998586078941913,9.488313474205888e-05
1386.139910439742,1386.139910439742,1.0001239910258124,9.489189656114803e-05
1386.1468550781553,1386.1468550781553,0.9998369254822096,9.488011407121081e-05
1386.153799716196,1386.153799716196,0.9999788346346902,9.488991650757856e-05
1386.1607443545163,1386.1607443545163,0.9999946609888966,9.488971479709183e-05
1386.1676889924645,1386.1676889924645,0.9997526305101105,9.487765364589145e-05
1386.174633630412,1386.174633630412,1.000131681694287,9.489579558503376e-05
1386.1815782682668,1386.1815782682668,0.9999921112236005,9.488753400016668e-05
1386.1885229059355,1386.1885229059355,0.99997981267749,9.488667761413391e-05
1386.1954675435106,1386.1954675435106,1.0000967183006104,9.489485040857794e-05
1386.2024121809923,1386.2024121809923,1.0002265940090447,9.489876705316052e-05
1386.2093568184753,1386.2093568184753,1.0000173161198067,9.489309873899833e-05
1386.2163014558646,1386.2163014558646,0.9999334283570768,9.48888280979191e-05
1386.223246092973,1386.223246092973,0.9999796566270757,9.48925013101546e-05
1386.2301907301764,1386.2301907301764,0.9997610361901479,9.488255707206349e-05
1386.2371353671,1386.2371353671,0.9999368597395752,9.48926887355986e-05
1386.2440800040226,1386.2440800040226,1.0000681481083629,9.489964236736149e-05
1386.2510246408535,1386.2510246408535,0.9999781897085154,9.489425411106554e-05
1386.2579692775912,1386.2579692775912,0.9999652706431243,9.489354644269917e-05
1386.2649139141417,1386.2649139141417,1.0000094873412653,9.489161993037954e-05
1386.271858550692,1386.271858550692,1.0000928831680747,9.489747161417321e-05
1386.278803187057,1386.278803187057,1.0000184839385657,9.488805659482604e-05
1386.2857478233286,1386.2857478233286,0.9999403080799742,9.488737990867257e-05
1386.2926924595997,1386.2926924595997,1.0000183992346081,9.489091318106762e-05
1386.2996370957783,1386.2996370957783,0.9999223505302414,9.488542358841449e-05
1386.3065817317706,1386.3065817317706,1.000138714395755,9.489712097954193e-05
1386.3135263677618,1386.3135263677618,0.9999933980609347,9.489340339578531e-05
1386.320471003289,1386.320471003289,1.0001002231842524,9.48935144759386e-05
1386.3274156391883,1386.3274156391883,1.0001843329521036,9.490034690033572e-05
1386.3343602747136,1386.3343602747136,0.999867792184997,9.488680702700863e-05
1386.3413049102405,1386.3413049102405,0.999811136061773,9.488185755420522e-05
1386.348249545674,1386.348249545674,0.9999254947375829,9.488529824788667e-05
1386.3551941809208,1386.3551941809208,0.9999670378349712,9.489116069465509e-05
1386.3621388161678,1386.3621388161678,0.9999758204949998,9.489106310782226e-05
1386.3696390221082,1386.3696390221082,0.9999909195681699,9.48883649904377e-05
1386.3774170133015,1386.3774170133015,1.0001213819054855,9.489537430251817e-05
1386.3843616482689,1386.3843616482689,1.000175267018823,9.489773672232472e-05
1386.3913062830504,1386.3913062830504,0.9998078873342093,9.488120102727932e-05
1386.398250917646,1386.398250917646,1.0000846749442864,9.489108971387013e-05
1386.4051955523332,1386.4051955523332,0.9999112265480136,9.488158146556624e-05
1386.4121401867426,1386.4121401867426,1.0000522627459572,9.488515368768746e-05
1386.4190848211515,1386.4190848211515,0.9999301965691414,9.488626348868374e-05
1386.4260294555595,1386.4260294555595,1.000051693619516,9.48911763275373e-05
1386.4329740896894,1386.4329740896894,0.9999209920155406,9.488576646323892e-05
1386.4399187238196,1386.4399187238196,0.9999366485454633,9.488529573360579e-05
1386.4468633578554,1386.4468633578554,1.0000368235614558,9.489435309724276e-05
1386.4538079917054,1386.4538079917054,1.0000815134426535,9.489554166652016e-05
1386.4607526256486,1386.4607526256486,0.999949376856434,9.48906210216118e-05
1386.4676972593124,1386.4676972593124,0.9999289862326621,9.488296200366009e-05
1386.4746418929758,1386.4746418929758,0.9999132898641088,9.488898043534546e-05
1386.4815865263606,1386.4815865263606,0.999902744378663,9.488759747133386e-05
1386.4885311598384,1386.4885311598384,1.0000976944169424,9.48931252747918e-05
1386.4954757931287,1386.4954757931287,1.0000202594080885,9.488975185263353e-05
1386.502420426327,1386.502420426327,1.0000441622363483,9.488818951804815e-05
1386.5093650595259,1386.5093650595259,1.000031767631976,9.488869769342562e-05
1386.516309692444,1386.516309692444,1.0002493315654597,9.490156990309187e-05
1386.5232543255488,1386.5232543255488,0.9998377756244577,9.487966504520959e-05
1386.5301989582817,1386.5301989582817,0.9999409694603287,9.488039046470991e-05
1386.5371435910142,1386.5371435910142,0.9997739110240804,9.487189800433662e-05
1386.544088223653,1386.544088223653,1.0001886703852907,9.48935971803487e-05
1386.5510328561998,1386.5510328561998,1.0001065015920605,9.488699270735737e-05
1386.5579774886533,1386.5579774886533,0.9998767693974051,9.487553011061235e-05
1386.5651999063589,1386.5651999063589,1.000027977791327,9.48886277547459e-05
1386.5732556796397,1386.5732556796397,0.9999992134752744,9.488394252189225e-05
1386.5802003118135,1386.5802003118135,0.9998917353192225,9.4881229935545e-05
1386.5871449438005,1386.5871449438005,1.000023783290068,9.488338269752437e-05
1386.5940895757878,1386.5940895757878,1.0001607852928742,9.488981524255203e-05
1386.6010342075892,1386.6010342075892,0.9999727138332917,9.487658871338344e-05
1386.6079788392974,1386.6079788392974,0.9999531474103666,9.488092805656931e-05
1386.6149234710977,1386.6149234710977,1.0000823142868716,9.488736612678124e-05
1386.6218681024336,1386.6218681024336,1.0000449930751758,9.488801927740338e-05
1386.6288127341422,1386.6288127341422,0.9998281049242708,9.488382855301128e-05
1386.63575736557,1386.63575736557,0.9999861780907022,9.488532657853313e-05
1386.6427019966266,1386.6427019966266,1.0000505230917076,9.488787123731505e-05
1386.6496466277758,1386.6496466277758,1.0000203773124283,9.48895144641554e-05
1386.6565912589242,1386.6565912589242,1.000004408633926,9.488795997522221e-05
1386.6635358898875,1386.6635358898875,1.0001057696551332,9.489265183460308e-05
1386.6704805207578,1386.6704805207578,0.9998668701769997,9.488337863175698e-05
1386.6774251515342,1386.6774251515342,1.0000975714024505,9.489684037660247e-05
1386.6843697822173,1386.6843697822173,0.9999754521817026,9.488444760871026e-05
1386.691314412808,1386.691314412808,0.9998464909247324,9.488160018922891e-05
1386.6982590433058,1386.6982590433058,0.9999897754166277,9.48935998647778e-05
1386.705203673709,1386.705203673709,0.99997280654348,9.489166549436861e-05
1386.7121483040205,1386.7121483040205,1.0001211947610666,9.489853681955188e-05
1386.7190929342387,1386.7190929342387,1.0002149110381904,9.490599505693903e-05
1386.7260375642697,1386.7260375642697,0.9999014945303951,9.488448202320307e-05
1386.7329821943013,1386.7329821943013,0.9999560988853533,9.488805105990479e-05
1386.7399268242405,1386.7399268242405,0.9999399990659207,9.488391883091391e-05
1386.7468714540857,1386.7468714540857,0.999939559673383,9.488612658020077e-05
1386.7538160837444,1386.7538160837444,0.9998627478048988,9.487829788355031e-05
1386.7607607134037,1386.7607607134037,1.0000647046307813,9.488919635156689e-05
1386.76770534297,1386.76770534297,0.9999794325444169,9.488570348574477e-05
1386.7749277575097,1386.7749277575097,1.0001527419599847,9.48876639496469e-05
1386.7829835275304,1386.7829835275304,1.0000910372542866,9.489267203410825e-05
1386.7899281569105,1386.7899281569105,1.0000486167086495,9.489122916063037e-05
1386.7968727860107,1386.7968727860107,0.9998574424215321,9.487849894698724e-05
1386.8038174150172,1386.8038174150172,0.999927993522696,9.488265728455387e-05
1386.8107620440248,1386.8107620440248,1.000145895703994,9.489244929636312e-05
1386.8177066727533,1386.8177066727533,1.00004427914934,9.488691362863507e-05
1386.8246513015733,1386.8246513015733,0.9999341537298282,9.488600513311319e-05
1386.8315959301149,1386.8315959301149,0.9999532428917194,9.488511899423253e-05
1386.83854055875,1386.83854055875,1.0000712328381702,9.488991262063987e-05
1386.845485187291,1386.845485187291,1.0000881290757533,9.488621326743442e-05
1386.852429815553,1386.852429815553,0.9997462837750548,9.487323449442567e-05
1386.8593744438156,1386.8593744438156,0.9998512737442576,9.487885282397154e-05
1386.8663190720779,1386.8663190720779,0.9999727862627971,9.488020935115016e-05
1386.873263700153,1386.873263700153,1.0002326289052266,9.489304856067713e-05
1386.880208328136,1386.880208328136,1.0000663186625238,9.488530484467736e-05
1386.887152956026,1386.887152956026,1.0000048377049178,9.489002038478341e-05
1386.8940975838218,1386.8940975838218,0.9999284877488457,9.486860313617536e-05
1386.9010422116185,1386.9010422116185,1.0001645886155495,9.488438433374402e-05
1386.907986839229,1386.907986839229,1.0001450006897286,9.488641612994032e-05
1386.914931466746,1386.914931466746,1.0001213120456969,9.488081228982942e-05
1386.9218760941692,1386.9218760941692,0.999765762935723,9.48689232145696e-05
1386.9288207215006,1386.9288207215006,1.0000648401145642,9.487989377663472e-05
1386.9357653487382,1386.9357653487382,0.9999507684691785,9.488031513790786e-05
1386.9427099758827,1386.9427099758827,0.9999511244094108,9.487976837362361e-05
1386.9496546029338,1386.9496546029338,1.0000414875866406,9.487442805852638e-05
1386.9565992298926,1386.9565992298926,1.0000541419826903,9.488790615024558e-05
1386.963543856758,1386.963543856758,1.0000068390578853,9.48834377108277e-05
1386.9704884837156,1386.9704884837156,1.0000300733433445,9.488325614447922e-05
1386.9774331103947,1386.9774331103947,0.9998640719831572,9.486887375439436e-05
1386.985211091996,1386.985211091996,0.9999583681803287,9.488300729462487e-05
1386.992711288622,1386.992711288622,1.0001659068023445,9.48938777869113e-05
1386.9996559149288,1386.9996559149288,1.00007337381025,9.488321081455154e-05
1387.0066005412357,1387.0066005412357,0.9998950523479548,9.488202763067717e-05
1387.0135451674482,1387.0135451674482,0.9998690069471122,9.487500017312143e-05
1387.020489793568,1387.020489793568,0.999981271005123,9.488253835059044e-05
1387.0274344195022,1387.0274344195022,1.0001033466199796,9.488953492877862e-05
1387.0343790454367,1387.0343790454367,0.9998843836280459,9.487236873447833e-05
1387.0413236712766,1387.0413236712766,0.9998869330139659,9.487339687619488e-05
1387.0482682970244,1387.0482682970244,0.9999086411171643,9.488193390625604e-05
1387.055212922586,1387.055212922586,1.0000521371440139,9.48817140695227e-05
1387.06215754824,1387.06215754824,1.0001596569810103,9.48905069648306e-05
1387.0691021736145,1387.0691021736145,1.0001596820554104,9.488681589937635e-05
1387.0760467989903,1387.0760467989903,1.0001164092408201,9.488666918297356e-05
1387.0829914242724,1387.0829914242724,0.9999575115718885,9.488019539270333e-05
1387.0899360493672,1387.0899360493672,0.9998932618217662,9.4877980245736e-05
1387.0968806745561,1387.0968806745561,0.9998616382256097,9.48756905247063e-05
1387.103825299466,1387.103825299466,0.9999277336581537,9.48827894348745e-05
1387.1107699243753,1387.1107699243753,0.9999934946266015,9.488528881528919e-05
1387.117714549191,1387.117714549191,0.9999462853372918,9.487590096682474e-05
1387.124659173914,1387.124659173914,0.9998604945947138,9.486793426596491e-05
1387.1316037984518,1387.1316037984518,1.0001345491961406,9.489392226139817e-05
1387.1385484229877,1387.1385484229877,1.0000988726072537,9.488600411837312e-05
1387.145493047618,1387.145493047618,1.0000728013048732,9.488391207559313e-05
1387.152437671969,1387.152437671969,0.999978481644787,9.487782378007357e-05
1387.1593822958537,1387.1593822958537,1.0001083772117918,9.488284173081265e-05
1387.1663269202036,1387.1663269202036,1.0000348386284936,9.488392423792193e-05
1387.1732715441822,1387.1732715441822,0.9999672112023337,9.487877712362283e-05
1387.1802161681605,1387.1802161681605,0.9998287130128084,9.487748691516015e-05
1387.1871607920452,1387.1871607920452,0.9999732149777214,9.487501764733767e-05
1387.1941054158365,1387.1941054158365,0.9998681965265744,9.487614279419222e-05
1387.2010500395354,1387.2010500395354,1.0001619275306322,9.489112070204108e-05
1387.2079946631416,1387.2079946631416,1.000109715348275,9.488795695941822e-05
1387.214939286653,1387.214939286653,1.0000822867440442,9.48818075915209e-05
1387.2218839099794,1387.2218839099794,0.9999448796609702,9.488418722861802e-05
1387.228828533399,1387.228828533399,1.0001461315500806,9.488739313682633e-05
1387.2357731566317,1387.2357731566317,0.9999322483265647,9.488548340939334e-05
1387.2427177797713,1387.2427177797713,0.9999119675012972,9.488281869228442e-05
1387.2496624027256,1387.2496624027256,1.0000569098500391,9.488785156921063e-05
1387.2566070257724,1387.2566070257724,1.000031554064274,9.488493093287768e-05
1387.263551648539,1387.263551648539,0.9999221148113075,9.488615705154352e-05
1387.2704962713065,1387.2704962713065,1.000098336373473,9.489543408601811e-05
1387.2774408940743,1387.2774408940743,0.9999966157786998,9.489263746626731e-05
1387.284385516655,1387.284385516655,0.9999901931787264,9.489265315947197e-05
1387.2913301391425,1387.2913301391425,0.9999398189478015,9.488784611048922e-05
1387.2982747614446,1387.2982747614446,0.9999972471569055,9.489479364711504e-05
1387.3052193839328,1387.3052193839328,0.9999326426814077,9.488745864411404e-05
1387.312997360597,1387.312997360597,1.0002103281266135,9.490798058025751e-05
1387.3216086922773,1387.3216086922773,1.0000284366032823,9.490218714568708e-05
1387.328831098995,1387.328831098995,0.9999993562782261,9.489556597141016e-05
1387.336609075473,1387.336609075473,0.9999232472288024,9.488927212024822e-05
1387.344109267164,1387.344109267164,0.9999336165206264,9.489498242127202e-05
1387.3513316736949,1387.3513316736949,0.9998682445452023,9.488183047621178e-05
1387.359387434775,1387.359387434775,1.0000268047546506,9.490062285237408e-05
1387.366332056238,1387.366332056238,1.0000599722295593,9.489848375696084e-05
1387.3732766777018,1387.3732766777018,0.9999498968949221,9.489638848260589e-05
1387.3802212989794,1387.3802212989794,1.0000793375548482,9.490008194139451e-05
1387.3871659202564,1387.3871659202564,1.0001849414639898,9.49022880596317e-05
1387.39411054144,1387.39411054144,0.9999549871404934,9.488247985591381e-05
1387.401055162438,1387.401055162438,1.0001515562006325,9.489643416251996e-05
1387.4079997834365,1387.4079997834365,0.9997805756507911,9.488335184023877e-05
1387.41494440434,1387.41494440434,0.9999966035860414,9.489353781202572e-05
1387.421889025152,1387.421889025152,1.000311548403255,9.490805073009767e-05
1387.4288336457776,1387.4288336457776,1.000010916618756,9.489264914493121e-05
1387.4357782664024,1387.4357782664024,1.000010249284776,9.488247809460773e-05
1387.442722886935,1387.442722886935,0.9999808008928248,9.489273986722348e-05
1387.449667507281,1387.449667507281,0.9999796802481955,9.489275577619817e-05
1387.456612127627,1387.456612127627,0.9998802595063012,9.488769846190622e-05
1387.4635567478792,1387.4635567478792,1.0000672415704488,9.489616765887061e-05
1387.4705013680389,1387.4705013680389,1.0000733682774656,9.489440407027377e-05
1387.477445988199,1387.477445988199,0.9998548488975334,9.488556562148323e-05
1387.4843906079864,1387.4843906079864,0.9996944037261126,9.487887742986703e-05
1387.4913352280519,1387.4913352280519,1.0001470843809135,9.489603872629121e-05
1387.4982798477463,1387.4982798477463,1.0000653140834022,9.49019022748512e-05
1387.5052244674405,1387.5052244674405,1.0001354417457402,9.48926562195226e-05
1387.512169087134,1387.512169087134,0.99996602022765,9.488991093422428e-05
1387.5191137065488,1387.5191137065488,0.9998850480797037,9.488903578696448e-05
1387.5260583260563,1387.5260583260563,1.000046910480449,9.48875901005484e-05
1387.5330029452853,1387.5330029452853,0.9999916330635001,9.488780474662379e-05
1387.5399475646059,1387.5399475646059,0.9999982001939675,9.488851687184435e-05
1387.5468921838342,1387.5468921838342,0.9999288490627787,9.488668344608255e-05
1387.553836802784,1387.553836802784,0.9998705093955624,9.488444670531501e-05
1387.5607814217328,1387.5607814217328,1.0001535526834284,9.489346296886874e-05
1387.567726040681,1387.567726040681,1.0001155336639616,9.48945353478219e-05
1387.5746706595369,1387.5746706595369,0.9999095291063943,9.488018513708086e-05
1387.581615278207,1387.581615278207,1.0001177699866708,9.488862869108539e-05
1387.5885598968764,1387.5885598968764,0.9999125967945673,9.488226830599804e-05
1387.5955045154521,1387.5955045154521,1.0000543445122274,9.488922759103373e-05
1387.6024491337494,1387.6024491337494,0.9999897513017881,9.488788523920905e-05
1387.6093937521402,1387.6093937521402,0.9998555470661218,9.487574586565513e-05
1387.6163383704366,1387.6163383704366,1.0000806591367581,9.488867363022977e-05
1387.623282988547,1387.623282988547,0.9999460605555965,9.487724950332301e-05
1387.6302276067513,1387.6302276067513,0.9999833866816035,9.487914072205379e-05
1387.6371722246763,1387.6371722246763,1.0001175754088019,9.48878182891644e-05
1387.6441168425995,1387.6441168425995,1.0000310932740935,9.488954921446374e-05
1387.6510614604315,1387.6510614604315,0.9999611918193404,9.488632614021434e-05
1387.65800607817,1387.65800607817,1.0003143448674046,9.490639295459702e-05
1387.664950695722,1387.664950695722,0.9998483259449303,9.487241961662058e-05
1387.6718953133663,1387.6718953133663,1.0000132664265353,9.489544047586144e-05
1387.6788399309185,1387.6788399309185,1.0000218020900138,9.489059302131938e-05
1387.6857845482848,1387.6857845482848,0.9999729041019814,9.489434626394669e-05
1387.6927291654638,1387.6927291654638,1.0001967267541798,9.490620463914852e-05
1387.6996737825496,1387.6996737825496,0.9997438713886304,9.488952989928155e-05
1387.7066183997292,1387.7066183997292,1.0000084042568644,9.489787080376494e-05
1387.7135630168161,1387.7135630168161,1.0000913491271675,9.489991874179576e-05
1387.7205076337154,1387.7205076337154,0.9999477391601127,9.48937278623337e-05
1387.7274522505224,1387.7274522505224,0.9999510891575258,9.489018459214588e-05
1387.7343968672362,1387.7343968672362,0.9998659410209181,9.488606182209387e-05
