time,time,flux,flux_err
1354.1168614482256,1354.1168614482256,0.9999312824433444,0.00017850953495905615
1354.1249632705235,1354.1249632705235,0.9999617416852029,0.00016297195819074787
1354.1319076897023,1354.1319076897023,1.000057774560703,0.00016297268141005295
1354.1388521088816,1354.1388521088816,1.0000358579003996,0.00016296143449389403
1354.1457965279676,1354.1457965279676,0.9997319387895542,0.00016292428139967597
1354.1527409471469,1354.1527409471469,0.9999410162675317,0.0001629463382751777
1354.1596853662327,1354.1596853662327,0.9997320212857005,0.0001629292169154038
1354.166629785365,1354.166629785365,1.0002602712005213,0.00016296783815135718
1354.1735742044043,1354.1735742044043,1.0001810398922535,0.00016295655802942515
1354.1805186234906,1354.1805186234906,1.0004418895866458,0.00016297658235353937
1354.1874630425764,1354.1874630425764,1.00007525726281,0.000162952987905429
1354.194407461616,1354.194407461616,0.9997976034102776,0.0001629247368776535
1354.2013518807016,1354.2013518807016,1.0000210752701544,0.00016294156749099747
1354.2082962996944,1354.2082962996944,0.9998602401705631,0.00016293920185742844
1354.215240718734,1354.215240718734,0.9997962031676432,0.00016294300154671108
1354.2221851377733,1354.2221851377733,1.0001279577586157,0.0001629648636956551
1354.2291295567659,1354.2291295567659,0.9999311647941278,0.00016296219044786397
1354.2360739757592,1354.2360739757592,0.9999164452697638,0.00016296993345978956
1354.2430183947051,1354.2430183947051,0.9999534758654398,0.00016297334583884613
1354.249962813698,1354.249962813698,1.0001763134148483,0.00016299049679421168
1354.2569072326442,1354.2569072326442,0.9998561193405369,0.00016295685584313016
1354.2638516515904,1354.2638516515904,0.9999670077611116,0.0001629677543359719
1354.2707960705366,1354.2707960705366,1.0001190188445657,0.0001629837315206229
1354.2777404894364,1354.2777404894364,1.000146307453291,0.00016298657248431196
1354.284684908336,1354.284684908336,1.0000964664646113,0.00016298594285736338
1354.2916293271894,1354.2916293271894,0.9999234338542344,0.0001629700007288071
1354.2985737460888,1354.2985737460888,0.9998965236471626,0.0001629758398419345
1354.305518164942,1354.305518164942,1.0001858243879647,0.00016297966637422994
1354.3124625838418,1354.3124625838418,0.9998508694881313,0.00016295924673178475
1354.3194070026946,1354.3194070026946,0.999883549476898,0.0001629666052680293
1354.326351421548,1354.326351421548,1.0000356871771425,0.0001629664276532319
1354.3332958403546,1354.3332958403546,0.9995868628150495,0.00016293259921989955
1354.3402402591607,1354.3402402591607,1.0002330116908316,0.00016298196176341666
1354.3471846779678,1354.3471846779678,1.0001230845782854,0.00016296770854234527
1354.3541290967273,1354.3541290967273,1.000046140764709,0.00016296291290770947
1354.3610735154875,1354.3610735154875,1.000087984995132,0.0001629568510322747
1354.3680179342477,1354.3680179342477,0.9998894062422667,0.00016293272703355092
1354.3749623530073,1354.3749623530073,1.0001165426369312,0.00016294446997142873
1354.381906771721,1354.381906771721,1.0000085012884659,0.00016294666134786424
1354.3888511904809,1354.3888511904809,1.0001614547242679,0.00016295605547916807
1354.3957956091476,1354.3957956091476,0.999896715636458,0.00016294297593393424
1354.4027400278615,1354.4027400278615,1.0000691805673196,0.0001629569584190369
1354.4096844465282,1354.4096844465282,0.9997985655348426,0.00016292551186601427
1354.416628865195,1354.416628865195,0.9998661363708058,0.00016293343070729544
1354.4235732838154,1354.4235732838154,1.0001805067624558,0.00016295862125083473
1354.4305177024355,1354.4305177024355,0.9998211671426009,0.00016292713764360015
1354.437462121056,1354.437462121056,1.000062149403726,0.00016293838796082612
1354.444406539676,1354.444406539676,0.9999165396780298,0.0001629224365888527
1354.4513509582498,1354.4513509582498,1.0000254470821757,0.00016293017335010173
1354.4582953768236,1354.4582953768236,0.9999373242946351,0.0001629167930630215
1354.465239795397,1354.465239795397,0.9999838502483549,0.0001629185435254357
1354.4721842139709,1354.4721842139709,1.0002307423778278,0.00016294018230536325
1354.4791286324983,1354.4791286324983,1.0001119593587322,0.00016294181860830755
1354.486073051025,1354.486073051025,1.0004040693643474,0.00016295475598192432
1354.493017469506,1354.493017469506,0.9997624747458126,0.00016290529056695537
1354.4999618879867,1354.4999618879867,0.9997336136011858,0.00016291363995552547
1354.506906306467,1354.506906306467,1.0001342235279247,0.0001629400932323496
1354.5138507249012,1354.5138507249012,1.0000985049949893,0.00016294556492814314
1354.5207951433817,1354.5207951433817,0.999884030696566,0.00016292886710109439
1354.5277395617227,1354.5277395617227,0.9996401726363026,0.000162916947821952
1354.5346839802498,1354.5346839802498,0.9997459197305,0.00016292078301725384
1354.5416283985442,1354.5416283985442,1.0001494030235132,0.00016296472518161445
1354.5485728169783,1354.5485728169783,1.0004345248534288,0.00016298887824664666
1354.5555172353656,1354.5555172353656,0.9999609761501411,0.0001629451832814733
1354.5624616536597,1354.5624616536597,0.999932492829892,0.00016293882102933957
1354.5694060719543,1354.5694060719543,1.0001105808812256,0.00016296210123086197
1354.5763504902484,1354.5763504902484,0.9998307258587008,0.00016293359074548284
1354.583294908543,1354.583294908543,0.9999508927542994,0.00016293743494940667
1354.5902393268375,1354.5902393268375,0.9999631975509672,0.00016293711473227572
1354.5971837451314,1354.5971837451314,0.9998999613022747,0.0001629406234229473
1354.604128163426,1354.604128163426,1.0002144948370926,0.00016296076828895795
1354.6110725816268,1354.6110725816268,0.9999384490371813,0.00016294022305452852
1354.6180169997815,1354.6180169997815,1.0001322070006111,0.00016296232667543283
1354.624961418076,1354.624961418076,0.9999685931136749,0.00016295690242045224
1354.6319058361375,1354.6319058361375,1.0000564219176717,0.00016295714240249876
1354.6388502543386,1354.6388502543386,1.000044331743824,0.0001629597359491339
1354.6457946724936,1354.6457946724936,1.0000727346831808,0.00016295245273777577
1354.6527390906015,1354.6527390906015,0.9997504199358863,0.0001629345986922946
1354.6596835087098,1354.6596835087098,1.000007989915233,0.000162944129388663
1354.666627926771,1354.666627926771,0.9998024455420701,0.00016293475100191037
1354.6735723448787,1354.6735723448787,0.9999626302224314,0.0001629510119142767
1354.6805167628943,1354.6805167628943,1.000134103749399,0.00016296423657480538
1354.6874611809556,1354.6874611809556,1.000033877671995,0.0001629613461324566
1354.6944055989704,1354.6944055989704,1.00011137624101,0.00016295394827976154
1354.701350016939,1354.701350016939,0.999820190077072,0.0001629395640946914
1354.7082944349072,1354.7082944349072,1.0003108251286812,0.00016296630566831212
1354.7152388528757,1354.7152388528757,1.0000820256439138,0.00016295022023965952
1354.7221832707976,1354.7221832707976,0.9999263811418808,0.0001629299665765539
1354.729127688719,1354.729127688719,0.9998704794801616,0.00016293121275513927
1354.7360721065945,1354.7360721065945,0.9998071777838291,0.00016292864522489487
1354.7430165245164,1354.7430165245164,0.9999156506750275,0.0001629364619048134
1354.7499609423448,1354.7499609423448,1.0002405981929894,0.0001629566044288304
1354.7569053602203,1354.7569053602203,1.0000223907589583,0.00016294277073544867
1354.7638497780488,1354.7638497780488,1.0001069717750533,0.00016295698356486138
1354.770794195831,1354.770794195831,0.9999504230721497,0.0001629375957582975
1354.777738613613,1354.777738613613,1.0001752965595234,0.00016295766960477254
1354.7846830313485,1354.7846830313485,1.0000420509977823,0.00016294212534180417
1354.7916274491306,1354.7916274491306,0.9998604306056691,0.0001629361380615924
1354.7985718668663,1354.7985718668663,0.9997076837267406,0.00016292031683831943
1354.8055162845553,1354.8055162845553,0.9996888267542803,0.00016293490976665128
1354.8124607021975,1354.8124607021975,1.0002140019980321,0.00016296384373590427
1354.8194051198866,1354.8194051198866,1.0002472915825096,0.00016296853972953175
1354.8263495374824,1354.8263495374824,1.0000973414375969,0.00016295386846895509
1354.833293955125,1354.833293955125,0.9998382510294647,0.00016294345364307604
1354.840238372721,1354.840238372721,1.0002840641800095,0.00016296434468359688
1354.8471827903168,1354.8471827903168,1.0000420183325074,0.00016294537636211943
1354.8541272078658,1354.8541272078658,0.9998458145593438,0.0001629332595508263
1354.8610716254152,1354.8610716254152,0.9996340972961416,0.00016291461017990753
1354.868016042918,1354.868016042918,1.0001362275059122,0.00016295768642799938
1354.8749604604204,1354.8749604604204,1.0000552076175855,0.00016294601018412364
1354.8819048778769,1354.8819048778769,1.0000453580502529,0.00016292960379717293
1354.8888492953326,1354.8888492953326,0.9998550426292034,0.0001629171764407935
1354.895793712789,1354.895793712789,0.9999800333226819,0.0001629217536197601
1354.9027381301526,1354.9027381301526,1.000240909873566,0.00016293693011824913
1354.9096825475617,1354.9096825475617,1.0000642389073682,0.0001629248571240037
1354.9166269649247,1354.9166269649247,1.0000169158794179,0.00016292395903352099
1354.923571382241,1354.923571382241,0.9997563632663992,0.00016290597477918722
1354.9305157995575,1354.9305157995575,1.0001888098929903,0.00016294673306965486
1354.9385713236147,1354.9385713236147,1.000275880319912,0.00016293776512732374
1354.9457935176165,1354.9457935176165,0.9999551175572,0.00016291394649553306
1354.9527379347933,1354.9527379347933,0.9996009546014696,0.00016288756661030573
1354.9596823521097,1354.9596823521097,1.0000057335703563,0.0001629131486608028
1354.966626769287,1354.966626769287,0.9998912411927379,0.00016290226785547414
1354.9735711864164,1354.9735711864164,0.9997912685549103,0.00016288936945527808
1354.980515603547,1354.980515603547,1.000045700872726,0.00016291704625389828
1354.9874600206772,1354.9874600206772,1.000370290920836,0.0001629317843774054
1354.9944044378071,1354.9944044378071,0.9999456011077286,0.0001629084118414509
1355.0013488549375,1355.0013488549375,1.0002046417282784,0.00016292564985293664
1355.0082932720675,1355.0082932720675,1.0000784503936144,0.00016291544440674867
1355.0152376889653,1355.0152376889653,1.0000812854798096,0.0001629091949183669
1355.0221821060952,1355.0221821060952,0.999832697622046,0.0001628982723509658
1355.0291265229923,1355.0291265229923,0.9997395741013742,0.0001628878512903851
1355.0360709400297,1355.0360709400297,1.0000292827570503,0.00016291165839299443
1355.0430153569737,1355.0430153569737,0.9999817514777465,0.00016290745055734984
1355.049959773871,1355.049959773871,0.9999250308903859,0.0001629072683363656
1355.0569041907681,1355.0569041907681,1.000096067261064,0.00016291592414833774
1355.0638486076655,1355.0638486076655,0.9999423150014017,0.00016290082699144996
1355.0707930245167,1355.0707930245167,0.999928598667663,0.00016290006020077219
1355.077737441367,1355.077737441367,1.0000697922596966,0.00016290945931470886
1355.0846818581247,1355.0846818581247,1.0002319506164787,0.00016291454768238063
1355.0916262749292,1355.0916262749292,0.999941672770013,0.00016290358840431016
1355.0985706916404,1355.0985706916404,1.0002124088335071,0.00016292013496521456
1355.1055151083979,1355.1055151083979,0.9998544491508383,0.0001628882560520888
1355.112459525109,1355.112459525109,0.9999542175858371,0.0001628952930131108
1355.11940394182,1355.11940394182,1.0001137463508396,0.0001629224900788386
1355.1263483584382,1355.1263483584382,0.9999182548374659,0.00016290447542087867
1355.1332927751025,1355.1332927751025,1.0001639599983316,0.00016292726915693366
1355.1402371916736,1355.1402371916736,0.9994904042874329,0.0001628877764330632
1355.1471816082917,1355.1471816082917,0.9999952906098184,0.0001629178589195269
1355.1541260248634,1355.1541260248634,1.0002356638525298,0.00016294704608539758
1355.1610704413881,1355.1610704413881,1.0000103364299495,0.00016292489862907816
1355.1680148578666,1355.1680148578666,0.9999741434398196,0.0001629343056445251
1355.1749592743447,1355.1749592743447,0.9998831505532305,0.00016292222943493242
1355.1819036908232,1355.1819036908232,1.000220312470106,0.0001629434859921567
1355.1888481072547,1355.1888481072547,0.9998625772734338,0.00016292507312127888
1355.1957925236397,1355.1957925236397,1.0002991328239976,0.00016294198208696253
1355.2027369400253,1355.2027369400253,0.9997360432863169,0.00016290002116781712
1355.2096813564099,1355.2096813564099,1.0000629163306642,0.00016292822932398993
1355.2166257727022,1355.2166257727022,1.000042499185764,0.00016291783122327714
1355.2235701890409,1355.2235701890409,1.0000547396452568,0.0001629128188169546
1355.2305146052863,1355.2305146052863,0.9998437329517451,0.0001629114755751739
1355.2374590215784,1355.2374590215784,1.0000651458316527,0.00016293196293320293
1355.2444034377772,1355.2444034377772,0.9997445721993541,0.00016289998503060506
1355.2513478539756,1355.2513478539756,1.0000375520239264,0.00016292515382376255
1355.258292270128,1355.258292270128,0.9998761033580154,0.00016291036629524042
1355.2652366863272,1355.2652366863272,1.0003031904293636,0.00016294827363415947
1355.2721811024326,1355.2721811024326,1.000324783145996,0.00016292090100501478
1355.2791255184918,1355.2791255184918,1.0001031919677381,0.00016291771673882205
1355.2860699345974,1355.2860699345974,0.9999973048232846,0.00016291258905306105
1355.2930143506571,1355.2930143506571,0.999927919032699,0.0001628837480853932
1355.2999587666231,1355.2999587666231,0.9996586788824136,0.00016286537176531606
1355.306903182589,1355.306903182589,0.9997537817845666,0.0001628869658738613
1355.3138475985552,1355.3138475985552,1.0001352275602418,0.00016291534495490532
1355.320792014521,1355.320792014521,1.000205058653847,0.0001629269305644723
1355.3277364304872,1355.3277364304872,1.0001462437586013,0.0001629272622754119
1355.3352363995907,1355.3352363995907,1.0005010948337976,0.0001629605458900525
1355.3430141453796,1355.3430141453796,1.0000307322227857,0.00016292015711805684
1355.3499585611596,1355.3499585611596,0.9997774567335045,0.0001629087444780443
1355.3569029769858,1355.3569029769858,0.9998163677259451,0.00016291042637034503
1355.3638473927656,1355.3638473927656,0.9998464094282298,0.00016291720948348657
1355.3707918084988,1355.3707918084988,0.9995437938691897,0.00016287012597284936
1355.3777362241856,1355.3777362241856,0.9998867124299782,0.00016290604304508105
1355.384680639872,1355.384680639872,1.0000416178821285,0.00016291649659236324
1355.3916250555587,1355.3916250555587,1.00019398728933,0.0001629418803232524
1355.3994028010216,1355.3994028010216,1.0002274611275932,0.00016294043722761117
1355.4069027698456,1355.4069027698456,1.0001383842839424,0.00016292984091628333
1355.4138471854394,1355.4138471854394,1.0001603877379623,0.00016292937681960002
1355.420791601033,1355.420791601033,1.0000849040440443,0.0001629396319595173
1355.4277360165331,1355.4277360165331,1.000075361717272,0.0001629229416621237
1355.434680431987,1355.434680431987,0.9999840600027363,0.00016293105125260733
1355.4416248474877,1355.4416248474877,0.9999360757100814,0.0001629257813956171
1355.4485692628948,1355.4485692628948,1.0000575864361816,0.00016294480547521066
1355.4555136782553,1355.4555136782553,0.999888735839912,0.00016294383932908535
1355.4624580936625,1355.4624580936625,0.9999245957616694,0.0001629306550675178
1355.4694025090234,1355.4694025090234,0.9996512178592815,0.00016291008372102878
1355.476346924384,1355.476346924384,0.9998651473540898,0.00016294018082008973
1355.4832913396517,1355.4832913396517,0.9997882199558502,0.00016291198224356132
1355.4902357549195,1355.4902357549195,0.9999567223453404,0.0001629219818569091
1355.4971801701402,1355.4971801701402,1.000354919728378,0.00016295236645702025
1355.5041245854077,1355.5041245854077,0.9999993676635729,0.00016291163648032454
1355.5110690005354,1355.5110690005354,1.0003264210372629,0.0001629444620161186
1355.5180134157101,1355.5180134157101,1.0000579785960846,0.00016290754433877293
1355.524957830791,1355.524957830791,1.0004435214672334,0.0001629395352562618
1355.5319022459191,1355.5319022459191,1.0000018972815354,0.00016289059238519234
1355.5388466610007,1355.5388466610007,0.9997694306913457,0.00016287585597981021
1355.5457910760351,1355.5457910760351,0.9998243079808045,0.0001628776967665868
1355.5527354910234,1355.5527354910234,0.999849534512442,0.00016288242790246302
1355.5596799060581,1355.5596799060581,1.0001195093193676,0.00016291975018957293
1355.5666243209528,1355.5666243209528,1.0001376474574375,0.00016292006701315766
1355.5735687358947,1355.5735687358947,0.9999092800167606,0.0001629087425642473
1355.5805131506963,1355.5805131506963,1.0002332688628384,0.00016291972022244305
1355.5874575657313,1355.5874575657313,1.0001861117778328,0.00016292094475743455
1355.5944019805331,1355.5944019805331,0.9998962984746962,0.00016289587180874375
1355.601346395335,1355.601346395335,0.9997328872547788,0.00016289650417553725
1355.6082908101369,1355.6082908101369,0.9997361830907318,0.00016288772044504638
1355.6152352247525,1355.6152352247525,1.0000665635923218,0.00016291903484492664
1355.6221796395077,1355.6221796395077,0.9999915148166391,0.00016291745905146427
1355.6291240542166,1355.6291240542166,1.0000622409975262,0.00016292111433881495
1355.6360684688789,1355.6360684688789,1.0004037388528215,0.00016294484982897668
1355.6430128834943,1355.6430128834943,1.0001178782664988,0.00016292257929564847
1355.64995729811,1355.64995729811,0.9997948444694981,0.00016290055948543677
1355.6569017126792,1355.6569017126792,0.9998343315862295,0.00016290815841751562
1355.6638461272019,1355.6638461272019,0.9999398024463281,0.00016290393054995995
1355.6707905417243,1355.6707905417243,0.9999770175935202,0.00016292240991184066
1355.6777349562003,1355.6777349562003,1.0000175587010824,0.00016291741616244977
1355.6846793706295,1355.6846793706295,0.9997506540851395,0.00016289580553614254
1355.6916237850587,1355.6916237850587,0.9999351861862188,0.00016291947554298807
1355.6985681994418,1355.6985681994418,1.0004888291316714,0.00016295470028483876
1355.7055126138246,1355.7055126138246,1.000130395422907,0.00016292991848601085
1355.7124570281608,1355.7124570281608,0.9997582785165037,0.00016289221883343123
1355.719401442497,1355.719401442497,0.9999605335543164,0.00016289699886911605
1355.7263458566936,1355.7263458566936,1.0001478669348103,0.00016291325379269003
1355.7332902710298,1355.7332902710298,0.9998904889203948,0.00016290518664042287
1355.7402346852264,1355.7402346852264,0.9999629050974905,0.00016291977078011663
1355.7482902056515,1355.7482902056515,1.000116451369965,0.0001629141476677333
1355.755512396347,1355.755512396347,1.0001066619052446,0.0001629294167190221
1355.7624568104968,1355.7624568104968,0.9999377894134882,0.00016291531762733776
1355.7694012245536,1355.7694012245536,0.9999526353173046,0.00016292963639640928
1355.776345638657,1355.776345638657,0.9999646139880836,0.00016292177813084907
1355.7832900526676,1355.7832900526676,0.9999403900553474,0.0001629256522423899
1355.790234466631,1355.790234466631,1.0000777280404627,0.00016293199271914482
1355.797178880595,1355.797178880595,1.0000003102349446,0.00016294162199871046
1355.8041232945584,1355.8041232945584,1.0001839474140233,0.00016294201284032512
1355.8110677084755,1355.8110677084755,0.9997091469636239,0.00016291897621271734
1355.8180121223465,1355.8180121223465,1.0001354290981843,0.00016295517108869467
1355.8249565361702,1355.8249565361702,0.9999297099540602,0.00016292981789265345
1355.8319009499942,1355.8319009499942,0.9998306107498218,0.00016291704485958127
1355.838845363772,1355.838845363772,1.000089080110035,0.00016294303159314133
1355.845789777503,1355.845789777503,0.9999267414788529,0.00016293865808737073
1355.8527341911872,1355.8527341911872,1.000200483437662,0.0001629384858066721
1355.8596786050114,1355.8596786050114,1.000022773291149,0.00016294012700337267
1355.8666230186486,1355.8666230186486,1.000214231446202,0.00016294208022689876
