time,time,flux,flux_err
1325.2983564946217,1325.2983564946217,1.0000414628080405,0.00020104273960119164
1325.3066898695013,1325.3066898695013,0.9998443252451833,0.00020104576249965872
1325.3150232446922,1325.3150232446922,0.9999557444680245,0.00020108125075267045
1325.3233566201538,1325.3233566201538,1.0003693040109654,0.00020115169640192235
1325.330995547917,1325.330995547917,0.9997587365938753,0.00018360292657668408
1325.3379400279,1325.3379400279,0.9999478037444719,0.0001836726101996741
1325.3448845081045,1325.3448845081045,0.9999761497173539,0.00018371021463612456
1325.3518289884948,1325.3518289884948,1.0001304944382816,0.0001837686057846062
1325.3587734690832,1325.3587734690832,0.9997520541160949,0.0001838006545450946
1325.3657179498466,1325.3657179498466,1.000120902464284,0.00018387237357621225
1325.372662430807,1325.372662430807,1.0002274823507027,0.000183929495193622
1325.3796069119546,1325.3796069119546,0.9999616174957845,0.00018395136810589287
1325.3865513932765,1325.3865513932765,0.9998666718591682,0.0001840091809677977
1325.393495874796,1325.393495874796,0.9999778095356125,0.00018406817925355995
1325.400440356502,1325.400440356502,1.0001236225196064,0.00018413453825290893
1325.407384838371,1325.407384838371,0.9997054791363599,0.00018412228338502416
1325.4143293204147,1325.4143293204147,0.9999128451046,0.0001842052814160124
1325.4212738026326,1325.4212738026326,1.0003021999200692,0.00018426945177206388
1325.4282182850372,1325.4282182850372,1.0000553494216244,0.00018429909857097554
1325.435162767593,1325.435162767593,1.0000798086532003,0.00018433693505672034
1325.442107250335,1325.442107250335,1.00005468636066,0.00018437397531977545
1325.4490517332283,1325.4490517332283,0.9999467267506551,0.0001843868007437637
1325.4559962162966,1325.4559962162966,0.9998970766690028,0.00018443121179149706
1325.462940699516,1325.462940699516,0.9999125666002844,0.00018445540725205064
1325.4698851828985,1325.4698851828985,0.9997164133987507,0.00018447566074125123
1325.4768296664438,1325.4768296664438,1.0001726776866369,0.0001845565674891493
1325.483774150152,1325.483774150152,1.0001321373272358,0.00018459971186089754
1325.4907186340001,1325.4907186340001,1.0001210105497989,0.0001846322227495104
1325.4976631180111,1325.4976631180111,0.9998650113928607,0.00018464999178159058
1325.5046076021968,1325.5046076021968,1.000148895052731,0.00018470721905954635
1325.5115520864872,1325.5115520864872,0.9998142348054009,0.0001847188206342493
1325.5184965709523,1325.5184965709523,0.9999907824638564,0.0001847830462328089
1325.5254410555567,1325.5254410555567,1.0000355916440586,0.00018482204736242118
1325.5323855403128,1325.5323855403128,0.9998714965876827,0.0001848647930451751
1325.539330025197,1325.539330025197,1.0001958993173399,0.0001849360227871689
1325.5462745102327,1325.5462745102327,1.0000898285749895,0.00018496180420106073
1325.5532189954076,1325.5532189954076,0.9999267340396459,0.00018499631926987068
1325.5601634807226,1325.5601634807226,0.9999262294188977,0.00018504150075734002
1325.5671079661656,1325.5671079661656,1.0000358194943064,0.0001850974623557771
1325.5740524517482,1325.5740524517482,1.0002963675961716,0.00018515343350020732
1325.5809969374707,1325.5809969374707,0.9997455110430803,0.0001851442535001663
1325.5879414232973,1325.5879414232973,0.999832440420876,0.00018518560720541655
1325.5948859092878,1325.5948859092878,0.9999914020033689,0.00018522636478470283
1325.6018303953824,1325.6018303953824,1.0003160932282937,0.00018528911810247137
1325.608774881617,1325.608774881617,0.9996875308127292,0.00018526047577195306
1325.6157193679678,1325.6157193679678,1.000118605440901,0.00018530469998538382
1325.6226638544354,1325.6226638544354,1.0000249047065888,0.00018530885006054373
1325.629608341054,1325.629608341054,0.9999207611669233,0.00018530703775165543
1325.6365528277777,1325.6365528277777,0.9999555280983315,0.00018533159954953058
1325.6434973146056,1325.6434973146056,1.000040520722976,0.00018533129606617936
1325.6504418015622,1325.6504418015622,1.000037399875569,0.00018533470188059441
1325.6573862886348,1325.6573862886348,0.9999754824384761,0.00018533488219457244
1325.664330775824,1325.664330775824,1.0000169721636145,0.0001853351357649455
1325.671275263141,1325.671275263141,0.9998380918196507,0.00018532068866373348
1325.67821975054,1325.67821975054,1.0003888055085912,0.000185383212984925
1325.6851642380552,1325.6851642380552,1.0001110568179912,0.00018536934601191935
1325.6921087256865,1325.6921087256865,0.9998896592076079,0.0001853841221382813
1325.699053213435,1325.699053213435,0.9997618802659872,0.00018537587353442366
1325.705997701299,1325.705997701299,0.9999854339950559,0.00018542888683891729
1325.7129421892332,1325.7129421892332,1.0000047833287458,0.0001854457835755253
1325.7198866772953,1325.7198866772953,0.9998034047689035,0.00018546281570558268
1325.7268311654393,1325.7268311654393,1.0000699653567622,0.00018553232292297257
1325.7337756537224,1325.7337756537224,1.0001993078663967,0.00018555664943656122
1325.7407201420758,1325.7407201420758,1.0001139657711777,0.00018557534800256144
1325.7476646305222,1325.7476646305222,0.9999841270097598,0.0001855925030602406
1325.7546091190852,1325.7546091190852,0.9999520301143177,0.00018562548705296472
1325.7615536077528,1325.7615536077528,1.0000123991692924,0.0001856800022001157
1325.7684980965137,1325.7684980965137,1.000022701795946,0.00018571507660438658
1325.775442585344,1325.775442585344,0.9997801273166562,0.0001857178633667841
1325.7823870742795,1325.7823870742795,0.9999046971306725,0.00018577592476618683
1325.7893315633314,1325.7893315633314,1.0000906385286545,0.00018581901648223636
1325.7962760524297,1325.7962760524297,1.0000101132780248,0.00018583828573933835
1325.8032205416448,1325.8032205416448,1.0003117299274593,0.00018588749068235605
1325.810165030964,1325.810165030964,0.9999997870371908,0.00018588272497510513
1325.817109520342,1325.817109520342,1.0000757655723902,0.0001859136544697377
1325.824054009801,1325.824054009801,0.9997446879542713,0.0001858991549716516
1325.8309984993653,1325.8309984993653,0.9998474105305846,0.00018593523515316384
1325.8379429890108,1325.8379429890108,0.9999441314611763,0.00018594512662172566
1325.8448874787377,1325.8448874787377,1.0000364276217273,0.00018594917140180551
1325.8518319685459,1325.8518319685459,1.000006924833924,0.00018594703306902812
1325.8587764584477,1325.8587764584477,0.9998778506533018,0.0001859223724801398
1325.8657209484077,1325.8657209484077,1.000354826865021,0.00018595098729903337
1325.8726654384723,1325.8726654384723,0.9999246269298094,0.0001858647806619085
1325.879609928595,1325.879609928595,1.0002130192227383,0.00018586627239203905
1325.8865544188227,1325.8865544188227,0.9997384337764477,0.00018579059845036941
1325.8934989090853,1325.8934989090853,1.000078149587728,0.0001858017974366658
1325.900443399441,1325.900443399441,0.9997995684133867,0.00018576506260043472
1325.9073878898896,1325.9073878898896,1.000106272918677,0.0001857752478658708
1325.9143323803848,1325.9143323803848,1.0001333984375829,0.0001857359525859861
1325.9212768709735,1325.9212768709735,0.9999034762126164,0.00018572595398857024
1325.9282213616202,1325.9282213616202,0.999950128801491,0.00018571926931249355
1325.93516585236,1325.93516585236,1.0002298770570106,0.00018572953792662301
1325.9421103431346,1325.9421103431346,0.9995624226281894,0.00018568427129523894
1325.9490548340145,1325.9490548340145,0.9999726600231842,0.00018569609851390654
1325.955999324952,1325.955999324952,0.9999518142533976,0.00018569930514949034
1325.964054934526,1325.964054934526,1.0000261271759627,0.00018572250951457862
1325.9712772052596,1325.9712772052596,1.0000165630348283,0.0001857188806254067
1325.9782216963952,1325.9782216963952,0.9998678288331512,0.00018572302956926392
1325.9851661876005,1325.9851661876005,1.0001183473370923,0.0001857518729580744
1325.9921106788756,1325.9921106788756,0.9998286534269034,0.00018574396222871754
1325.9990551702444,1325.9990551702444,1.0001366304824297,0.00018579719124215506
1326.0059996616478,1326.0059996616478,1.0002415659496133,0.00018583173108682697
1326.0129441531094,1326.0129441531094,0.9996996868234269,0.00018582420591173484
1326.0198886446294,1326.0198886446294,1.0002267371454054,0.00018590862494969498
1326.0268331362306,1326.0268331362306,0.9997174460883544,0.0001859107101901297
1326.0337776278668,1326.0337776278668,1.0001589351842777,0.0001859582499426946
1326.0407221195958,1326.0407221195958,1.0001857925008775,0.00018595831574993462
1326.0476666113489,1326.0476666113489,0.999940036718064,0.00018595487899329704
1326.0546111031708,1326.0546111031708,0.9998937985057946,0.0001859642341547451
1326.0615555950637,1326.0615555950637,1.000085374615039,0.00018602469535691264
1326.068500087014,1326.068500087014,0.9998953319069507,0.000185998766009875
1326.0754445789994,1326.0754445789994,0.9999711424687343,0.00018602860503569524
1326.0823890710549,1326.0823890710549,1.0000736264091508,0.00018605918584954956
1326.0893335631567,1326.0893335631567,0.9999911187833932,0.0001860829979625849
1326.096278055317,1326.096278055317,0.999762331249609,0.0001860613145766911
1326.103222547524,1326.103222547524,1.0002124193799407,0.00018612412962053395
1326.1101670397998,1326.1101670397998,0.9998072463225336,0.00018610769347822558
1326.1171115321115,1326.1171115321115,0.9999987104858284,0.00018612065549378448
1326.124056024481,1326.124056024481,1.0002072293168964,0.0001861341342576573
1326.1310005169094,1326.1310005169094,1.0000926485865125,0.0001861494746390961
1326.1379450093832,1326.1379450093832,1.000225867382006,0.00018616870439110223
1326.1448895018814,1326.1448895018814,0.9999137781596994,0.00018616522094165044
1326.1518339944487,1326.1518339944487,0.9998641327908903,0.00018617223402996768
1326.1587784870858,1326.1587784870858,0.9994361596328256,0.0001861430957496177
1326.165722979747,1326.165722979747,1.0004038999767921,0.000186223795094313
1326.1726674724537,1326.1726674724537,0.9997767484452696,0.00018618858456024976
1326.1796119652195,1326.1796119652195,1.0000366878433222,0.00018620830535026842
1326.1865564580314,1326.1865564580314,1.0001631157836695,0.00018622741058858813
1326.1935009508666,1326.1935009508666,1.000057948469267,0.00018622513904928043
1326.200445443772,1326.200445443772,1.0003500729431392,0.00018626279583841595
1326.207389936712,1326.207389936712,0.9999354510763286,0.0001862546992505012
1326.2143344296987,1326.2143344296987,0.9998193161565334,0.00018625328952499273
1326.22127892272,1326.22127892272,1.000119398002016,0.00018628683379592821
1326.2282234158,1326.2282234158,0.9997463383495571,0.00018627442024384477
1326.235167908926,1326.235167908926,1.000043192713088,0.00018632484868808842
1326.2421124020755,1326.2421124020755,1.0001285079950883,0.00018633530464393466
1326.2490568952608,1326.2490568952608,0.9999424154811167,0.00018633422077175133
1326.2560013885147,1326.2560013885147,0.999669200134632,0.00018634420853872266
1326.262945881781,1326.262945881781,0.9999529367850407,0.00018638841093994294
1326.2698903751054,1326.2698903751054,1.0003434527176527,0.00018641054328261968
1326.2768348684644,1326.2768348684644,0.9998362595118158,0.0001863865373776676
1326.2837793618469,1326.2837793618469,1.0004256660511992,0.00018645471362436204
1326.2907238552875,1326.2907238552875,0.9998046562407774,0.00018643477233496218
1326.2976683487748,1326.2976683487748,0.9998619876578754,0.00018644808336371212
1326.304612842285,1326.304612842285,1.0001497329778046,0.00018650019644064325
1326.3115573358423,1326.3115573358423,0.9999023252781113,0.00018651155263926962
1326.3185018294228,1326.3185018294228,0.9998516006260424,0.0001865321030167457
1326.3254463230494,1326.3254463230494,1.0002609141161216,0.0001866072340205338
1326.3323908167115,1326.3323908167115,0.9998498073631821,0.00018660880670023523
1326.3393353104198,1326.3393353104198,0.9998178496543787,0.00018665786084913605
1326.3473909231489,1326.3473909231489,1.0003636647363803,0.0001867627113565265
1326.3560020954224,1326.3560020954224,0.9998035503942498,0.0001867473914922894
1326.3629465892475,1326.3629465892475,1.0000812673423674,0.00018682931234413413
1326.3698910830838,1326.3698910830838,1.0001593645689528,0.0001868778188303342
1326.3768355769669,1326.3768355769669,0.999701073111393,0.00018689832447895506
1326.3837800708848,1326.3837800708848,1.0000511736623323,0.00018695432302554476
1326.3907245648375,1326.3907245648375,0.9999989295356582,0.00018699861068991174
1326.397669058814,1326.397669058814,1.0001404704410126,0.0001870580125551065
1326.4046135528365,1326.4046135528365,1.000117276874957,0.0001870984480795147
1326.41155804686,1326.41155804686,0.999749138192065,0.0001871162547703656
1326.418502540952,1326.418502540952,0.9999443303257992,0.00018717384834796518
1326.4254470350447,1326.4254470350447,0.999892350376067,0.000187203710278246
1326.4323915291836,1326.4323915291836,1.000207627551854,0.00018728313599124526
1326.4393360233462,1326.4393360233462,1.0000176577558522,0.00018731304228385685
1326.4462805175551,1326.4462805175551,0.9999111060830466,0.00018735810242836716
1326.4532250117759,1326.4532250117759,1.0003424753017085,0.00018743169520458596
1326.4601695060314,1326.4601695060314,0.9997809136015764,0.00018742074616788208
1326.4671140003218,1326.4671140003218,0.9995812516065243,0.0001874298419864648
1326.4740584946353,1326.4740584946353,1.0004739751697687,0.00018757485976365695
1326.4810029889613,1326.4810029889613,0.9998240558438274,0.00018756914117235422
1326.4879474833447,1326.4879474833447,1.000096879283726,0.0001876326067499396
1326.4948919777285,1326.4948919777285,0.9999064138584727,0.00018765210306874908
1326.5018364721582,1326.5018364721582,1.0000279618206909,0.00018772913933683464
1326.5087809666006,1326.5087809666006,1.000246772613822,0.00018779411160875194
1326.5157254610888,1326.5157254610888,0.9999221178781228,0.0001878088144661632
1326.522669955589,1326.522669955589,0.9998651251272763,0.00018785745325682735
1326.5296144501121,1326.5296144501121,0.9997782358635627,0.0001879243428712302
1326.5365589446817,1326.5365589446817,1.0001577166566984,0.00018800393055784303
1326.543503439229,1326.543503439229,1.0001848904097705,0.0001880776159432606
1326.5504479338335,1326.5504479338335,0.9999470018878694,0.00018811386333822793
1326.5573924284968,1326.5573924284968,1.0000472117369046,0.00018816779503520056
1326.5643369231361,1326.5643369231361,0.999924773026215,0.00018820352194013894
1326.5712814178225,1326.5712814178225,0.999774030516333,0.00018821456226258962
1326.5782259125208,1326.5782259125208,0.999785319548615,0.0001882650062059168
1326.5851704072534,1326.5851704072534,1.0002000736308705,0.0001883338328321381
1326.5921149019982,1326.5921149019982,1.0002084687015822,0.00018838367426226248
1326.5990593967658,1326.5990593967658,1.000057444237299,0.00018840171306901243
1326.6060038915684,1326.6060038915684,0.99997947044341,0.0001884318018682558
1326.612948386383,1326.612948386383,1.0000476592485874,0.00018848392985355253
1326.6198928812203,1326.6198928812203,0.9998142047515504,0.00018848647994203056
1326.6268373760815,1326.6268373760815,1.0002605276420145,0.00018855329628098065
1326.6337818709537,1326.6337818709537,1.000142807610223,0.00018857053947934896
1326.6407263658734,1326.6407263658734,0.9994911777184378,0.00018854583949165518
1326.647670860804,1326.647670860804,1.0000423118127286,0.00018859605583923696
1326.6546153557465,1326.6546153557465,1.0000439954082605,0.00018861153267360877
1326.6615598507237,1326.6615598507237,1.0000335802713085,0.00018861178944207227
1326.6685043457007,1326.6685043457007,1.0000764146335375,0.0001886124731449141
1326.6754488407253,1326.6754488407253,1.0000904757569598,0.00018861130336073658
1326.6823933357605,1326.6823933357605,0.9999913118134405,0.00018860534108114372
1326.6907267298102,1326.6907267298102,1.0002480721347045,0.0001885973723152512
1326.6976712248922,1326.6976712248922,0.9998208033650433,0.00018855358258902717
1326.7046157199743,1326.7046157199743,0.999810942790775,0.00018850965414666485
1326.712393554514,1326.712393554514,1.0000367916189228,0.00018857065849608822
1326.7198936092464,1326.7198936092464,0.9996001015895883,0.0001885143192107555
1326.726838104421,1326.726838104421,1.0001903362731848,0.00018854643395246591
1326.7337825995498,1326.7337825995498,1.0000868042243027,0.0001885346137509722
1326.7407270947604,1326.7407270947604,0.9999419364040578,0.00018851739936798416
1326.7476715899818,1326.7476715899818,1.0005013764954227,0.00018854013193542567
1326.7546160852037,1326.7546160852037,0.999768226611079,0.00018848896695644628
1326.7615605804372,1326.7615605804372,1.00004442057215,0.00018850677857010147
1326.768505075694,1326.768505075694,1.000071162318069,0.00018854532282707237
1326.7754495709855,1326.7754495709855,0.9999184807761846,0.00018852729378983317
1326.7823940662772,1326.7823940662772,0.9999134066245752,0.00018853896912878385
1326.7893385615807,1326.7893385615807,0.9998003394029208,0.00018854013165590282
1326.7962830569188,1326.7962830569188,0.9998932881486147,0.00018857353404718702
1326.8032275522576,1326.8032275522576,1.0001160870262287,0.00018861352370209533
1326.8101720476184,1326.8101720476184,1.0002494791821257,0.000188648400884216
1326.8171165429917,1326.8171165429917,0.9998642143726739,0.00018863910328307642
1326.8240610383996,1326.8240610383996,1.0000150241852817,0.00018865987323713233
1326.831005533808,1326.831005533808,1.0000318088143698,0.0001886447522157693
1326.837950029216,1326.837950029216,1.000183708302559,0.0001886809293524752
1326.844894524659,1326.844894524659,0.999803065037604,0.00018865981459717228
1326.8518390201136,1326.8518390201136,0.9998578667275708,0.0001886681818830722
1326.8587835155915,1326.8587835155915,0.999917075697706,0.00018864702029534858
1326.8657280110697,1326.8657280110697,1.0000001796156492,0.00018865239509754177
1326.8726725065594,1326.8726725065594,1.0001806259554136,0.00018864120241894426
1326.8796170020837,1326.8796170020837,1.0003824216096746,0.00018861917867621527
1326.8865614976082,1326.8865614976082,0.999958960634709,0.0001885406533050247
1326.8935059931441,1326.8935059931441,1.0000896574229172,0.0001885258051010983
1326.9004504887157,1326.9004504887157,0.9996326174346841,0.00018843145949546438
1326.9073949842748,1326.9073949842748,0.9999070743956502,0.00018840755713312658
1326.9143394798575,1326.9143394798575,0.9999013278170367,0.00018834943934305123
1326.9212839754637,1326.9212839754637,1.000195917824892,0.00018830066372127008
1326.928228471058,1326.928228471058,1.0000254761731444,0.00018822518099653878
1326.9351729666755,1326.9351729666755,0.9997864985469199,0.0001881570128791602
1326.9421174623278,1326.9421174623278,1.0001511812002168,0.00018813197382575676
1326.9490619579692,1326.9490619579692,0.9998484470038281,0.0001880533220568142
1326.9560064536213,1326.9560064536213,1.0000358494239778,0.00018801715548862156
1326.9629509492977,1326.9629509492977,1.0000511466239579,0.0001879836564674994
1326.9698954449966,1326.9698954449966,0.9999494877281334,0.00018791300815927211
1326.976839940684,1326.976839940684,0.9999853613421953,0.00018788869820606747
1326.9837844363951,1326.9837844363951,1.0001604277904403,0.00018787749239654238
1326.9907289321175,1326.9907289321175,1.0001259525354094,0.000187861582227862
1326.9976734278396,1326.9976734278396,1.0003543326221096,0.0001878474901600401
1327.0046179235972,1327.0046179235972,0.9998232683046426,0.0001878218904753537
1327.0115624193659,1327.0115624193659,0.9997276634784169,0.00018779277396848353
1327.018506915135,1327.018506915135,0.9998423453281365,0.00018780254477370644
1327.025451410904,1327.025451410904,0.9997154134739373,0.00018780637787062807
1327.0323959066732,1327.0323959066732,1.0001015435638183,0.00018784864862446084
1327.0393404024999,1327.0393404024999,0.9999538388445943,0.00018782806002989698
1327.0462848982925,1327.0462848982925,0.9998860512050708,0.00018781697274898704
1327.0532293941194,1327.0532293941194,1.0001498592107585,0.0001878662021374603
