time,time,flux,flux_err
1354.1084382263966,1354.1084382263966,12547.527,14.38886
1354.109827124375,1354.109827124375,12573.407,14.405068
1354.1126049202135,1354.1126049202135,12527.62,14.359449
1354.1139938181918,1354.1139938181918,12558.492,14.415653
1354.1153827160533,1354.1153827160533,12544.471,14.403924
1354.116771614031,1354.116771614031,12536.096,14.40145
1354.1181605120087,1354.1181605120087,12546.379,14.402168
1354.119549409987,1354.119549409987,12542.219,14.396139
1354.1209383079656,1354.1209383079656,12536.132,14.392966
1354.1223272060597,1354.1223272060597,12534.531,14.39767
1354.1237161040376,1354.1237161040376,12562.793,14.40594
1354.125105002015,1354.125105002015,12550.854,14.392094
1354.1264939001094,1354.1264939001094,12553.702,14.400165
1354.1278827980877,1354.1278827980877,12539.487,14.394954
1354.129271696182,1354.129271696182,12526.154,14.388695
1354.1306605941595,1354.1306605941595,12540.044,14.398901
1354.1320494922545,1354.1320494922545,12551.567,14.403997
1354.1334383903486,1354.1334383903486,12525.649,14.395915
1354.1348272884434,1354.1348272884434,12563.69,14.402445
1354.1362161864213,1354.1362161864213,12546.385,14.397817
1354.1376050845147,1354.1376050845147,12539.211,14.391352
1354.1389939826095,1354.1389939826095,12527.651,14.40287
1354.1403828808207,1354.1403828808207,12543.66,14.397902
1354.141771778915,1354.141771778915,12555.305,14.401879
1354.143160677009,1354.143160677009,12567.998,14.410069
1354.1445495751032,1354.1445495751032,12537.755,14.3929615
1354.1459384733143,1354.1459384733143,12555.804,14.406645
1354.1473273714093,1354.1473273714093,12548.505,14.401114
1354.1487162696194,1354.1487162696194,12541.532,14.396679
1354.1501051678297,1354.1501051678297,12545.952,14.397109
1354.1514940659245,1354.1514940659245,12538.452,14.403267
1354.1528829641359,1354.1528829641359,12540.926,14.398493
1354.1542718623464,1354.1542718623464,12544.63,14.402789
1354.1556607605562,1354.1556607605562,12566.778,14.405914
1354.1570496587674,1354.1570496587674,12559.101,14.408197
1354.1584385569788,1354.1584385569788,12536.47,14.402863
1354.1598274551893,1354.1598274551893,12545.457,14.396696
1354.1612163534,1354.1612163534,12549.195,14.399878
1354.1626052517267,1354.1626052517267,12553.937,14.396602
1354.1639941499382,1354.1639941499382,12537.054,14.393839
1354.1653830481496,1354.1653830481496,12542.332,14.395267
1354.1667719464758,1354.1667719464758,12550.253,14.402941
1354.1681608448027,1354.1681608448027,12549.574,14.404293
1354.1695497430142,1354.1695497430142,12557.983,14.407801
1354.1709386413409,1354.1709386413409,12551.87,14.402137
1354.1723275396685,1354.1723275396685,12562.348,14.403193
1354.1737164379956,1354.1737164379956,12559.575,14.41014
1354.1751053362063,1354.1751053362063,12544.333,14.406677
1354.176494234534,1354.176494234534,12534.409,14.403376
1354.1778831328606,1354.1778831328606,12546.454,14.404019
1354.179272031305,1354.179272031305,12555.006,14.404401
1354.1806609296318,1354.1806609296318,12568.624,14.406585
1354.182049827958,1354.182049827958,12533.089,14.396833
1354.1834387262859,1354.1834387262859,12526.4795,14.389185
1354.1848276247301,1354.1848276247301,12534.315,14.395208
1354.1862165230568,1354.1862165230568,12556.045,14.399455
1354.1876054215004,1354.1876054215004,12545.729,14.39837
1354.1889943198273,1354.1889943198273,12524.808,14.392916
1354.1903832182716,1354.1903832182716,12555.013,14.400885
1354.1917721167156,1354.1917721167156,12548.888,14.401985
1354.1931610151582,1354.1931610151582,12546.284,14.398613
1354.1945499136016,1354.1945499136016,12532.175,14.390568
1354.1959388120458,1354.1959388120458,12553.28,14.403177
1354.1973277104898,1354.1973277104898,12559.66,14.399463
1354.198716608933,1354.198716608933,12543.689,14.395374
1354.2001055073758,1354.2001055073758,12544.581,14.403478
1354.20149440582,1354.20149440582,12537.629,14.391404
1354.202883304264,1354.202883304264,12559.642,14.405142
1354.2042722028236,1354.2042722028236,12542.157,14.397438
1354.2056611012672,1354.2056611012672,12539.1045,14.39899
1354.2070499998272,1354.2070499998272,12538.451,14.401298
1354.2084388982712,1354.2084388982712,12524.091,14.38921
1354.2098277968316,1354.2098277968316,12537.676,14.3921
1354.2112166953907,1354.2112166953907,12554.707,14.405415
1354.2126055938343,1354.2126055938343,12552.208,14.403853
1354.2139944923947,1354.2139944923947,12539.114,14.393391
1354.2153833909545,1354.2153833909545,12555.931,14.409748
1354.2167722895151,1354.2167722895151,12548.373,14.401028
1354.2181611880746,1354.2181611880746,12521.558,14.383875
1354.2195500866346,1354.2195500866346,12537.901,14.388479
1354.220938985195,1354.220938985195,12524.253,14.391179
1354.222327883755,1354.222327883755,12562.984,14.404133
1354.223716782431,1354.223716782431,12533.267,14.391167
1354.225105680991,1354.225105680991,12557.612,14.400082
1354.2264945795507,1354.2264945795507,12530.353,14.392345
1354.2278834782278,1354.2278834782278,12533.23,14.394998
1354.2292723769046,1354.2292723769046,12560.019,14.407648
1354.2306612754644,1354.2306612754644,12553.478,14.402126
1354.2320501741406,1354.2320501741406,12544.953,14.404631
1354.233439072817,1354.233439072817,12537.955,14.393544
1354.2348279713774,1354.2348279713774,12548.756,14.402866
1354.2362168700542,1354.2362168700542,12535.74,14.387991
1354.2376057687297,1354.2376057687297,12542.644,14.400202
1354.2389946674061,1354.2389946674061,12544.187,14.401661
1354.240383566083,1354.240383566083,12560.222,14.405666
1354.2417724647598,1354.2417724647598,12541.731,14.395934
1354.2431613634362,1354.2431613634362,12543.769,14.403405
1354.2445502622281,1354.2445502622281,12547.71,14.396116
1354.245939160905,1354.245939160905,12564.991,14.401141
1354.2473280595818,1354.2473280595818,12534.466,14.39033
1354.2487169583746,1354.2487169583746,12509.497,14.388093
1354.2501058570506,1354.2501058570506,12555.7295,14.400923
1354.2514947558434,1354.2514947558434,12556.526,14.397586
1354.2528836546367,1354.2528836546367,12534.595,14.395349
1354.2542725533135,1354.2542725533135,12524.48,14.394529
1354.2556614521054,1354.2556614521054,12544.447,14.396043
1354.2570503508982,1354.2570503508982,12554.9,14.402314
1354.2584392496915,1354.2584392496915,12549.153,14.39116
1354.2598281484843,1354.2598281484843,12534.079,14.396061
1354.2612170472776,1354.2612170472776,12543.956,14.392881
1354.2626059460702,1354.2626059460702,12530.142,14.386878
1354.2639948448627,1354.2639948448627,12573.894,14.403919
1354.265383743656,1354.265383743656,12532.876,14.384064
1354.2667726424488,1354.2667726424488,12550.031,14.400045
1354.2681615412416,1354.2681615412416,12539.279,14.39193
1354.2695504401504,1354.2695504401504,12563.491,14.400727
1354.2709393389432,1354.2709393389432,12527.849,14.390472
1354.272328237853,1354.272328237853,12551.12,14.392245
1354.2737171366462,1354.2737171366462,12557.868,14.40536
1354.2751060355554,1354.2751060355554,12533.502,14.393044
1354.2764949344642,1354.2764949344642,12534.611,14.39195
1354.277883833257,1354.277883833257,12556.529,14.401959
1354.2792727321666,1354.2792727321666,12560.782,14.403792
1354.2806616310759,1354.2806616310759,12564.984,14.400503
1354.2820505299842,1354.2820505299842,12549.605,14.399235
1354.2834394288939,1354.2834394288939,12571.842,14.40756
1354.2848283278036,1354.2848283278036,12537.509,14.395874
1354.2862172267132,1354.2862172267132,12550.559,14.400026
1354.2876061256225,1354.2876061256225,12544.216,14.388866
1354.2889950245308,1354.2889950245308,12559.855,14.403242
1354.2903839234405,1354.2903839234405,12546.808,14.393176
1354.2917728224666,1354.2917728224666,12546.102,14.394987
1354.293161721375,1354.293161721375,12544.092,14.395479
1354.2945506204005,1354.2945506204005,12546.771,14.397408
1354.2959395193102,1354.2959395193102,12540.705,14.397632
1354.2973284183363,1354.2973284183363,12534.015,14.389549
1354.2987173172462,1354.2987173172462,12536.309,14.3939495
1354.3001062162712,1354.3001062162712,12545.92,14.395396
1354.3014951152963,1354.3014951152963,12561.066,14.401165
1354.302884014206,1354.302884014206,12557.763,14.395183
1354.3042729132317,1354.3042729132317,12536.257,14.3939295
1354.3056618122578,1354.3056618122578,12554.202,14.403352
1354.3070507112834,1354.3070507112834,12536.441,14.390411
1354.3084396103088,1354.3084396103088,12570.152,14.398802
1354.3098285093351,1354.3098285093351,12545.404,14.396001
1354.3112174083603,1354.3112174083603,12532.4,14.392523
1354.312606307386,1354.312606307386,12546.62,14.391147
1354.3139952065278,1354.3139952065278,12539.009,14.393617
1354.3153841055532,1354.3153841055532,12540.568,14.390256
1354.3167730045793,1354.3167730045793,12547.99,14.398391
1354.3181619037218,1354.3181619037218,12549.491,14.396639
1354.3195508027475,1354.3195508027475,12550.179,14.396444
1354.3209397018895,1354.3209397018895,12543.42,14.392104
1354.3223286009147,1354.3223286009147,12527.4375,14.392534
1354.3237175000572,1354.3237175000572,12545.32,14.394093
1354.3251063991993,1354.3251063991993,12552.371,14.394227
1354.326495298224,1354.326495298224,12538.555,14.39649
1354.3278841973665,1354.3278841973665,12547.205,14.388526
1354.3292730965093,1354.3292730965093,12549.522,14.3918085
1354.330661995652,1354.330661995652,12536.598,14.389615
1354.3320508947936,1354.3320508947936,12545.069,14.3911495
1354.3334397939348,1354.3334397939348,12544.175,14.396731
1354.3348286930775,1354.3348286930775,12552.069,14.393222
1354.3362175922202,1354.3362175922202,12535.193,14.391019
1354.3376064913614,1354.3376064913614,12543.25,14.39432
1354.3389953906194,1354.3389953906194,12552.912,14.393658
1354.3403842897621,1354.3403842897621,12526.354,14.387608
1354.3417731889049,1354.3417731889049,12553.007,14.398497
1354.3431620881638,1354.3431620881638,12553.008,14.400645
1354.344550987305,1354.344550987305,12530.817,14.388764
1354.3459398865632,1354.3459398865632,12561.806,14.404129
1354.347328785706,1354.347328785706,12529.41,14.38503
1354.348717684964,1354.348717684964,12536.211,14.388946
1354.3501065842224,1354.3501065842224,12567.412,14.396245
1354.3514954833643,1354.3514954833643,12544.599,14.394798
1354.3528843826234,1354.3528843826234,12544.613,14.396074
1354.3542732818823,1354.3542732818823,12529.681,14.393012
1354.3556621811406,1354.3556621811406,12548.551,14.389059
1354.3570510803988,1354.3570510803988,12546.855,14.3982315
1354.3584399796573,1354.3584399796573,12538.76,14.389719
1354.3598288789153,1354.3598288789153,12555.061,14.398768
1354.3612177781745,1354.3612177781745,12528.922,14.377104
1354.3626066774336,1354.3626066774336,12553.621,14.399994
1354.3639955766917,1354.3639955766917,12542.621,14.3933
1354.3653844760665,1354.3653844760665,12544.02,14.396822
1354.3667733753248,1354.3667733753248,12540.433,14.396116
1354.368162274584,1354.368162274584,12542.074,14.389809
1354.3695511739584,1354.3695511739584,12523.194,14.387909
1354.370940073216,1354.370940073216,12531.55,14.391653
1354.3723289725915,1354.3723289725915,12562.06,14.398491
1354.3737178718507,1354.3737178718507,12531.444,14.385127
1354.375106771226,1354.375106771226,12545.543,14.391653
1354.3764956706007,1354.3764956706007,12534.167,14.388246
1354.3778845698585,1354.3778845698585,12560.242,14.398365
1354.3792734692338,1354.3792734692338,12557.479,14.398856
1354.3806623686091,1354.3806623686091,12550.221,14.387723
1354.3820512679831,1354.3820512679831,12589.16,14.405785
1354.383440167358,1354.383440167358,12532.639,14.383838
1354.3848290667333,1354.3848290667333,12565.743,14.396278
1354.3862179661087,1354.3862179661087,12543.338,14.400152
1354.387606865484,1354.387606865484,12558.025,14.399071
1354.388995764858,1354.388995764858,12553.053,14.401085
1354.390384664233,1354.390384664233,12538.486,14.390612
1354.3917735637247,1354.3917735637247,12520.73,14.384398
1354.3931624630995,1354.3931624630995,12546.117,14.386528
1354.394551362474,1354.394551362474,12548.04,14.397341
1354.3959402619653,1354.3959402619653,12525.355,14.38371
1354.3973291613406,1354.3973291613406,12556.975,14.39018
1354.3987180608324,1354.3987180608324,12548.953,14.387404
1354.4001069602073,1354.4001069602073,12523.573,14.385949
1354.4014958596981,1354.4014958596981,12555.691,14.395339
1354.402884759073,1354.402884759073,12551.437,14.3906555
1354.4042736585643,1354.4042736585643,12557.053,14.398391
1354.405662558056,1354.405662558056,12549.212,14.3947115
1354.4070514575478,1354.4070514575478,12552.645,14.393086
1354.4084403569225,1354.4084403569225,12544.667,14.39216
1354.4098292564136,1354.4098292564136,12555.041,14.397158
1354.4112181559049,1354.4112181559049,12567.218,14.392854
1354.4126070553966,1354.4126070553966,12553.576,14.396887
1354.413995954888,1354.413995954888,12547.345,14.391
1354.4153848543783,1354.4153848543783,12538.127,14.391446
1354.4167737539865,1354.4167737539865,12542.8955,14.389904
1354.4181626534782,1354.4181626534782,12522.963,14.382906
1354.41955155297,1354.41955155297,12549.133,14.395915
1354.4209404524613,1354.4209404524613,12532.301,14.38526
1354.4223293520681,1354.4223293520681,12527.639,14.3874035
1354.4237182515599,1354.4237182515599,12553.128,14.396006
1354.4251071510516,1354.4251071510516,12520.794,14.378764
1354.4264960506584,1354.4264960506584,12541.815,14.392002
1354.4278849501497,1354.4278849501497,12560.529,14.396706
1354.429273849758,1354.429273849758,12555.947,14.398587
1354.430662749366,1354.430662749366,12533.245,14.386632
1354.4320516488579,1354.4320516488579,12520.867,14.385592
1354.4334405484647,1354.4334405484647,12529.556,14.38757
1354.4348294480724,1354.4348294480724,12530.818,14.386923
1354.4362183476806,1354.4362183476806,12546.034,14.387126
1354.4376072471719,1354.4376072471719,12541.272,14.385086
1354.4389961467793,1354.4389961467793,12538.831,14.38293
1354.4403850463868,1354.4403850463868,12557.0625,14.386023
1354.441773945995,1354.441773945995,12552.192,14.395338
1354.4431628456032,1354.4431628456032,12538.255,14.384969
1354.444551745211,1354.444551745211,12578.439,14.396676
1354.4459406448186,1354.4459406448186,12536.352,14.3844385
1354.4473295445423,1354.4473295445423,12549.087,14.39657
1354.44871844415,1354.44871844415,12555.1455,14.391468
1354.4501073437582,1354.4501073437582,12549.329,14.398448
1354.4514962433664,1354.4514962433664,12534.204,14.387275
1354.4528851430905,1354.4528851430905,12536.003,14.392686
1354.454274042698,1354.454274042698,12551.429,14.386786
1354.455662942422,1354.455662942422,12556.906,14.396115
1354.45705184203,1354.45705184203,12550.993,14.388094
1354.4584407417542,1354.4584407417542,12532.641,14.387417
1354.459829641361,1354.459829641361,12546.628,14.391846
1354.4612185410856,1354.4612185410856,12552.222,14.391237
1354.4626074408102,1354.4626074408102,12556.3,14.385123
1354.4639963404184,1354.4639963404184,12536.483,14.3919115
1354.4653852401425,1354.4653852401425,12564.271,14.392897
1354.4667741398657,1354.4667741398657,12563.142,14.402054
1354.4681630395903,1354.4681630395903,12551.146,14.391568
1354.469551939315,1354.469551939315,12554.292,14.39103
1354.4709408390383,1354.4709408390383,12546.487,14.395187
1354.4723297387623,1354.4723297387623,12540.763,14.38148
1354.4737186384868,1354.4737186384868,12527.72,14.376041
1354.4751075382117,1354.4751075382117,12531.735,14.38262
1354.4764964379365,1354.4764964379365,12532.304,14.376034
1354.4778853376597,1354.4778853376597,12552.265,14.392578
1354.4792742373834,1354.4792742373834,12534.405,14.385741
1354.4806631372246,1354.4806631372246,12579.683,14.398408
1354.4820520369485,1354.4820520369485,12559.122,14.399542
1354.4834409366727,1354.4834409366727,12557.691,14.390044
1354.4848298365127,1354.4848298365127,12529.453,14.380501
1354.4862187362376,1354.4862187362376,12560.611,14.393228
1354.4876076360788,1354.4876076360788,12517.293,14.380101
1354.4889965358025,1354.4889965358025,12539.602,14.383246
1354.490385435643,1354.490385435643,12548.801,14.385379
1354.491774335367,1354.491774335367,12520.632,14.377156
1354.4931632352072,1354.4931632352072,12554.222,14.391624
1354.4945521350483,1354.4945521350483,12548.692,14.390893
1354.495941034773,1354.495941034773,12513.478,14.372809
1354.4973299346134,1354.4973299346134,12542.227,14.395685
1354.498718834454,1354.498718834454,12546.072,14.390072
1354.500107734294,1354.500107734294,12559.974,14.397793
1354.5014966341353,1354.5014966341353,12544.887,14.385113
1354.5028855339756,1354.5028855339756,12548.141,14.383826
1354.5042744338152,1354.5042744338152,12524.996,14.381207
1354.5056633336562,1354.5056633336562,12541.794,14.385832
1354.5070522334975,1354.5070522334975,12563.328,14.396161
1354.5084411333387,1354.5084411333387,12533.029,14.378701
1354.5098300331788,1354.5098300331788,12546.715,14.396534
1354.5112189330184,1354.5112189330184,12560.151,14.389463
1354.512607832976,1354.512607832976,12533.788,14.385238
1354.5139967328173,1354.5139967328173,12531.791,14.383017
1354.515385632657,1354.515385632657,12538.496,14.386456
1354.5167745326137,1354.5167745326137,12544.621,14.389141
1354.518163432455,1354.518163432455,12558.938,14.395148
1354.519552332296,1354.519552332296,12536.756,14.374813
1354.5209412322533,1354.5209412322533,12601.46,14.408403
1354.522330132093,1354.522330132093,12550.693,14.392353
1354.52371903205,1354.52371903205,12546.739,14.3911
1354.5251079320074,1354.5251079320074,12549.997,14.391442
1354.5264968318475,1354.5264968318475,12526.44,14.38263
1354.5278857318044,1354.5278857318044,12540.033,14.384574
1354.5292746317614,1354.5292746317614,12548.583,14.390356
1354.5306635317188,1354.5306635317188,12518.102,14.381057
1354.5320524315598,1354.5320524315598,12539.517,14.386847
1354.5334413315168,1354.5334413315168,12548.681,14.385197
1354.5348302314733,1354.5348302314733,12559.474,14.397333
1354.5362191314302,1354.5362191314302,12553.272,14.383856
1354.537608031387,1354.537608031387,12537.116,14.385815
1354.5389969313446,1354.5389969313446,12533.358,14.384401
1354.540385831302,1354.540385831302,12566.5625,14.393578
1354.5417747312586,1354.5417747312586,12557.801,14.393541
1354.5431636312155,1354.5431636312155,12540.299,14.38617
1354.544552531289,1354.544552531289,12553.297,14.396307
1354.5459414312463,1354.5459414312463,12544.064,14.380561
1354.5473303312028,1354.5473303312028,12526.581,14.385439
1354.548719231159,1354.548719231159,12530.465,14.386367
1354.5501081312332,1354.5501081312332,12548.377,14.387461
1354.5514970311906,1354.5514970311906,12558.101,14.396168
1354.5528859312644,1354.5528859312644,12538.627,14.388347
1354.5542748312214,1354.5542748312214,12544.828,14.392094
1354.5556637312939,1354.5556637312939,12534.9375,14.386093
1354.5570526312513,1354.5570526312513,12530.515,14.382599
1354.5584415313251,1354.5584415313251,12542.407,14.38552
1354.5598304312812,1354.5598304312812,12524.186,14.379575
1354.5612193313546,1354.5612193313546,12546.093,14.38967
1354.5626082314284,1354.5626082314284,12534.39,14.3823185
1354.5639971313858,1354.5639971313858,12551.725,14.39006
1354.5653860314596,1354.5653860314596,12544.041,14.392145
1354.566774931532,1354.566774931532,12546.507,14.386385
1354.5681638316055,1354.5681638316055,12542.492,14.38443
1354.5695527316793,1354.5695527316793,12529.605,14.386443
1354.5709416317527,1354.5709416317527,12566.308,14.394877
1354.5723305318256,1354.5723305318256,12544.079,14.3873415
1354.573719431899,1354.573719431899,12559.955,14.394198
1354.5751083319728,1354.5751083319728,12548.558,14.385161
1354.5764972320467,1354.5764972320467,12547.099,14.381247
1354.57788613212,1354.57788613212,12527.563,14.376336
1354.5792750321932,1354.5792750321932,12548.875,14.386852
1354.5806639322664,1354.5806639322664,12557.854,14.393951
1354.5820528323397,1354.5820528323397,12544.35,14.387971
1354.58344173253,1354.58344173253,12518.698,14.373977
1354.5848306326038,1354.5848306326038,12534.78,14.378327
1354.5862195326772,1354.5862195326772,12559.238,14.394231
1354.5876084328665,1354.5876084328665,12554.1,14.388352
1354.58899733294,1354.58899733294,12546.132,14.385334
1354.5903862330138,1354.5903862330138,12539.607,14.38353
1354.5917751332036,1354.5917751332036,12558.311,14.393452
