time,time,flux,flux_err
1468.2811700332616,1468.2811700332616,0.9998800688726873,0.0029782185919254335
1468.289503399791,1468.289503399791,1.0004995638624006,0.002983613287371654
1468.2971423190654,1468.2971423190654,0.9978972911019038,0.0027194686789855232
1468.3040867909613,1468.3040867909613,0.9986928939136386,0.002721969213868491
1468.311031262578,1468.311031262578,1.0030457494290292,0.002722191448757863
1468.3179757341939,1468.3179757341939,0.9962152361578148,0.0027191478116794076
1468.3249202057168,1468.3249202057168,0.9977828254926321,0.002723613962222048
1468.3318646770538,1468.3318646770538,0.9999172773557682,0.0027237266060652883
1468.3388091482043,1468.3388091482043,1.0000687963133292,0.002718785809570947
1468.3457536192618,1468.3457536192618,0.9993001511549876,0.002718826239020859
1468.352698090319,1468.352698090319,0.9993040533916673,0.002716622888880767
1468.359642561004,1468.359642561004,1.0022287260826155,0.0027182356412153016
1468.3665870316893,1468.3665870316893,1.0017934536578665,0.0027202159971398587
1468.3735315023744,1468.3735315023744,1.000643260446434,0.0027204038394223707
1468.3824204243851,1468.3824204243851,1.002244926372859,0.0027175235038581743
1468.3971427011193,1468.3971427011193,0.9998314004115469,0.002717869326690064
1468.404087171246,1468.404087171246,0.9978469023349671,0.0027177539085034242
1468.4110316409997,1468.4110316409997,1.0000625564631958,0.0027170002013882297
1468.4179761106595,1468.4179761106595,1.0007155486319854,0.0027169515803609156
1468.424920580413,1468.424920580413,1.000851965595229,0.00271604943410301
1468.4318650497014,1468.4318650497014,0.9982737376874858,0.002714770212074879
1468.4388095191755,1468.4388095191755,0.9978956273046918,0.002717391290430988
1468.4457539883701,1468.4457539883701,1.0029739683608903,0.0027234397327370466
1468.452698457379,1468.452698457379,1.0025263900983623,0.0027154807049523887
1468.4596429263875,1468.4596429263875,1.0004495766922143,0.0027155330102095017
1468.4665873951167,1468.4665873951167,0.9979968105993746,0.002717164033057947
1468.4735318639391,1468.4735318639391,1.0048788049795634,0.0027171995273099635
1468.4804763322954,1468.4804763322954,0.9973194131323486,0.002722535284005094
1468.4874208006518,1468.4874208006518,1.0047353946410726,0.0027193552231582828
1468.4943652690088,1468.4943652690088,0.9972133236036054,0.002720075642830946
1468.5013097373655,1468.5013097373655,1.0014266780165653,0.002721727896208483
1468.5082542052564,1468.5082542052564,0.997939703216365,0.002719000776692291
1468.5151986732403,1468.5151986732403,0.999137129811228,0.002720622140810112
1468.5221431409452,1468.5221431409452,0.9999791466067952,0.0027211502835647106
1468.5290876086497,1468.5290876086497,1.0000294643997925,0.0027185127483512644
1468.5360320761686,1468.5360320761686,1.0010061896329001,0.0027187422129615053
1468.5429765435008,1468.5429765435008,1.0023760408725573,0.0027196849867548597
1468.5499210108323,1468.5499210108323,0.9987679972383525,0.00271845986604334
1468.5568654778854,1468.5568654778854,1.0001696094537214,0.002714675281913031
1468.5638099449384,1468.5638099449384,1.0002343899214106,0.002716826674343458
1468.5707544118047,1468.5707544118047,0.997809505798576,0.0027145239572483664
1468.577698878485,1468.577698878485,0.9995251814156468,0.00271274436235265
1468.5846433451652,1468.5846433451652,1.0019277877142887,0.0027143103049278605
1468.5915878115661,1468.5915878115661,1.0026338246152953,0.0027171110084401513
1468.5985322780602,1468.5985322780602,0.9995326240006353,0.002715490034365729
1468.6054767440887,1468.6054767440887,0.9976032111229756,0.0027153732996810782
1468.6124212101167,1468.6124212101167,0.9993421454011024,0.002716790440253391
1468.6193656761448,1468.6193656761448,1.0030626478438855,0.0027179848048431198
1468.6263101421732,1468.6263101421732,1.000671622235998,0.0027166707418901526
1468.6332546078295,1468.6332546078295,0.9999178896201482,0.0027204696351004324
1468.6401990733916,1468.6401990733916,0.9986472666301214,0.002722548803200585
1468.6471435388612,1468.6471435388612,0.9959635668378096,0.00272311040567289
1468.654088004238,1468.654088004238,1.000183917279371,0.002719756539595909
1468.661032469428,1468.661032469428,1.0015567827137324,0.002723498147425123
1468.667976934525,1468.667976934525,1.0009039410975167,0.0027184903170754627
1468.6749213993423,1468.6749213993423,0.9960473085397579,0.002716682266644873
1468.681865864253,1468.681865864253,1.0045697422346158,0.00272443077299762
1468.6888103289773,1468.6888103289773,0.9997673352055129,0.0027169242540903598
1468.6957547934226,1468.6957547934226,0.9972608401471795,0.002719096763122896
1468.702699257961,1468.702699257961,1.0027893804767978,0.002718892663678987
1468.7096437222194,1468.7096437222194,1.0008382128687272,0.0027164845800223742
1468.7165881864785,1468.7165881864785,0.9987334133766133,0.002717702149044627
1468.723532650458,1468.723532650458,1.00298056306083,0.0027180085033625748
1468.7304771144375,1468.7304771144375,0.9996715586526947,0.002716574787718323
1468.7374215781376,1468.7374215781376,0.9972898909606205,0.002714973944289022
1468.744366041837,1468.744366041837,0.9973432597181487,0.0027145826057041974
1468.751310505537,1468.751310505537,1.002640736712405,0.002717622718238339
1468.7582549687718,1468.7582549687718,0.9995558979318451,0.002718390400359666
1468.7651994320993,1468.7651994320993,1.0015322420744432,0.0027180682806603354
1468.7721438953338,1468.7721438953338,0.9988486216369552,0.0027199107102713472
1468.7790883582886,1468.7790883582886,1.0011195103587762,0.0027177066987959997
1468.7860328212435,1468.7860328212435,1.001346590907867,0.0027185858537162456
1468.7929772840123,1468.7929772840123,1.0006946196185056,0.002717270545498683
1468.7999217466877,1468.7999217466877,0.9981712358010506,0.002720102493187513
1468.8068662091769,1468.8068662091769,0.9963379741036686,0.002718870658641984
1468.813810671573,1468.813810671573,1.001230274331839,0.0027165481079239667
1468.820755133876,1468.820755133876,1.0003196282198612,0.0027172486449307943
1468.827699595993,1468.827699595993,0.9999083724070796,0.0027181574918944086
1468.8346440580167,1468.8346440580167,0.9995512979794359,0.0027146793485539563
1468.841588519947,1468.841588519947,1.0034185158382745,0.0027166167978122783
1468.848532981598,1468.848532981598,0.9962415798781615,0.0027167150404273175
1468.8554774433428,1468.8554774433428,1.0018994777065395,0.0027208473482485517
1468.8624219047142,1468.8624219047142,1.0017505499845918,0.0027176034083834597
1468.8693663660863,1468.8693663660863,0.999643712416517,0.002714097923997456
1468.8763108274575,1468.8763108274575,1.0006130322304,0.0027234206671521077
1468.88325528855,1468.88325528855,0.9990448391386554,0.0027186605800054546
1468.8901997496423,1468.8901997496423,0.9996839814399392,0.0027187464449191364
1468.8971442104553,1468.8971442104553,0.9984365569851393,0.0027166113322383096
1468.9040886712685,1468.9040886712685,1.000736369181093,0.002720234896724027
1468.9110331318018,1468.9110331318018,1.0001687494785274,0.002720388896259313
1468.917977592335,1468.917977592335,0.9994840665107565,0.0027200102586416334
1468.9249220527759,1468.9249220527759,1.000313473943231,0.0027195816861747117
1468.9318665129365,1468.9318665129365,0.9995281939992919,0.002716292174850965
1468.9388109730976,1468.9388109730976,0.9972471674148442,0.0027170819510637934
1468.9457554330722,1468.9457554330722,1.0040922944903092,0.0027186352265756086
1468.9526998929537,1468.9526998929537,0.9990949559734643,0.002717955683936182
1468.959922131104,1468.959922131104,1.0000986756498456,0.0027137691540785216
1468.9679777042466,1468.9679777042466,1.0012220862099723,0.002719499764297538
1468.9749221636623,1468.9749221636623,1.0001935093732262,0.0027195179713529584
1468.9818666230783,1468.9818666230783,0.9997678773236525,0.002721070911769958
1468.9888110821216,1468.9888110821216,0.998591681193667,0.0027202807212182495
1468.9957555411652,1468.9957555411652,1.0033459662401065,0.0027196060848966694
1469.0027000002085,1469.0027000002085,0.9978422623846201,0.002716740855332228
1469.0096444592516,1469.0096444592516,0.9970567742636274,0.0027212602866226094
1469.0165889178293,1469.0165889178293,1.0009162605485624,0.0027199121177662916
1469.0235333765004,1469.0235333765004,0.9971336433885103,0.002718916998674213
1469.030477834892,1469.030477834892,1.0020280050734802,0.0027176005804792824
1469.0374222932837,1469.0374222932837,1.0033185547763719,0.0027180953493988152
1469.0443667514887,1469.0443667514887,0.9986278252771369,0.0027225743650542435
1469.0513112095073,1469.0513112095073,0.9998012816992853,0.0027230297752081326
1469.0582556675267,1469.0582556675267,1.000933454064447,0.0027186690656161414
1469.065200125359,1469.065200125359,1.0018497996449591,0.0027171030498474866
1469.0721445830056,1469.0721445830056,0.9984963099007091,0.002717023339962284
1469.0790890406522,1469.0790890406522,1.0010088627673261,0.0027227665414740893
1469.086033498112,1469.086033498112,0.9989566007842295,0.0027164168030490783
1469.0929779553862,1469.0929779553862,0.9970381188114732,0.002718690240429265
1469.0999224126604,1469.0999224126604,0.999758392651243,0.0027205704213136986
1469.1068668696548,1469.1068668696548,0.999700741141106,0.0027196059340859917
1469.1138113267425,1469.1138113267425,1.0022950309593006,0.0027183509047562712
1469.1207557834573,1469.1207557834573,1.0006966317135215,0.0027163297223492277
1469.1277002401725,1469.1277002401725,1.0012035295221682,0.002717760736647574
1469.1346446968876,1469.1346446968876,0.9996674878892877,0.0027160788537640827
1469.1415891532301,1469.1415891532301,0.9973601983062338,0.0027202268075186453
1469.148533609573,1469.148533609573,1.0013886046785672,0.00271879261174033
1469.155478065822,1469.155478065822,0.9989092308515403,0.002714607667159785
1469.162422521885,1469.162422521885,1.0016432850784949,0.0027190745906939284
1469.1693669778556,1469.1693669778556,0.9951579703174591,0.0027184556740586963
1469.1763114337323,1469.1763114337323,1.0043394354291681,0.0027174707114182538
1469.18325588933,1469.18325588933,1.000409093001897,0.0027204748864854615
1469.1902003449275,1469.1902003449275,1.001261463867366,0.0027162339773790798
1469.1971448004315,1469.1971448004315,0.998908246949104,0.0027166260104556465
1469.204089255843,1469.204089255843,1.0001955362299821,0.0027169653212348057
1469.2110337109748,1469.2110337109748,0.9969014942490485,0.0027143728946793346
1469.2179781661066,1469.2179781661066,0.99935757598333,0.0027147743765075795
1469.2249226210522,1469.2249226210522,1.0045477748066265,0.002715126096276271
1469.2318670759046,1469.2318670759046,1.0043202301914245,0.0027161691922573893
1469.2388115306642,1469.2388115306642,0.999068375480683,0.002719407456565342
1469.2457559852373,1469.2457559852373,1.0006380937483819,0.0027157690965953253
1469.252700439624,1469.252700439624,0.9978377440419862,0.0027180262287245975
1469.2596448940108,1469.2596448940108,0.9980615842808763,0.00271764657614033
1469.266589348304,1469.266589348304,1.0020477005809671,0.0027180584958598044
1469.2735338023183,1469.2735338023183,0.9987416300060138,0.0027207712688057826
1469.280478256333,1469.280478256333,0.9981251692131388,0.0027134203330964127
1469.2874227101609,1469.2874227101609,1.0012734609139775,0.002717589257030179
1469.2943671638961,1469.2943671638961,0.9993501540750112,0.002714927569879836
1469.3013116175375,1469.3013116175375,1.0031285099545018,0.002718425099449922
1469.308256070993,1469.308256070993,0.9989537687502617,0.002716983596576527
1469.3152005243555,1469.3152005243555,0.9999010961272516,0.00271692352132342
1469.3221449775315,1469.3221449775315,1.0019960758594406,0.0027172572768815973
1469.3290894306142,1469.3290894306142,0.9989073076429957,0.002714827896677981
1469.3360338836042,1469.3360338836042,0.997248205519109,0.002716061143003942
1469.342978336594,1469.342978336594,0.9986338051226452,0.0027171928229449706
1469.3499227892112,1469.3499227892112,0.9982541401792174,0.002717099309232053
1469.3568672418287,1469.3568672418287,1.0002174216429514,0.0027185951179466783
1469.3638116943528,1469.3638116943528,1.0004849222312955,0.002718272119754432
1469.3707561466908,1469.3707561466908,1.0022279564205623,0.0027180223814730247
1469.3777005990285,1469.3777005990285,0.9984674302014998,0.0027190710734283875
1469.384645051087,1469.384645051087,1.0020137360780963,0.00271769388055081
1469.3915895031455,1469.3915895031455,0.9979227399144264,0.0027148754371081997
1469.3985339548315,1469.3985339548315,1.0013743685175829,0.0027191996204166454
1469.4054784067037,1469.4054784067037,0.9979860233205752,0.0027164175577955385
1469.4124228582964,1469.4124228582964,0.9996051806492892,0.002716813726938015
1469.4193673097961,1469.4193673097961,1.0006700194377476,0.0027198623073457482
1469.4263117611097,1469.4263117611097,0.9993561312396709,0.0027156860709127697
1469.4332562124232,1469.4332562124232,1.000905804630588,0.002716689184955835
1469.4402006635503,1469.4402006635503,1.0032655362212246,0.0027183605486912755
1469.4471451145844,1469.4471451145844,0.9999643056373607,0.0027180528032800097
1469.454089565525,1469.454089565525,0.9984970523694706,0.0027158234113253263
1469.4610340161867,1469.4610340161867,0.9981208355665838,0.0027225687396354526
1469.4679784667553,1469.4679784667553,1.0018584372181856,0.0027165095106310736
1469.4749229173235,1469.4749229173235,0.9979324496906701,0.0027191453609671
1469.4818673677055,1469.4818673677055,0.9994510428595333,0.0027188253960501304
1469.4888118179947,1469.4888118179947,1.002010660250917,0.0027157099572280023
1469.4957562681905,1469.4957562681905,1.0012442159560415,0.0027168621211532884
1469.5027007182002,1469.5027007182002,0.9991051577635129,0.002717480598267464
1469.5096451681168,1469.5096451681168,0.9991467991848483,0.002716828718390104
1469.5165896178466,1469.5165896178466,1.0003433726990802,0.002716718003229217
1469.5235340675767,1469.5235340675767,0.9983540788971611,0.0027172160410109535
1469.5304785170274,1469.5304785170274,1.0009306035971834,0.002719532244202005
1469.5374229664785,1469.5374229664785,1.0032664225680497,0.0027219974544404396
1469.5443674157432,1469.5443674157432,0.9976173788932794,0.0027132515372451467
1469.5513118649144,1469.5513118649144,0.9994478263812049,0.0027182323257488464
1469.5582563138994,1469.5582563138994,0.9955132512440118,0.0027201368435598996
1469.5652007628846,1469.5652007628846,1.002026154501994,0.002720663884424194
1469.5721452116836,1469.5721452116836,0.9989578689717803,0.0027137918170270126
1469.5790896603892,1469.5790896603892,1.0030472058990656,0.0027173294700282135
1469.5860341090017,1469.5860341090017,1.0024784505725457,0.00271887901981866
1469.592978557335,1469.592978557335,1.002528341890471,0.0027152611483678714
1469.599923005575,1469.599923005575,0.996610168316073,0.0027150370321390384
1469.606867453815,1469.606867453815,1.00046293318618,0.002715035995181528
1469.6138119018692,1469.6138119018692,0.9991488004681772,0.00271565302502607
1469.6207563498297,1469.6207563498297,0.9978167896498833,0.002717432043783599
1469.6277007976973,1469.6277007976973,1.0002533928359276,0.002720188054613577
1469.6346452453786,1469.6346452453786,0.9995260116558736,0.0027187050824303447
1469.6415896929666,1469.6415896929666,0.9981537303753164,0.002714054847574305
1469.6485341403686,1469.6485341403686,1.0053325050824549,0.0027160486802260313
1469.6554785877704,1469.6554785877704,0.9981436929854206,0.0027137996472296486
1469.662423034893,1469.662423034893,1.0006185884715388,0.002713086846495513
1469.6693674820156,1469.6693674820156,1.0000662327942051,0.002719747920193091
1469.6763119289515,1469.6763119289515,1.0017107246511,0.002717171268673127
1469.6832563757948,1469.6832563757948,0.9982054234250413,0.002722521041970665
1469.6902008224517,1469.6902008224517,1.002049690578799,0.0027184232935982162
1469.6971452691087,1469.6971452691087,0.9958299048582837,0.0027201181056514235
1469.704089715579,1469.704089715579,1.0012067300760397,0.0027203110782687517
1469.711034161956,1469.711034161956,1.0011396860305628,0.0027214858177588845
1469.7179786082404,1469.7179786082404,0.9996488577299398,0.002719771290774676
1469.7249230542454,1469.7249230542454,0.998889117282886,0.0027210495541338505
1469.7318675002505,1469.7318675002505,0.9985346446247287,0.002716298276255397
1469.7388119461625,1469.7388119461625,1.0010058487039586,0.0027199153891298115
1469.7457563917947,1469.7457563917947,0.9973214724702093,0.0027170693306492262
1469.75270083752,1469.75270083752,1.004368720190309,0.002718606600764219
1469.7596452829664,1469.7596452829664,0.99994720663701,0.002721219378239814
1469.7665897284123,1469.7665897284123,0.9977282581884979,0.0027193187918550985
1469.773534173579,1469.773534173579,1.00253529413285,0.0027183677107527025
1469.7804786186525,1469.7804786186525,1.0010730861910209,0.0027175098005745753
1469.787423063726,1469.787423063726,1.0029580531775015,0.002719479732787684
1469.7943675087065,1469.7943675087065,0.9967576133561107,0.0027164418524486095
1469.8013119534078,1469.8013119534078,1.0021957759517475,0.0027196734617210036
1469.808256398109,1469.808256398109,0.9967790454399801,0.002717362876477021
1469.8152008425307,1469.8152008425307,0.9984775950862034,0.0027210573172956128
1469.8221452870453,1469.8221452870453,1.000815366266746,0.0027201140135903615
1469.8290897312804,1469.8290897312804,0.9987296217335825,0.0027188722385898733
1469.8360341754228,1469.8360341754228,0.9965245886532607,0.002717509503502282
1469.8429786195652,1469.8429786195652,1.0032776314328704,0.002722881869835477
1469.8499230634282,1469.8499230634282,1.0029537607410826,0.0027214234458115545
1469.8568675071979,1469.8568675071979,0.9987635520590175,0.0027184120435843552
1469.863811950874,1469.863811950874,1.0005409152620905,0.0027166605731989567
1469.8707563945509,1469.8707563945509,0.9993907558372983,0.0027182115725784264
1469.877700837855,1469.877700837855,1.0005695864067274,0.002717397496900152
1469.884645281159,1469.884645281159,0.9990056004638056,0.0027176170221039674
1469.891589724463,1469.891589724463,1.0024739585111526,0.002722185084748304
1469.8985341674877,1469.8985341674877,0.9996134527995858,0.0027238378751160974
1469.905478610419,1469.905478610419,0.997354061498094,0.0027179680148026507
1469.9124230531647,1469.9124230531647,1.0018135006010445,0.0027232453897277163
1469.9193674959097,1469.9193674959097,1.0004818278637586,0.002719986808605127
1469.9263119386553,1469.9263119386553,0.9986571865683567,0.002719368053938882
1469.9332563809348,1469.9332563809348,0.9998988395506808,0.0027203808281991287
1469.9402008234006,1469.9402008234006,0.9997343061466276,0.0027209942417869893
1469.947145265587,1469.947145265587,1.0007298981347363,0.0027238228632579576
1469.9540897076802,1469.9540897076802,1.0029500748149682,0.002722301468321407
1469.9610341496805,1469.9610341496805,0.9965297007962615,0.0027215835598859224
1469.9679785914948,1469.9679785914948,0.9983928719697948,0.002718897234277206
1469.9749230333086,1469.9749230333086,0.998080211625451,0.0027165045746258675
1469.9818674749363,1469.9818674749363,1.0023642934398809,0.0027213755335627273
1469.9888119164707,1469.9888119164707,1.001898764723524,0.002720313927107395
1469.995756357819,1469.995756357819,1.0002009552315283,0.0027197706763754104
1470.0027007990745,1470.0027007990745,1.0020703809738358,0.0027229694672157843
1470.0096452401433,1470.0096452401433,1.0011695002361716,0.002719159224777297
1470.0165896812123,1470.0165896812123,0.9987396030123028,0.0027201140523140923
1470.0235341220944,1470.0235341220944,0.9973636181283213,0.0027215072979289616
1470.030478562884,1470.030478562884,0.9989623051326909,0.0027203063710184005
1470.0374230034874,1470.0374230034874,0.9995954202692241,0.0027232194960731338
1470.0443674439043,1470.0443674439043,0.9992456333073608,0.0027186799585420256
1470.0513118843214,1470.0513118843214,0.9980490262195094,0.0027195526711037894
1470.0582563247387,1470.0582563247387,1.0015871567838366,0.002718026849086658
1470.065200764969,1470.065200764969,1.0023869486446895,0.0027199286311348518
