time,time,flux,flux_err
1325.2997184001042,1325.2997184001042,1.0000130668821756,0.00020952395336986413
1325.3080517120127,1325.3080517120127,0.9998349631939393,0.00020954325859870898
1325.315690581489,1325.315690581489,1.0002356566972035,0.0001913392471337371
1325.3226350084449,1325.3226350084449,1.0002168254479897,0.0001913425080619638
1325.3295794355636,1325.3295794355636,0.9998388145304382,0.00019132656278391758
1325.336523862834,1325.336523862834,0.9998610099372683,0.0001913486447350849
1325.343468290279,1325.343468290279,1.0001282279701575,0.0001913900609532252
1325.3504127178749,1325.3504127178749,0.9999044610610239,0.00019142114902322396
1325.3573571456457,1325.3573571456457,0.9997259056111314,0.00019142423618879277
1325.3643015735563,1325.3643015735563,0.9999284056737178,0.0001914692241636578
1325.371246001595,1325.371246001595,1.0004121959116543,0.00019152416913094974
1325.3781904298196,1325.3781904298196,0.99984637627909,0.0001915202525170045
1325.3851348581725,1325.3851348581725,1.0000894419238122,0.0001915569877018205
1325.3920792866766,1325.3920792866766,0.9997584542247278,0.00019157503394205168
1325.3990237153434,1325.3990237153434,1.0001216084320976,0.00019162704785200097
1325.4059681441506,1325.4059681441506,1.0001944898112647,0.0001916622969809126
1325.4129125730967,1325.4129125730967,1.0000195370370544,0.00019167847596441965
1325.419857002172,1325.419857002172,0.9999195020801921,0.0001916935893068207
1325.426801431421,1325.426801431421,0.9999859637471065,0.0001917480268575791
1325.4337458607981,1325.4337458607981,0.9997843997817236,0.00019175116429201206
1325.4406902903038,1325.4406902903038,1.0001198562881275,0.00019178107451962037
1325.447634719937,1325.447634719937,0.9999163661388776,0.00019180570166434788
1325.4545791497335,1325.4545791497335,0.9998839102188779,0.000191835635942926
1325.4615235796812,1325.4615235796812,1.0002896620756299,0.00019187982170110229
1325.4684680097218,1325.4684680097218,0.9999032539899725,0.00019189383836728407
1325.4754124399028,1325.4754124399028,1.000306151867397,0.00019195865229799708
1325.4823568702227,1325.4823568702227,0.999889042111004,0.00019193884509962326
1325.489301300671,1325.489301300671,0.9996291995550216,0.00019195434605046344
1325.4962457312477,1325.4962457312477,1.000020348226281,0.0001920221316068142
1325.5031901619518,1325.5031901619518,1.0002369537445965,0.00019206051036838904
1325.5101345927847,1325.5101345927847,0.9997454231598342,0.00019206623868476207
1325.5170790237567,1325.5170790237567,0.9999475576373961,0.00019211611268380872
1325.524023454822,1325.524023454822,0.9999437898275177,0.00019214806106631862
1325.530967886027,1325.530967886027,1.0003378304746402,0.00019220595422411572
1325.5379123173602,1325.5379123173602,1.000345461771881,0.00019225259243011515
1325.5448567488095,1325.5448567488095,1.0000523309011806,0.00019226676236374051
1325.5518011803638,1325.5518011803638,0.9996416084355427,0.00019227219313197713
1325.558745612058,1325.558745612058,0.9998883996364913,0.00019231935466189912
1325.5656900438448,1325.5656900438448,0.9999350120927595,0.00019236485914677875
1325.5726344757484,1325.5726344757484,1.0000173732116422,0.00019241990850985777
1325.5795789077688,1325.5795789077688,0.9999809811808156,0.00019243560778512466
1325.5865233399163,1325.5865233399163,1.0001938185764838,0.0001924767492769745
1325.5934677721575,1325.5934677721575,1.0000229391447157,0.00019247625841945393
1325.6004122045147,1325.6004122045147,0.9995353484447553,0.000192469285553168
1325.607356636989,1325.607356636989,1.0002643711713204,0.00019254557700161174
1325.6143010695562,1325.6143010695562,1.0002591367109326,0.00019255603100403032
1325.6212455022512,1325.6212455022512,0.99982842999198,0.0001925287008805542
1325.6281899350279,1325.6281899350279,1.0000777760735815,0.00019255985289503357
1325.635134367921,1325.635134367921,1.0000936635124043,0.0001925686331653037
1325.6420788009304,1325.6420788009304,1.0000645126730485,0.00019258088529017898
1325.6490232340211,1325.6490232340211,0.999790934983318,0.0001925534440096585
1325.655967667217,1325.655967667217,0.9998884001422013,0.00019256682714363126
1325.6629121005174,1325.6629121005174,0.9999510531073297,0.00019256093423717434
1325.6698565339343,1325.6698565339343,0.9997552140515854,0.00019255183614914816
1325.676800967421,1325.676800967421,1.0001906441905999,0.0001925991946130966
1325.6837454010129,1325.6837454010129,1.000211174893307,0.00019258131424645405
1325.6906898346977,1325.6906898346977,1.0004090962911858,0.00019263059995235793
1325.6976342684752,1325.6976342684752,0.9997774135089864,0.00019259929692329555
1325.7045787023465,1325.7045787023465,1.0000718817270104,0.00019261719106919065
1325.7115231363218,1325.7115231363218,0.9997445104585237,0.0001925974480182116
1325.7184675703909,1325.7184675703909,0.9999132231884997,0.00019263290742013386
1325.7254120045525,1325.7254120045525,0.999844370443661,0.00019262602815422892
1325.7323564387843,1325.7323564387843,0.9999618010326443,0.00019263093640709442
1325.7393008731096,1325.7393008731096,1.000070773708349,0.00019267901370897177
1325.7462453075275,1325.7462453075275,1.0000000565433864,0.00019268847967251974
1325.7531897420386,1325.7531897420386,1.0002677979675467,0.00019273473940717927
1325.7601341766199,1325.7601341766199,0.999842214342433,0.00019271373667764901
1325.7670786113056,1325.7670786113056,1.000274516648765,0.00019277705164932738
1325.7740230460615,1325.7740230460615,1.0002143048713052,0.00019278914392536985
1325.78096748091,1325.78096748091,0.9997761435528882,0.00019275683324942533
1325.787911915841,1325.787911915841,0.999726150006571,0.00019278370230966043
1325.7948563508405,1325.7948563508405,1.0001708374363165,0.00019284066300463853
1325.8018007859223,1325.8018007859223,0.9999507917738031,0.00019285038625941803
1325.808745221074,1325.808745221074,0.9997650638045158,0.00019283677647645537
1325.81568965633,1325.81568965633,1.0002347464576418,0.00019287219154632786
1325.8226340916449,1325.8226340916449,0.9998569445532715,0.0001928570612983448
1325.8295785270407,1325.8295785270407,1.0002535555254684,0.00019290627273272596
1325.8365229625294,1325.8365229625294,0.9996435331312888,0.00019287294605619353
1325.8434673980657,1325.8434673980657,1.0000181081349038,0.00019289706233156545
1325.8504118336823,1325.8504118336823,1.0000403738697812,0.00019289051094386554
1325.8573562693928,1325.8573562693928,0.9999957232034056,0.00019286775903309847
1325.8643007051498,1325.8643007051498,1.0002235919533615,0.0001928763157310971
1325.871245141,1325.871245141,0.9999312086906229,0.00019283637377485
1325.8781895769082,1325.8781895769082,0.9997407675540201,0.00019280167033233682
1325.8851340128858,1325.8851340128858,1.0000390756481052,0.00019280392502032799
1325.8920784489342,1325.8920784489342,1.00035783840764,0.00019280864884098467
1325.8990228850519,1325.8990228850519,1.0001098297631752,0.00019278170017006526
1325.905967321251,1325.905967321251,1.0000253808968134,0.00019277111656427681
1325.912911757508,1325.912911757508,1.00013044525937,0.0001927584378754636
1325.9198561938238,1325.9198561938238,0.99980960849615,0.00019272195170309678
1325.9268006302214,1325.9268006302214,0.9995802163756349,0.00019270958218653103
1325.933745066653,1325.933745066653,0.9998614409579728,0.00019273529589603687
1325.9406895031786,1325.9406895031786,1.0001166129595822,0.00019273929535354431
1325.9476339397386,1325.9476339397386,0.9998616248501854,0.00019271092874463742
1325.954578376392,1325.954578376392,1.0001656804156238,0.00019274796650718294
1325.962078368027,1325.962078368027,1.0005398577006959,0.00019274660976031344
1325.9698561372106,1325.9698561372106,1.0000647875613242,0.00019271592807775537
1325.9768005740386,1325.9768005740386,0.9997689029187782,0.0001927027099469472
1325.983745010936,1325.983745010936,0.9996852068335296,0.0001926682849710917
1325.9906894478688,1325.9906894478688,1.000094835989054,0.0001927152921633074
1325.9976338848949,1325.9976338848949,0.9997931907042794,0.00019270702311456698
1326.004578321967,1326.004578321967,1.0001847625447668,0.00019274542202298516
1326.011522759098,1326.011522759098,1.0000152604786854,0.00019275879109694524
1326.0184671962747,1326.0184671962747,1.0000461761148398,0.0001927608234757175
1326.0254116335218,1326.0254116335218,0.9999829867448387,0.00019278488188910844
1326.032356070804,1326.032356070804,1.000062926478923,0.00019279067619036182
1326.0393005081553,1326.0393005081553,0.999970277040094,0.00019276868128858466
1326.046244945554,1326.046244945554,1.0001238823788072,0.0001927778317764365
1326.0531893830102,1326.0531893830102,0.9998240677655821,0.00019276162827160518
1326.0601338205136,1326.0601338205136,0.9998951926458537,0.00019278538455126264
1326.0670782580746,1326.0670782580746,1.000188618073782,0.00019280827152979934
1326.0740226956823,1326.0740226956823,1.000034196084585,0.00019280934493945016
1326.080967133337,1326.080967133337,0.9997163725810847,0.0001927731999510853
1326.0879115710497,1326.0879115710497,1.0003010131224466,0.0001928130507710914
1326.094856008809,1326.094856008809,0.9999524514077104,0.00019280083078530825
1326.1018004466382,1326.1018004466382,0.999751208674002,0.00019279396474776122
1326.1087448844905,1326.1087448844905,0.999971756504858,0.0001927954080012168
1326.1156893223776,1326.1156893223776,1.0000752894387601,0.0001928025752895281
1326.1226337603343,1326.1226337603343,1.0002878213971438,0.0001928025760441687
1326.1295781983267,1326.1295781983267,0.999636611623264,0.00019276290087072824
1326.136522636377,1326.136522636377,1.0000901951837162,0.00019279609803444036
1326.1434670744623,1326.1434670744623,1.000078174424292,0.0001927836514114565
1326.150411512594,1326.150411512594,1.000164032993007,0.00019279394139712014
1326.1573559507835,1326.1573559507835,1.0002000811701794,0.00019280962066479563
1326.1643003890208,1326.1643003890208,0.999955658858236,0.0001927804442321385
1326.1712448272683,1326.1712448272683,0.9999018524766461,0.00019278427773516529
1326.1781892655981,1326.1781892655981,0.9999008718985056,0.0001927561292303968
1326.1851337039395,1326.1851337039395,0.9997886703493863,0.0001927573772038829
1326.192078142327,1326.192078142327,0.9999691086719549,0.0001927616950787643
1326.1990225807617,1326.1990225807617,0.9999340537270676,0.00019274181691739432
1326.2059670192543,1326.2059670192543,1.000193757541005,0.00019279942401741301
1326.2129114577706,1326.2129114577706,0.9999659197649645,0.00019277586879109607
1326.2198558963325,1326.2198558963325,1.0001423411966321,0.00019275726653575595
1326.2268003349302,1326.2268003349302,1.0002394279746987,0.00019275874548067083
1326.2337447735624,1326.2337447735624,0.9998019016273674,0.00019273524400145454
1326.2406892122413,1326.2406892122413,0.9999120612662592,0.0001927394447563477
1326.247633650967,1326.247633650967,0.9998283699304459,0.00019271295796164135
1326.254578089704,1326.254578089704,1.0000385585325935,0.0001927455101761733
1326.2615225284994,1326.2615225284994,1.000050835918155,0.00019273644196436888
1326.268466967318,1326.268466967318,1.0001047256250941,0.00019273939507117482
1326.275411406171,1326.275411406171,1.0000939087907064,0.00019273304605798742
1326.2823558450832,1326.2823558450832,1.0000176093655424,0.00019272577442411108
1326.289300284018,1326.289300284018,0.9999671440169461,0.00019270828093602616
1326.2962447229766,1326.2962447229766,1.0000472611435383,0.00019273713684484587
1326.3031891619928,1326.3031891619928,1.0001903227184465,0.0001927308890590537
1326.310133601021,1326.310133601021,0.9995556639831976,0.00019270011645247282
1326.3170780400958,1326.3170780400958,0.9999104336586402,0.00019272891336497464
1326.3240224791934,1326.3240224791934,1.000158626189474,0.00019274848460229394
1326.3309669183386,1326.3309669183386,1.000213646796574,0.0001927417696872113
1326.337911357506,1326.337911357506,0.9998818913987053,0.00019274323092918492
1326.344855796709,1326.344855796709,0.9997541400139992,0.00019272146889130754
1326.3545780116467,1326.3545780116467,0.9999052886984611,0.00019273658903734352
1326.3615224509535,1326.3615224509535,0.9999179874702262,0.000192734075065547
1326.3684668902615,1326.3684668902615,1.0002663641863125,0.00019278092394824323
1326.3754113295804,1326.3754113295804,1.000146709268312,0.00019276628248086512
1326.3823557689582,1326.3823557689582,1.0002384016178036,0.00019278239777444816
1326.3893002083587,1326.3893002083587,0.9999963035117603,0.00019275537721713366
1326.3962446477826,1326.3962446477826,0.999922081831843,0.0001927684831216335
1326.4031890872532,1326.4031890872532,0.99986832351595,0.00019274883107316663
1326.4101335267237,1326.4101335267237,0.9999302223463508,0.00019276977943855742
1326.4170779662525,1326.4170779662525,1.00005240959918,0.00019278758651887306
1326.4240224057928,1326.4240224057928,0.9997313445218181,0.00019277698406230302
1326.4309668453684,1326.4309668453684,0.9998880568437907,0.00019278996986165321
1326.4379112849665,1326.4379112849665,1.0002895226077584,0.0001928315404820842
1326.4448557245885,1326.4448557245885,1.0000192579634832,0.00019281798187411816
1326.4518001642455,1326.4518001642455,1.0001354068029,0.00019282894909866167
1326.4587446039138,1326.4587446039138,0.9999160489648723,0.0001928271584635859
1326.4656890436286,1326.4656890436286,0.9999552999219621,0.00019280801740717774
1326.4726334833554,1326.4726334833554,0.9999115882608489,0.00019281522525879278
1326.479577923117,1326.479577923117,1.0003084392642823,0.00019285298594216851
1326.4865223628901,1326.4865223628901,0.9999789906620556,0.0001928433272959615
1326.4934668026983,1326.4934668026983,0.9998020533665312,0.00019283624383861954
1326.50041124253,1326.50041124253,0.9997994256713408,0.00019285394298385077
1326.5073556823959,1326.5073556823959,1.0001596690777574,0.00019288261121177855
1326.514300122239,1326.514300122239,1.0000000115852203,0.0001928813296212861
1326.521244562175,1326.521244562175,1.0001709217146617,0.0001929020564339502
1326.5281890020883,1326.5281890020883,1.000057385942203,0.0001929178245188556
1326.535133442036,1326.535133442036,1.0000218326187627,0.00019292160328509205
1326.5420778820073,1326.5420778820073,0.9998505115856903,0.0001929096766879861
1326.5490223220017,1326.5490223220017,1.0000538981216514,0.00019295386172735253
1326.5559667620075,1326.5559667620075,0.9996920410715534,0.0001929373770516544
1326.5629112020486,1326.5629112020486,0.9998455332393089,0.00019293134312169403
1326.569855642101,1326.569855642101,1.0001079187064401,0.00019294557975831203
1326.576800082177,1326.576800082177,0.9998437467579325,0.0001929411834146676
1326.583744522276,1326.583744522276,1.0002666693121227,0.00019297092195570388
1326.5906889623989,1326.5906889623989,0.9999835574187246,0.0001929516554169919
1326.5976334025443,1326.5976334025443,1.0002512065358542,0.00019297819007767046
1326.604577842725,1326.604577842725,1.0002630649432018,0.00019296834112180042
1326.6115222829058,1326.6115222829058,0.9996934354735236,0.0001929320715249633
1326.6184667230864,1326.6184667230864,0.9999238899431594,0.00019296445353512997
1326.6254111633018,1326.6254111633018,0.9998350157104536,0.00019294644462387121
1326.632355603529,1326.632355603529,1.0000175625430416,0.0001929567198292353
1326.6393000437797,1326.6393000437797,1.0002398713602347,0.00019296381511834062
1326.6462444840652,1326.6462444840652,0.9999738496375498,0.00019296941081444957
1326.6531889243504,1326.6531889243504,1.000588065882215,0.00019300036359445928
1326.6601333646709,1326.6601333646709,1.0001264631242555,0.00019297359824641842
1326.6670778050027,1326.6670778050027,0.9997295558136458,0.0001929233865846935
1326.674022245335,1326.674022245335,0.9997515529517038,0.00019290628050836747
1326.6809666857018,1326.6809666857018,1.000081633713058,0.00019291502063667566
1326.688744458937,1326.688744458937,0.999955111603585,0.0001928891804799616
1326.6962444545532,1326.6962444545532,1.0000020054083723,0.00019289892556780867
1326.7031888949782,1326.7031888949782,0.9999061595451355,0.00019286829589933995
1326.7104111130109,1326.7104111130109,0.9998900491829019,0.00019285824437448757
1326.7184666639582,1326.7184666639582,1.0001495020433309,0.00019286719322691184
1326.72541110443,1326.72541110443,1.0002777633780562,0.0001928537307136065
1326.7323555449016,1326.7323555449016,0.9998327754044297,0.00019282639477935864
1326.7392999853848,1326.7392999853848,0.999952807295507,0.00019281769033213317
1326.7462444259031,1326.7462444259031,1.0000261986404602,0.0001928054117595818
1326.7531888664325,1326.7531888664325,1.0003117282957437,0.00019283626880642254
1326.7601333069745,1326.7601333069745,1.000173232989986,0.00019281134026006067
1326.7670777475273,1326.7670777475273,0.9998774345741627,0.00019278567382027256
1326.774022188104,1326.774022188104,0.9997581217881819,0.00019277239996916455
1326.7809666286805,1326.7809666286805,1.0000133806386402,0.00019279731991157112
1326.7879110692684,1326.7879110692684,1.0000558956332772,0.00019279218755896815
1326.794855509892,1326.794855509892,0.9996613735720272,0.00019276708829384488
1326.8017999505032,1326.8017999505032,1.0000058790327382,0.00019279485271041246
1326.8087443911493,1326.8087443911493,1.0000061787118646,0.00019278336935648726
1326.815688831807,1326.815688831807,1.0000319098877177,0.00019279241335274044
1326.8226332724653,1326.8226332724653,1.000123789622246,0.00019279339085626925
1326.8295777131348,1326.8295777131348,0.9999951500012058,0.00019276716838684865
1326.8365221538163,1326.8365221538163,1.0000825207834607,0.00019277744391793013
1326.8434665945208,1326.8434665945208,1.000084347425652,0.0001927685840809957
1326.8504110352367,1326.8504110352367,0.9999157015998745,0.00019274935143667862
1326.8573554759528,1326.8573554759528,1.0000934575310403,0.00019276114462086626
1326.8642999166927,1326.8642999166927,0.999849079540357,0.00019271502471024312
1326.8712443574204,1326.8712443574204,1.000038871377842,0.00019273346329281573
1326.8781887981831,1326.8781887981831,1.0000541955020839,0.00019273318860529715
1326.8851332389456,1326.8851332389456,0.9999019177260111,0.0001926805232109684
1326.8920776797436,1326.8920776797436,1.0002990528035656,0.0001927126708219308
1326.8990221205295,1326.8990221205295,0.9997019448864031,0.00019263260296595913
1326.9059665613272,1326.9059665613272,1.0001674931404914,0.00019265612622734423
1326.9129110021363,1326.9129110021363,0.9998519663786343,0.00019260157378685273
1326.9198554429574,1326.9198554429574,1.0003063085127597,0.0001926304130395351
1326.9267998837781,1326.9267998837781,0.9995366555308232,0.00019255166776054354
1326.9337443246227,1326.9337443246227,1.0001669800108888,0.00019258192750286728
1326.9406887654782,1326.9406887654782,0.9999919268952198,0.00019253364892454756
1326.9476332063343,1326.9476332063343,0.99982523009022,0.00019250659805391016
1326.95457764719,1326.95457764719,0.9999706649200967,0.00019251043170437154
1326.9615220880694,1326.9615220880694,1.0000682602108995,0.00019248884665537457
1326.9684665289603,1326.9684665289603,0.999987690949102,0.00019247089234577272
1326.975410969839,1326.975410969839,1.0002693025394305,0.00019247185677675083
1326.982355410742,1326.982355410742,1.000248119120628,0.00019246975054083707
1326.9892998516557,1326.9892998516557,0.9997643597466992,0.00019240887621684488
1326.996244292582,1326.996244292582,0.999660021098704,0.0001923780733277547
1327.0031887334956,1327.0031887334956,1.000093354942373,0.00019242830015166578
1327.0101331744331,1327.0101331744331,1.0000753540008307,0.00019239561113727232
1327.017077615382,1327.017077615382,0.999949080739366,0.00019239017079332967
1327.024022056331,1327.024022056331,0.9999972815794254,0.00019240177919090362
1327.0309664972915,1327.0309664972915,0.9998397617581214,0.00019238381925321439
1327.037910938252,1327.037910938252,1.0000008568235979,0.00019240616542918476
1327.0448553792132,1327.0448553792132,1.0004631147366276,0.00019243591376700826
1327.051799820197,1327.051799820197,0.9999042755225716,0.0001923779328262372
1327.0592998164652,1327.0592998164652,0.9999984382297885,0.00019240223604921928
