time,time,flux,flux_err
1354.1143095081045,1354.1143095081045,0.9998919491204176,0.00022221954001687172
1354.1231059784386,1354.1231059784386,1.0001320246665342,0.00022227184676978088
1354.1314394768326,1354.1314394768326,0.9998996431272665,0.0002222741720542881
1354.1390785171868,1354.1390785171868,1.0002506724943754,0.00020293267650743312
1354.1460230994578,1354.1460230994578,0.9999235208329171,0.00020292457848610223
1354.1529676818336,1354.1529676818336,0.9999398793850437,0.00020293036209967358
1354.1599122643377,1354.1599122643377,0.9998793765053564,0.0002029401207535914
1354.1668568469463,1354.1668568469463,0.9997774712060925,0.00020293361113977852
1354.1738014296775,1354.1738014296775,0.9999805100761561,0.00020296685098404577
1354.1807460125249,1354.1807460125249,1.0003935620848456,0.00020301804356955114
1354.1876905954655,1354.1876905954655,1.0000464753857883,0.0002029908293469441
1354.1946351785223,1354.1946351785223,1.000018004284729,0.00020301349138319926
1354.20157976169,1354.20157976169,1.0001634754968438,0.00020304137483522977
1354.2085243449624,1354.2085243449624,0.9996471854392766,0.00020302310101294
1354.215468928339,1354.215468928339,1.0001029552899676,0.0002030782100396502
1354.2224135118151,1354.2224135118151,0.9999036734606545,0.00020307910879947388
1354.229358095396,1354.229358095396,1.0000242809904272,0.00020311108144846582
1354.23630267907,1354.23630267907,1.0002386980454785,0.0002031442842338201
1354.2432472628486,1354.2432472628486,1.000127665222402,0.00020315517364734694
1354.2501918467146,1354.2501918467146,0.9998361826509878,0.00020313931243633458
1354.257136430691,1354.257136430691,0.9996433382015077,0.00020311742172599142
1354.2640810147495,1354.2640810147495,0.9999905671850845,0.00020317113436324968
1354.271025598912,1354.271025598912,0.9998863433803656,0.00020318332593078072
1354.277970183145,1354.277970183145,1.0000179723039442,0.00020321068512918968
1354.2849147674824,1354.2849147674824,1.000178382603817,0.0002032483680170127
1354.2918593519073,1354.2918593519073,0.9999613051015874,0.00020323692381552248
1354.2988039364134,1354.2988039364134,1.0002563315183828,0.00020328087937316832
1354.305748521007,1354.305748521007,1.0001422943590756,0.00020328197848530584
1354.3126931056881,1354.3126931056881,0.9997242909263753,0.00020325255086268843
1354.3196376904507,1354.3196376904507,1.000087599484526,0.00020330259243204877
1354.3265822752942,1354.3265822752942,0.999830597435621,0.0002033062619116992
1354.33352686022,1354.33352686022,1.0001300525301609,0.00020334284867917218
1354.3404714452267,1354.3404714452267,1.0000040115938915,0.00020335758299797556
1354.3474160302976,1354.3474160302976,1.000116525363047,0.0002034055617359649
1354.3543606154615,1354.3543606154615,1.0000950842050627,0.00020341158333169926
1354.36130520069,1354.36130520069,1.0000864005497851,0.00020343677301122055
1354.3682497859877,1354.3682497859877,0.9997086597013467,0.00020341495770130066
1354.3751943713728,1354.3751943713728,0.9996309561713443,0.00020340611425112478
1354.3821389568336,1354.3821389568336,1.0001854842694442,0.0002034839085401679
1354.3890835423413,1354.3890835423413,0.999985664689922,0.00020346748123659247
1354.396028127942,1354.396028127942,0.9999607274170375,0.00020349609369784137
1354.4029727135949,1354.4029727135949,1.000141325091969,0.00020351833361931284
1354.4099172993178,1354.4099172993178,1.0000023714310775,0.0002035366587351672
1354.4168618851104,1354.4168618851104,1.0002690257140556,0.00020357522730516867
1354.4238064709675,1354.4238064709675,0.999951479531977,0.00020355473438675537
1354.430751056882,1354.430751056882,0.9999564137423235,0.00020358175404625365
1354.4376956428725,1354.4376956428725,1.0000256566970147,0.00020358770752720027
1354.4446402289157,1354.4446402289157,0.9999495445132031,0.00020360381111477719
1354.4515848150168,1354.4515848150168,0.9997412320466381,0.00020360388114816822
1354.458529401182,1354.458529401182,1.000038207475364,0.0002036436086099237
1354.4654739874054,1354.4654739874054,1.000290900871936,0.00020369572836169514
1354.4724185736868,1354.4724185736868,0.999741843306777,0.00020366136620021889
1354.4793631600214,1354.4793631600214,1.0001256943824395,0.00020371652251635093
1354.4863077464133,1354.4863077464133,1.0001261388102394,0.0002037329170607895
1354.4932523328578,1354.4932523328578,0.9999864833006396,0.00020373624542924509
1354.5001969193495,1354.5001969193495,1.0001773595479642,0.00020376111471152885
1354.50714150591,1354.50714150591,0.9999571794472473,0.00020375311570881814
1354.514086092512,1354.514086092512,0.9993962185575466,0.00020371642168099587
1354.5210306791664,1354.5210306791664,1.0001463738326692,0.00020379630881028015
1354.5279752658728,1354.5279752658728,0.9999012515249449,0.00020379294734586018
1354.53491985262,1354.53491985262,0.9999584055843644,0.00020378929544554678
1354.54186443942,1354.54186443942,1.0001622924767084,0.00020383276012724775
1354.5488090262659,1354.5488090262659,0.9999429541080612,0.0002038214798625717
1354.5557536131591,1354.5557536131591,1.0003360056838377,0.0002038635795775491
1354.562698200098,1354.562698200098,0.9999469707315901,0.00020385472294588312
1354.5696427870898,1354.5696427870898,0.99994558319266,0.00020386330400555753
1354.576587374105,1354.576587374105,0.9999912987715296,0.00020388215625064904
1354.583531961184,1354.583531961184,1.0001262691487482,0.0002039089732898193
1354.5904765482924,1354.5904765482924,1.0001952087108668,0.00020394080766448906
1354.5974211354412,1354.5974211354412,0.999815425205211,0.00020391623423364597
1354.6043657226364,1354.6043657226364,1.0000287239659842,0.000203961727176612
1354.6113103098614,1354.6113103098614,1.0000136219772149,0.00020397282294537124
1354.618254897144,1354.618254897144,0.999834471696005,0.00020398144800534354
1354.6251994844445,1354.6251994844445,0.9997404032998857,0.00020397633085755484
1354.6321440717913,1354.6321440717913,0.9998356190490496,0.00020400631162891593
1354.6390886591787,1354.6390886591787,1.0001151388824292,0.00020405451349932114
1354.6460332465956,1354.6460332465956,1.0002498973627258,0.00020406607037961813
1354.652977834047,1354.652977834047,1.0000733706011666,0.00020408341201366394
1354.6599224215338,1354.6599224215338,0.9999654859314063,0.00020407420676703665
1354.6668670090496,1354.6668670090496,1.0002172456876577,0.00020411156202779034
1354.6738115966173,1354.6738115966173,1.0001159493704328,0.00020412005592150665
1354.6807561841968,1354.6807561841968,0.9998932918434094,0.00020411076265661258
1354.6877007718117,1354.6877007718117,0.9995503534144033,0.0002040918877090896
1354.6946453594726,1354.6946453594726,1.000021086462343,0.00020415518389339972
1354.7015899471514,1354.7015899471514,1.0002212095732397,0.00020417262110618506
1354.7085345348478,1354.7085345348478,0.9999421498526774,0.00020417522558163767
1354.71547912259,1354.71547912259,0.9997271898026234,0.00020416998492383648
1354.7224237103505,1354.7224237103505,1.0004405113584607,0.0002042546910237312
1354.729368298157,1354.729368298157,0.9999167887706578,0.00020421135019592606
1354.7363128859756,1354.7363128859756,1.0000947271563747,0.00020425159610817386
1354.7432574738168,1354.7432574738168,0.9999606323205494,0.00020424899619195984
1354.7502020616876,1354.7502020616876,1.0002430015588668,0.00020429291590535532
1354.7571466495872,1354.7571466495872,0.9999672626200937,0.0002042729175337187
1354.764091237505,1354.764091237505,0.9996573770070738,0.00020425454832461985
1354.771035825451,1354.771035825451,1.0000316336514912,0.00020428633103188151
1354.777980413421,1354.777980413421,1.0000605061222068,0.0002043064445398447
1354.7849250014137,1354.7849250014137,0.9997913471655602,0.0002042949942276022
1354.79186958943,1354.79186958943,0.9996280539248333,0.00020429601296041445
1354.7988141774695,1354.7988141774695,1.000264991999339,0.0002043428362679055
1354.8057587655323,1354.8057587655323,1.0001936288692583,0.0002043361778853425
1354.8127033536068,1354.8127033536068,1.000246528624332,0.00020435771768093002
1354.8196479417043,1354.8196479417043,1.0002574788683822,0.00020435925107429266
1354.8265925298194,1354.8265925298194,0.9999347564419322,0.0002043273082347451
1354.8335371179642,1354.8335371179642,0.9994981776233504,0.00020428802526464593
1354.8404817061196,1354.8404817061196,0.9999296681778633,0.00020433583075942386
1354.8474262942932,1354.8474262942932,1.0001483680154688,0.00020435371003841942
1354.854370882484,1354.854370882484,0.9996601013980341,0.00020430547133882567
1354.8613154706982,1354.8613154706982,1.0000590098974889,0.00020436288865848456
1354.8682600589243,1354.8682600589243,1.0001669349423143,0.00020437837890498545
1354.8752046471673,1354.8752046471673,1.000292874297839,0.0002043789171223769
1354.8821492354164,1354.8821492354164,1.0001625782167696,0.0002043759012335783
1354.8890938237005,1354.8890938237005,0.9999177486458215,0.00020435755026365849
1354.8960384119844,1354.8960384119844,1.0000715776588904,0.000204368182352063
1354.9029830002917,1354.9029830002917,0.9998332028486241,0.0002043534649958123
1354.909927588605,1354.909927588605,0.9997301902776892,0.0002043494049336424
1354.9168721769408,1354.9168721769408,0.9990082677062129,0.0002042216392197543
1354.9238167652775,1354.9238167652775,0.9978834457367014,0.00020394446239957903
1354.9310391371678,1354.9310391371678,0.9958612586503539,0.0002035719273198548
1354.939094859678,1354.939094859678,1.0034414433078398,0.0002041569824166709
1354.9460394480611,1354.9460394480611,1.0098766821203564,0.00020477679980845787
1354.9529840364557,1354.9529840364557,1.0038565375143924,0.00020420374894054077
1354.9599286248617,1354.9599286248617,1.000915534115613,0.00020394319584838156
1354.9668732132682,1354.9668732132682,0.9998889930290066,0.00020389357607027142
1354.9738178017033,1354.9738178017033,0.9997933360472564,0.0002039703806301532
1354.9807623901331,1354.9807623901331,0.9997005881030017,0.0002040270860228931
1354.9877069785857,1354.9877069785857,0.9992641527831558,0.00020403620893644773
1354.9946515670385,1354.9946515670385,0.999106761030301,0.00020408307005006246
1355.001596155497,1355.001596155497,0.99946089601564,0.00020416125899023856
1355.0085407439733,1355.0085407439733,1.0000632307740793,0.00020424583208812288
1355.0154853324493,1355.0154853324493,0.9998440895780195,0.0002042845613642415
1355.0224299209312,1355.0224299209312,0.9995221047553583,0.00020427683124723655
1355.0293745094307,1355.0293745094307,1.0005951114510014,0.00020442056289248048
1355.0363190979301,1355.0363190979301,1.0003600605097203,0.00020442355335410214
1355.0432636864352,1355.0432636864352,0.9998603958204908,0.000204393162591199
1355.0502082749463,1355.0502082749463,1.0002073958367768,0.0002044213171077766
1355.057152863469,1355.057152863469,0.9999958620250414,0.00020442984425620832
1355.0640974519915,1355.0640974519915,0.9997896487267799,0.00020442728178466223
1355.0710420405255,1355.0710420405255,1.0001762798599927,0.0002044765311485612
1355.0779866290482,1355.0779866290482,0.9997498265712996,0.00020444760629248913
1355.0849312176001,1355.0849312176001,1.0000450755895263,0.0002044568736049918
1355.0918758061343,1355.0918758061343,0.9996309606850435,0.00020443750293865727
1355.0988203946747,1355.0988203946747,1.0001050623714467,0.0002044896867218219
1355.1057649832262,1355.1057649832262,1.0002204837691375,0.00020451237140531306
1355.1127095717782,1355.1127095717782,1.000245303439739,0.0002044965528747434
1355.119654160359,1355.119654160359,1.0001052133600388,0.00020450118075444461
1355.1265987489103,1355.1265987489103,1.0000918088379247,0.0002045235050674249
1355.1335433374625,1355.1335433374625,1.0000532692909434,0.00020450923660346524
1355.140487926043,1355.140487926043,1.0001031811137069,0.00020452257178477855
1355.147432514595,1355.147432514595,0.9996877733800128,0.00020451329776514674
1355.1543771031756,1355.1543771031756,1.0000179444969564,0.00020455132772191897
1355.1613216917394,1355.1613216917394,0.9999011502265841,0.000204538108247355
1355.168266280309,1355.168266280309,1.00001753814954,0.0002045497737143242
1355.1752108688834,1355.1752108688834,0.9997975880835754,0.00020453515260797088
1355.1821554574526,1355.1821554574526,0.9998534859753683,0.00020455481059341083
1355.1891000460225,1355.1891000460225,0.9998352887288064,0.00020453639822836213
1355.1960446346027,1355.1960446346027,1.0002599242324768,0.0002045838641662719
1355.2029892231722,1355.2029892231722,1.0000995165698263,0.0002045663695920782
1355.2099338117412,1355.2099338117412,1.000279272015817,0.00020458069241931554
1355.2168784003165,1355.2168784003165,1.0000344045540301,0.0002045538207415231
1355.2238229888858,1355.2238229888858,1.000016743071114,0.00020456026461684304
1355.230767577449,1355.230767577449,1.0001634718238417,0.00020458715436481577
1355.237712166024,1355.237712166024,0.9997876220792075,0.00020455400390571431
1355.2446567545815,1355.2446567545815,0.9999412195793971,0.00020456263946388702
1355.2516013431566,1355.2516013431566,0.9997230825493822,0.00020453116710507577
1355.2585459317143,1355.2585459317143,1.0000952372489025,0.00020458543797796246
1355.265490520266,1355.265490520266,1.0005548554043564,0.0002046295952073182
1355.2724351088175,1355.2724351088175,0.9995560159768238,0.00020452237156147295
1355.2793796973697,1355.2793796973697,1.0001647897414456,0.00020458057640039838
1355.2863242859214,1355.2863242859214,1.0001220748044015,0.00020459322313365656
1355.293268874473,1355.293268874473,0.9998541712232548,0.00020454206671862864
1355.3002134630246,1355.3002134630246,1.0004111386528438,0.00020459539789699
1355.3071580515766,1355.3071580515766,1.0002041630736944,0.00020456419947925274
1355.3141026400992,1355.3141026400992,1.000119186320439,0.00020456566035340456
1355.3210472286394,1355.3210472286394,0.9995633256319227,0.0002045226655053375
1355.327991817168,1355.327991817168,0.9997540988308107,0.00020454138125103474
1355.3360475398526,1355.3360475398526,1.0002519577192746,0.00020458631814394994
1355.343269911918,1355.343269911918,0.999801992015476,0.00020454292978534807
1355.3502145004288,1355.3502145004288,0.9998314153685403,0.00020454241928947133
1355.357159088934,1355.357159088934,1.000338173189215,0.00020461676205282557
1355.3641036774393,1355.3641036774393,1.0003009328599997,0.0002046072874306653
1355.3710482659383,1355.3710482659383,0.9999639082207972,0.00020454729879375901
1355.3779928544323,1355.3779928544323,1.0000640054109609,0.00020456749412067822
1355.3849374429196,1355.3849374429196,0.999345777928591,0.00020448567047134776
1355.3918820314072,1355.3918820314072,1.000081815311011,0.00020457375027723492
1355.400215537565,1355.400215537565,0.9999457233562652,0.00020452955784126364
1355.4071601260348,1355.4071601260348,0.9999505885522142,0.0002045222422072086
1355.4141047144994,1355.4141047144994,0.999953535034391,0.00020451537223993942
1355.4210493029525,1355.4210493029525,0.999922289696174,0.00020451346778651425
1355.4279938913992,1355.4279938913992,1.0001846823087748,0.0002045053278594496
1355.4349384798406,1355.4349384798406,1.0001557055147767,0.00020451557881865024
1355.44188306827,1355.44188306827,1.0003348117392312,0.00020452774277150178
1355.4488276566935,1355.4488276566935,1.0001966913869826,0.00020450928927297104
1355.4557722451177,1355.4557722451177,0.9997928097602339,0.0002044589348099217
1355.4627168335353,1355.4627168335353,1.0001515563651953,0.00020451441797488356
1355.4696614219301,1355.4696614219301,1.0000384188033709,0.0002044945163948198
1355.4766060103188,1355.4766060103188,1.0000885114646423,0.00020450511908453537
1355.4835505987076,1355.4835505987076,1.000001639653005,0.00020449741096244942
1355.490495187085,1355.490495187085,1.0000141803648752,0.00020448942732669462
1355.4974397754618,1355.4974397754618,0.9995680087415952,0.0002044330695285184
1355.5043843638155,1355.5043843638155,0.9996462430416795,0.00020439891078780293
1355.5113289521694,1355.5113289521694,0.999469209420989,0.00020437574491763451
1355.5182735405174,1355.5182735405174,0.9992138279442081,0.00020432194535212946
1355.525218128848,1355.525218128848,0.9991551575192126,0.00020428913907808558
1355.5321627171727,1355.5321627171727,1.0009331631242044,0.0002044335309815776
1355.539107305492,1355.539107305492,1.0004105928317923,0.00020435200564028672
1355.546051893799,1355.546051893799,1.0005833674734297,0.00020436824797950072
1355.5529964820948,1355.5529964820948,1.0012801585153126,0.00020443300231170049
1355.5599410703787,1355.5599410703787,1.0006823994407168,0.00020436538136189868
1355.5668856586685,1355.5668856586685,0.999989489228556,0.00020429402683774223
1355.5738302469292,1355.5738302469292,0.999448265260418,0.0002042513929432299
1355.5807748351901,1355.5807748351901,0.9995739265252233,0.0002042718858641821
1355.587719423433,1355.587719423433,0.999822151681866,0.00020430567135193634
1355.5946640116708,1355.5946640116708,0.9996696854788875,0.00020432966662403785
1355.6016085998963,1355.6016085998963,0.999924914189757,0.00020437116377176024
1355.6085531881165,1355.6085531881165,1.0000528521886547,0.00020438439414066146
1355.615497776325,1355.615497776325,1.0002832906562673,0.00020442990128157843
1355.6224423645156,1355.6224423645156,0.9999986775407084,0.000204405025932243
1355.6293869527005,1355.6293869527005,0.9995952970406566,0.00020434594649625942
1355.6363315408744,1355.6363315408744,0.9997443398874329,0.00020435642652996813
1355.6432761290357,1355.6432761290357,1.000127593414891,0.00020438811236911242
1355.6502207171864,1355.6502207171864,1.0000205368949466,0.00020437773428030886
1355.6571653053304,1355.6571653053304,1.0001775661273749,0.00020441317314764048
1355.6641098934456,1355.6641098934456,1.0000652835223125,0.00020436119320788615
1355.671054481561,1355.671054481561,0.999950640128539,0.00020437719565205405
1355.6779990696757,1355.6779990696757,1.0004081782273462,0.00020440458077557974
1355.684943657768,1355.684943657768,0.9999165004736792,0.00020434231631518497
1355.6918882458485,1355.6918882458485,1.0000172375590801,0.00020436387658515605
1355.6988328339169,1355.6988328339169,0.9998214874743152,0.00020433415294990293
1355.7057774219738,1355.7057774219738,0.9996790113810972,0.00020431038833005193
1355.7127220100253,1355.7127220100253,1.0000621102642917,0.00020434412761165095
1355.719666598053,1355.719666598053,1.0002600153999723,0.00020435009475849327
1355.7266111860752,1355.7266111860752,0.9998773223921835,0.00020431588780822082
1355.7335557740796,1355.7335557740796,1.000105567621335,0.00020432387165969217
1355.7407781455913,1355.7407781455913,0.9999575539364308,0.00020431247578942875
1355.7488338676599,1355.7488338676599,1.000005158811037,0.00020430326104274878
1355.7557784556175,1355.7557784556175,0.9998780816360053,0.00020427014837790387
1355.7627230435755,1355.7627230435755,1.0000587219039911,0.0002042844403650169
1355.7696676315106,1355.7696676315106,0.9997123234059048,0.00020423968446480633
1355.7766122194448,1355.7766122194448,1.000340399017317,0.00020428106722608286
1355.7835568073565,1355.7835568073565,0.9999168357296409,0.00020423031288457493
1355.7905013952566,1355.7905013952566,1.0003478239967403,0.00020428071952067347
1355.7974459831507,1355.7974459831507,0.9998492620832738,0.0002042118593510172
1355.804390571027,1355.804390571027,1.0000125894459948,0.00020422610871779893
1355.811335158886,1355.811335158886,0.9999606920556456,0.0002042178523796092
1355.8182797467282,1355.8182797467282,1.0001841825041922,0.00020422707042365358
1355.8252243345753,1355.8252243345753,0.9996345230166975,0.0002041856601832347
1355.8321689223937,1355.8321689223937,0.9999034848097624,0.00020420281454612516
1355.8391135101947,1355.8391135101947,1.0002397211341951,0.00020422566325204507
1355.8460580979838,1355.8460580979838,0.9997677794569046,0.00020417935685784205
1355.8530026857673,1355.8530026857673,0.9998346992491906,0.0002041721366584876
1355.8599472735273,1355.8599472735273,0.9999779362226711,0.000204197232589346
1355.8668918612816,1355.8668918612816,1.0002905203981416,0.00020421631713649703
