time,time,flux,flux_err
1325.3001806931286,1325.3001806931286,0.9989709312663969,0.004982355661635444
1325.3085140795818,1325.3085140795818,1.0005180877098296,0.004989816999614932
1325.3168474662104,1325.3168474662104,1.0005563258316728,0.004996898517345944
1325.324486404088,1325.324486404088,0.9977473887576472,0.004565659821781302
1325.3314308932327,1325.3314308932327,1.0009134062431988,0.004574842252219356
1325.338375382471,1325.338375382471,1.0034785599524567,0.004584977180859419
1325.3453198718255,1325.3453198718255,1.001883105031562,0.004593443124045083
1325.3522643612964,1325.3522643612964,1.001530641119262,0.0046058439912612156
1325.359208850907,1325.359208850907,0.9933852858417043,0.004614032754659592
1325.3661533405875,1325.3661533405875,1.004992462138353,0.004632325753343623
1325.3730978304072,1325.3730978304072,0.9967262606454131,0.004646018376273568
1325.380042320344,1325.380042320344,0.9950314094716912,0.004653050554425227
1325.3869868103855,1325.3869868103855,1.0010170217476646,0.004667422781529483
1325.3939313005314,1325.3939313005314,1.0007991796031737,0.004677340869883996
1325.4008757907823,1325.4008757907823,0.9963102538316202,0.004685447617913873
1325.40782028115,1325.40782028115,1.0013090873677728,0.004691469159533732
1325.4147647715986,1325.4147647715986,1.0032413819324781,0.004701661413653134
1325.4217092621986,1325.4217092621986,1.003717924814506,0.00471033624799942
1325.4286537528683,1325.4286537528683,0.9925147486147943,0.004713293479888157
1325.4355982436548,1325.4355982436548,1.0020546056760482,0.004728353959093573
1325.4425427345461,1325.4425427345461,1.0037771294162392,0.004739937264829871
1325.4494872255418,1325.4494872255418,0.9993261018761508,0.004753781648941777
1325.4564317166194,1325.4564317166194,1.0059174266313398,0.004767044163408405
1325.4633762078015,1325.4633762078015,1.0006660212596925,0.004779121532486026
1325.4703206990885,1325.4703206990885,0.9950056180922964,0.004795019806406624
1325.477265190457,1325.477265190457,1.0001079984249848,0.0048202380997520175
1325.4842096819534,1325.4842096819534,0.999045592687094,0.004835776471965522
1325.4911541735084,1325.4911541735084,1.0008992121379905,0.004854803232417463
1325.4980986651794,1325.4980986651794,0.9973607581827867,0.004874103346442095
1325.5050431569318,1325.5050431569318,0.9971188801697035,0.004895744842005546
1325.5119876487781,1325.5119876487781,1.0124300710745557,0.004923556717791435
1325.5189321407283,1325.5189321407283,0.9936914168661073,0.004938391511530505
1325.5258766327486,1325.5258766327486,0.9981236976571163,0.00495754062533013
1325.532821124862,1325.532821124862,0.9968540228275622,0.004972160921588698
1325.5397656170687,1325.5397656170687,1.0006649236933696,0.004990784260244857
1325.546710109357,1325.546710109357,1.0014178149250488,0.005007005346279164
1325.5536546017381,1325.5536546017381,1.0026735539941491,0.00501902796434384
1325.5605990941897,1325.5605990941897,0.9937767032573321,0.005026579456259278
1325.5675435867222,1325.5675435867222,1.0001485478995868,0.005043065142204739
1325.5744880793711,1325.5744880793711,1.0001377780006957,0.005058381915813786
1325.581432572067,1325.581432572067,1.000807330984832,0.005070382538895113
1325.5883770648554,1325.5883770648554,1.0035232255977438,0.005080514486300183
1325.5953215577256,1325.5953215577256,1.0077324861698855,0.005090453518268911
1325.6022660506774,1325.6022660506774,0.9934197783945511,0.005093302545255146
1325.6092105436987,1325.6092105436987,1.0055028354312392,0.005106829932560267
1325.6161550367904,1325.6161550367904,0.9941783569193422,0.005106874084582081
1325.623099529975,1325.623099529975,0.9991801230925544,0.005111956813279745
1325.6300440232176,1325.6300440232176,0.9941953431140039,0.005114243099816418
1325.6369885165536,1325.6369885165536,1.0001265561953048,0.00511854278114888
1325.6439330099706,1325.6439330099706,1.0044110836261333,0.00511609201982941
1325.650877503423,1325.650877503423,0.9999396375348354,0.005120537999467514
1325.6578219969567,1325.6578219969567,1.001642286475851,0.005123207297661168
1325.6647664905838,1325.6647664905838,1.0002979884798027,0.005115448280146359
1325.671710984257,1325.671710984257,1.0020480489997037,0.005117104537818184
1325.6786554780124,1325.6786554780124,0.9998961789391629,0.005117891929237401
1325.6855999718373,1325.6855999718373,0.9946303730579785,0.005114184070393284
1325.6925444657202,1325.6925444657202,1.0071698568875262,0.00512332447821176
1325.699488959673,1325.699488959673,1.0014250791416988,0.00512113431558319
1325.706433453696,1325.706433453696,0.9916660153851484,0.005124268498720882
1325.7133779477767,1325.7133779477767,1.002816206880967,0.005129594981266998
1325.720322441939,1325.720322441939,0.9990756602855979,0.005130756659749634
1325.7272669361366,1325.7272669361366,1.0008243199299296,0.005133935463825292
1325.7342114304035,1325.7342114304035,0.9964754667100534,0.005130957458627046
1325.7411559247525,1325.7411559247525,1.002022675782131,0.005134930946068927
1325.7481004191472,1325.7481004191472,1.0017540355453687,0.005135396107002434
1325.755044913601,1325.755044913601,0.9979865911818855,0.005131733162761757
1325.761989408113,1325.761989408113,0.998520185871817,0.0051344238179664775
1325.768933902671,1325.768933902671,0.9978466185389905,0.005135090894055872
1325.7758783973227,1325.7758783973227,1.0036147684095504,0.00513970458048982
1325.7828228920087,1325.7828228920087,1.0034409354320988,0.005141811307911707
1325.7897673867533,1325.7897673867533,0.9998531907854099,0.005142207238931946
1325.7967118815443,1325.7967118815443,0.9971933698286571,0.005142052278890788
1325.8036563763937,1325.8036563763937,1.0000400974761972,0.0051440759048274505
1325.810600871313,1325.810600871313,1.0006019779279538,0.005146034101047215
1325.8175453662782,1325.8175453662782,1.0007001916401264,0.005145443676793141
1325.8244898613025,1325.8244898613025,1.0002112983814277,0.005144961968180037
1325.8314343563495,1325.8314343563495,0.9960532694867981,0.005151138488668758
1325.8383788514668,1325.8383788514668,0.9985373902269042,0.005155703724130585
1325.845323346642,1325.845323346642,1.00106156502025,0.005160256247731423
1325.8522678418635,1325.8522678418635,1.001132060208922,0.005157665359332863
1325.859212337132,1325.859212337132,0.9977504606621788,0.005152340034541808
1325.866156832447,1325.866156832447,1.003269972552507,0.005149841157142289
1325.8731013278089,1325.8731013278089,1.0019061466302321,0.005142238606412867
1325.8800458232167,1325.8800458232167,0.9956026273980287,0.005131445009155147
1325.8869903186946,1325.8869903186946,0.9906394917549746,0.005123556182312358
1325.8939348141841,1325.8939348141841,1.0013323889946821,0.005122035480394644
1325.900879309732,1325.900879309732,1.0010307537063887,0.005115943209911306
1325.9078238053144,1325.9078238053144,1.0075257542760738,0.005117083297761686
1325.9147683009553,1325.9147683009553,0.9957742834720749,0.005106682302152994
1325.9217127966426,1325.9217127966426,1.0060848775502123,0.005104238370740185
1325.928657292377,1325.928657292377,0.9970403290344567,0.005098670834512883
1325.935601788146,1325.935601788146,1.0003357401620043,0.005101533605457595
1325.94254628395,1325.94254628395,0.999821729959114,0.005096862149240394
1325.9494907798005,1325.9494907798005,0.9975292340551748,0.005091678691156355
1325.9564352756975,1325.9564352756975,1.0043711662432533,0.005094525414487306
1325.9642131111334,1325.9642131111334,0.9952499375703594,0.005094705781356993
1325.9717131667967,1325.9717131667967,1.0013057813113044,0.005098539088583593
1325.9786576627985,1325.9786576627985,1.0029409617964375,0.005095426429379094
1325.9856021588464,1325.9856021588464,0.9964971444997323,0.005089772024368267
1325.9925466549646,1325.9925466549646,0.9929020294613805,0.005087198205481912
1325.9994911510948,1325.9994911510948,1.0040879298494358,0.005095376004206538
1326.0064356472594,1326.0064356472594,1.0002634272431188,0.005094821765073404
1326.0133801434592,1326.0133801434592,1.0030376760078312,0.005104723134635154
1326.0203246397054,1326.0203246397054,0.9989993135331842,0.005111629889239545
1326.027269135975,1326.027269135975,1.0034573304941805,0.005119271435338889
1326.034213632291,1326.034213632291,1.0065418088198577,0.005120276018739004
1326.0411581286187,1326.0411581286187,1.0010255701030826,0.005120302256308991
1326.0481026250168,1326.0481026250168,0.9941052442326755,0.005119553254081163
1326.0550471214258,1326.0550471214258,1.001503931567715,0.005121597688191959
1326.0619916178698,1326.0619916178698,0.9938762534746852,0.005123349472247312
1326.068936114349,1326.068936114349,0.998623418995602,0.005130499789928406
1326.075880610851,1326.075880610851,0.9997676450652525,0.0051330867014386106
1326.082825107389,1326.082825107389,0.9993505025788794,0.005132673693260802
1326.089769603961,1326.089769603961,1.0026913900796148,0.005132370561375657
1326.09671410058,1326.09671410058,1.0094147522873314,0.005134780213824639
1326.103658597199,1326.103658597199,0.9944067479404637,0.005127925818874507
1326.110603093864,1326.110603093864,1.0000175928861552,0.005124636466712502
1326.117547590541,1326.117547590541,1.0026141506821977,0.005119925879928615
1326.1244920872643,1326.1244920872643,0.9998966588146485,0.005113727776106101
1326.1314365840117,1326.1314365840117,1.0005830629849055,0.005110161031795311
1326.1383810807697,1326.1383810807697,1.0021861973432404,0.005107110396466335
1326.1453255775868,1326.1453255775868,0.9983193008928615,0.0051045455978192995
1326.152270074415,1326.152270074415,0.9977269221056346,0.00510180683969091
1326.1592145712664,1326.1592145712664,0.9963358665642106,0.0050968906061252895
1326.1661590681533,1326.1661590681533,1.0072319713321392,0.005096299956242107
1326.1731035650396,1326.1731035650396,0.9988538309073297,0.005087293258262054
1326.1800480619727,1326.1800480619727,1.0046454101055435,0.0050814084104827024
1326.186992558941,1326.186992558941,0.9939102552119955,0.005075929486886226
1326.19393705592,1326.19393705592,0.9963498883547717,0.005068747419820581
1326.2008815529236,1326.2008815529236,0.9971290273025527,0.005068005035559658
1326.2078260499613,1326.2078260499613,1.0016707113017544,0.005066976217320639
1326.2147705469997,1326.2147705469997,1.0019927828314903,0.005068442095763348
1326.2217150440836,1326.2217150440836,1.0096482534421338,0.005069417548805833
1326.22865954118,1326.22865954118,1.0042429065493395,0.0050661346982556355
1326.2356040382876,1326.2356040382876,0.994362882210746,0.005061138371599256
1326.2425485354415,1326.2425485354415,1.0041561263245196,0.005063411484921658
1326.2494930325965,1326.2494930325965,0.9945317843485192,0.00505487046478415
1326.2564375297854,1326.2564375297854,0.9878345990864478,0.005053977650250545
1326.2633820269748,1326.2633820269748,1.0032478843397221,0.0050633722691361014
1326.270326524199,1326.270326524199,1.0032857973140246,0.005066239601140972
1326.2772710214695,1326.2772710214695,0.9984108729092747,0.005064892760131583
1326.2842155187172,1326.2842155187172,1.0017012491106956,0.005060861766648534
1326.291160016011,1326.291160016011,1.008489513880675,0.005067194822295458
1326.2981045133051,1326.2981045133051,1.0017176830815662,0.005065079736545947
1326.3050490106339,1326.3050490106339,0.9928795495962455,0.0050596147545573945
1326.3119935079746,1326.3119935079746,1.0005099966645061,0.005061312246750557
1326.3189380053384,1326.3189380053384,0.9897688435059724,0.005057096415078034
1326.325882502702,1326.325882502702,1.006043977958873,0.005067533907340086
1326.3328270001016,1326.3328270001016,1.002326122934907,0.005069561356853261
1326.3397714975115,1326.3397714975115,1.0062833857363729,0.005070195239679255
1326.3472715547348,1326.3472715547348,0.9935526663908846,0.005065364409106807
1326.3564382913617,1326.3564382913617,0.9946362580823054,0.005071899360148237
1326.3633827888302,1326.3633827888302,1.0010405434409895,0.005076148416881287
1326.3703272863222,1326.3703272863222,1.0001263548086388,0.005076664011329798
1326.3772717838142,1326.3772717838142,1.006056603068632,0.005078564238451768
1326.384216281306,1326.384216281306,0.9979009386512157,0.005085473254033089
1326.391160778868,1326.391160778868,1.000695706386549,0.005091891808885786
1326.3981052763831,1326.3981052763831,1.0111693090596843,0.00509922969809293
1326.4050497739565,1326.4050497739565,0.9954890394625029,0.0051008332675713955
1326.4119942715186,1326.4119942715186,0.9937697601029724,0.005102084668199256
1326.4189387690917,1326.4189387690917,0.9977213288519747,0.005107332977006982
1326.4258832667,1326.4258832667,1.001851754334644,0.0051121577231714194
1326.4328277643083,1326.4328277643083,0.998274242182179,0.005115640723635043
1326.4397722619283,1326.4397722619283,1.0007023806846314,0.005122990434820703
1326.44671675956,1326.44671675956,0.9966812275943088,0.005126532598484891
1326.453661257215,1326.453661257215,1.0048223662089004,0.005129938255294611
1326.4606057548813,1326.4606057548813,1.003161292273842,0.00512922259142764
1326.4675502525479,1326.4675502525479,1.002574395191822,0.005127640352683696
1326.474494750226,1326.474494750226,1.0021313507454006,0.00512659242605325
1326.481439247928,1326.481439247928,0.9935486418815037,0.005122681155777893
1326.4883837456289,1326.4883837456289,0.9956090980761347,0.00511945213047826
1326.495328243354,1326.495328243354,0.9958884032750795,0.005119411128125411
1326.502272741067,1326.502272741067,1.0019254657643613,0.005117267948166655
1326.5092172388152,1326.5092172388152,0.9956843453255037,0.00511453550903312
1326.516161736563,1326.516161736563,1.0062032240937495,0.005115067918041635
1326.5231062343228,1326.5231062343228,1.0027507784002807,0.005112015384522184
1326.5300507320824,1326.5300507320824,0.9928930096513765,0.005100681480942033
1326.5369952298652,1326.5369952298652,1.0040425457197997,0.005104707154834103
1326.5439397276368,1326.5439397276368,1.0041247821826709,0.005101453199266193
1326.5508842254428,1326.5508842254428,0.9996944052869899,0.005099323984569208
1326.5578287232488,1326.5578287232488,0.992466508579579,0.005092164696936501
1326.5647732210552,1326.5647732210552,1.0061759096297063,0.00509628975076191
1326.5717177188615,1326.5717177188615,1.0040241029847423,0.005095865370935977
1326.578662216703,1326.578662216703,1.004407917196734,0.005098984986606438
1326.5856067145319,1326.5856067145319,0.9970393271674617,0.005098344852075425
1326.5925512123854,1326.5925512123854,0.995004310907119,0.005100632420465757
1326.5994957102262,1326.5994957102262,1.000759689847976,0.0051058992375009864
1326.6064402080792,1326.6064402080792,1.0029687557093823,0.005115175868499452
1326.6133847059436,1326.6133847059436,0.9985157755254486,0.0051187805024560905
1326.6203292038194,1326.6203292038194,1.0005049089232645,0.005121047382998676
1326.627273701696,1326.627273701696,0.9949690039149909,0.0051225340638569915
1326.6342181995715,1326.6342181995715,1.0023453302403622,0.005127893538872841
1326.6411626974714,1326.6411626974714,0.9984249630950378,0.005134436947880457
1326.648107195359,1326.648107195359,1.0046734716754664,0.005131059601364713
1326.6550516932582,1326.6550516932582,0.995779507685393,0.005127457322306897
1326.6619961911697,1326.6619961911697,1.0015863509929086,0.005127404783466581
1326.6689406890803,1326.6689406890803,1.0001878232699082,0.00512531980176558
1326.6758851870031,1326.6758851870031,1.0018233652025845,0.005122397802214597
1326.682829684914,1326.682829684914,1.0007897254619438,0.00511293446190881
1326.690885302509,1326.690885302509,0.9906739742370332,0.005104825624748085
1326.6981075803553,1326.6981075803553,1.0000933239069114,0.005105765950554434
1326.7050520783014,1326.7050520783014,1.0038183120622144,0.005100782958592153
1326.7125521360717,1326.7125521360717,1.003024965356997,0.00509623906344787
1326.7203299737662,1326.7203299737662,0.9978151578576633,0.005090774024340917
1326.7272744717125,1326.7272744717125,1.003745165202688,0.0050906061298334835
1326.7342189696697,1326.7342189696697,0.9967984529908742,0.00508635635083453
1326.741163467616,1326.741163467616,1.0042130805337526,0.005085944942022204
1326.7481079655731,1326.7481079655731,0.9968334951013214,0.005083492176145912
1326.755052463554,1326.755052463554,1.0045568920162982,0.00508614466357548
1326.7619969615002,1326.7619969615002,0.9921850868401293,0.005082657959552235
1326.7689414594693,1326.7689414594693,1.0047458592098173,0.005091506739473587
1326.7758859574385,1326.7758859574385,0.9967699383280111,0.005088507065678124
1326.7828304554193,1326.7828304554193,0.9943238427970853,0.0050844184216774935
1326.7897749533888,1326.7897749533888,1.0060469087132995,0.005092609514247887
1326.7967194513578,1326.7967194513578,0.9985792249733543,0.00509254087006186
1326.803663949339,1326.803663949339,0.9944699081441394,0.005088919705049849
1326.810608447308,1326.810608447308,0.9950082705332776,0.005092902934961134
1326.8175529452885,1326.8175529452885,1.002004776638611,0.005093753297562814
1326.8244974432812,1326.8244974432812,1.005160803260873,0.005092385356135629
1326.8314419412623,1326.8314419412623,0.9984306842480322,0.005086835570023939
1326.838386439243,1326.838386439243,1.0070562914620216,0.005093951787836961
1326.845330937224,1326.845330937224,0.9960248892248955,0.0050859808747529085
1326.8522754352048,1326.8522754352048,0.9919066378761675,0.005077342624268349
1326.8592199331972,1326.8592199331972,1.0072686452650725,0.005085736196874233
1326.8661644311785,1326.8661644311785,1.0011151242308478,0.0050764785237639816
1326.873108929171,1326.873108929171,1.0002031714327138,0.00506885685003569
1326.8800534271516,1326.8800534271516,1.003808518943302,0.005064794296838114
1326.8869979251442,1326.8869979251442,0.9944130377826383,0.005058440309563821
1326.8939424231248,1326.8939424231248,0.9959154586989657,0.00504836429896338
1326.900886921106,1326.900886921106,1.001923611013925,0.005036008099039655
1326.907831419098,1326.907831419098,1.0036887743864003,0.005021466723213938
1326.9147759170792,1326.9147759170792,0.994129179762837,0.005005967561832685
1326.92172041506,1326.92172041506,0.9931512562341324,0.004994369925672206
1326.9286649130524,1326.9286649130524,1.0046838924379853,0.004983856445791133
1326.9356094110337,1326.9356094110337,1.0047114166597293,0.004972179847239918
1326.9425539090025,1326.9425539090025,0.9941811222722515,0.004957716597345746
1326.9494984069836,1326.9494984069836,1.0077367646541977,0.0049557434084468435
1326.9564429049644,1326.9564429049644,1.0064020474154032,0.004943328103122262
1326.9633874029455,1326.9633874029455,0.9962218787679106,0.004936420454790774
1326.9703319009145,1326.9703319009145,0.9998138565603117,0.004933217425502618
1326.9772763988835,1326.9772763988835,1.0038638710997732,0.004928273828890356
1326.984220896865,1326.984220896865,0.996572024244793,0.004925963901996632
1326.9911653948222,1326.9911653948222,0.9990164102210496,0.004927099198446655
1326.9981098927917,1326.9981098927917,0.9936994303126203,0.004923492966288708
1327.0050543907491,1327.0050543907491,1.0002726688703591,0.004926618330172395
1327.01199888873,1327.01199888873,1.0009303939839413,0.004925911979124357
1327.0189433866758,1327.0189433866758,1.0023335341042319,0.004930868263533678
1327.0258878846332,1327.0258878846332,1.0023701960143598,0.004930844240619723
1327.0328323825795,1327.0328323825795,0.9982037720968927,0.00493305093113889
1327.0397768805367,1327.0397768805367,0.9972584218849907,0.00493592486995093
1327.0467213784832,1327.0467213784832,1.0039393437417912,0.004938859335108597
1327.0536658764288,1327.0536658764288,1.0035788849276,0.004943663048309124
1327.0614437141116,1327.0614437141116,0.9990506190981311,0.004940176541577279
1327.0689437718936,1327.0689437718936,0.998664544921154,0.004940076944048809
1327.0758882698283,1327.0758882698283,0.9906158354874968,0.004944780379422879
1327.0828327677505,1327.0828327677505,1.0028811921942264,0.004951167998649619
1327.089777265673,1327.089777265673,1.0025038476247752,0.00494869847888813
1327.096721763596,1327.096721763596,0.999964771169109,0.004948717766017055
