time,time,flux,flux_err
1325.3033586384875,1325.3033586384875,1.0000910208549851,0.0002036565492403558
1325.3116919807514,1325.3116919807514,0.9996825041517909,0.0002036721865908225
1325.3200253229381,1325.3200253229381,1.0000588416910716,0.00020371730461394628
1325.3276642200162,1325.3276642200162,1.0000795268148839,0.00018598598844554254
1325.3346086717218,1325.3346086717218,1.0001466550031552,0.00018601621177218947
1325.3415531234277,1325.3415531234277,0.9999799246197503,0.00018602491256339862
1325.3484975750405,1325.3484975750405,1.0001057054650524,0.00018605869479701093
1325.3554420267462,1325.3554420267462,0.9998675074148654,0.00018605325052023906
1325.3623864781725,1325.3623864781725,0.9999878045986005,0.00018610677934250357
1325.3693309296923,1325.3693309296923,1.0004598394644866,0.00018617429017744392
1325.3762753810252,1325.3762753810252,0.9996973428151366,0.00018613733601958267
1325.383219832638,1325.383219832638,1.0000554768886525,0.00018619528956773898
1325.390164283878,1325.390164283878,0.9997430615652151,0.00018620516849785727
1325.397108735118,1325.397108735118,1.0001389977991082,0.00018626280642111096
1325.4040531863582,1325.4040531863582,1.0001856097536295,0.00018629889776231368
1325.4109976375985,1325.4109976375985,0.9997530051573446,0.00018628350660186097
1325.4179420888383,1325.4179420888383,1.0000823067950173,0.00018634902215218405
1325.4248865400787,1325.4248865400787,0.9997027411816456,0.00018633333323101635
1325.431830990946,1325.431830990946,1.0001473244026973,0.00018638436725188583
1325.438775442093,1325.438775442093,1.0001485583016023,0.00018641005150260006
1325.4457198931468,1325.4457198931468,0.9999982593876215,0.0001864074817818846
1325.4526643441072,1325.4526643441072,1.0002291877165235,0.0001864366446967025
1325.4596087949753,1325.4596087949753,0.9998584754070798,0.00018641665502782694
1325.4665532459355,1325.4665532459355,1.000069850502292,0.00018645214108896374
1325.4734976968034,1325.4734976968034,0.9998920706415717,0.00018646230470055716
1325.480442147671,1325.480442147671,0.9998458900633546,0.00018644844906081818
1325.4873865984453,1325.4873865984453,0.9997579589142056,0.00018646742644660435
1325.49433104922,1325.49433104922,1.000136375989861,0.0001865184946008946
1325.5012754999013,1325.5012754999013,1.0004175367502663,0.00018655504251453446
1325.5082199506755,1325.5082199506755,0.9998071562308919,0.00018651134494378148
1325.5151644013572,1325.5151644013572,1.0000218638687683,0.00018653038792771742
1325.5221088520382,1325.5221088520382,0.9997748806181249,0.0001865375266244538
1325.5290533025332,1325.5290533025332,1.0000652439446405,0.00018656762827803198
1325.5359977531211,1325.5359977531211,0.9997628923596826,0.0001865701962259707
1325.5429422037093,1325.5429422037093,1.000240603163174,0.00018662000865411055
1325.5498866542048,1325.5498866542048,1.0000789689849712,0.00018662490092840011
1325.5568311047925,1325.5568311047925,1.0002581813853708,0.0001866606347377488
1325.5637755552882,1325.5637755552882,1.0000587880503669,0.00018666488173350849
1325.57072000569,1325.57072000569,0.9998877793791643,0.00018666187883792596
1325.5776644559985,1325.5776644559985,0.9999991784370204,0.00018669809181202275
1325.584608906494,1325.584608906494,0.9998132313836802,0.00018667832414118052
1325.5915533568023,1325.5915533568023,1.000042347003659,0.00018671383801816086
1325.5984978072042,1325.5984978072042,1.0000164642199985,0.00018673303271817294
1325.605442257513,1325.605442257513,1.0000568463760335,0.00018675327181382512
1325.6123867078218,1325.6123867078218,1.0000508274879707,0.00018677167205534648
1325.6193311580378,1325.6193311580378,0.9999902118419499,0.0001867701420984111
1325.626275608253,1325.626275608253,1.0002070312450617,0.0001867841823384798
1325.6332200585618,1325.6332200585618,1.0004275052255558,0.0001868051313814148
1325.6401645087776,1325.6401645087776,0.9998156514998048,0.00018676056090035734
1325.6471089589,1325.6471089589,1.000047583274479,0.00018678216641261278
1325.6540534090225,1325.6540534090225,1.0000139873190133,0.00018679494891539047
1325.6609978593312,1325.6609978593312,0.9999193072277128,0.0001868028363832198
1325.6679423093606,1325.6679423093606,0.9999436165840401,0.00018679156783766942
1325.674886759483,1325.674886759483,1.0000042807676253,0.0001867939576143103
1325.6818312095124,1325.6818312095124,0.9998161447769298,0.00018677898257407228
1325.6887756596352,1325.6887756596352,1.0000208282303347,0.00018682507615258386
1325.6957201096643,1325.6957201096643,1.0001677720060633,0.00018684511411827545
1325.702664559601,1325.702664559601,0.9998602695950349,0.00018682486291667462
1325.7096090096304,1325.7096090096304,0.9999578193498341,0.00018683832670136742
1325.7165534596595,1325.7165534596595,1.0003394519059463,0.00018689133237823242
1325.7234979095026,1325.7234979095026,1.0002591762880892,0.00018689281361812505
1325.730442359532,1325.730442359532,1.0000374740163667,0.0001869004852712591
1325.737386809468,1325.737386809468,0.999687311132593,0.0001868918282912836
1325.7443312593116,1325.7443312593116,0.9997893898546403,0.0001869255324461985
1325.7512757092475,1325.7512757092475,0.9997867845360803,0.00018693092734712184
1325.7582201591838,1325.7582201591838,0.9999864579015935,0.00018698927458509293
1325.7651646090271,1325.7651646090271,1.0001140009813547,0.00018701419593083628
1325.77210905887,1325.77210905887,1.0002740033360051,0.00018705160378287722
1325.77905350862,1325.77905350862,0.9999366699364399,0.00018704655307939067
1325.7859979584632,1325.7859979584632,1.000129107023566,0.0001871086812910731
1325.7929424083063,1325.7929424083063,1.0000845381746584,0.00018712430503615396
1325.7998868579632,1325.7998868579632,0.9998844967293392,0.0001871129134458038
1325.8068313078063,1325.8068313078063,0.9998265570315683,0.00018713370493757384
1325.8137757575564,1325.8137757575564,0.9998481954041148,0.00018714290680698752
1325.820720207213,1325.820720207213,1.0002004095731665,0.00018720777540263
1325.8276646569634,1325.8276646569634,1.000009679424307,0.00018721557260332152
1325.834609106713,1325.834609106713,1.0000815906993008,0.00018723504564316108
1325.8415535564632,1325.8415535564632,0.9996756235661843,0.00018720743738166138
1325.848498005934,1325.848498005934,1.000091375543111,0.00018725166031698445
1325.8554424556835,1325.8554424556835,1.0002845462085754,0.00018726569241717177
1325.8623869053406,1325.8623869053406,0.9997985326702592,0.0001872457775977127
1325.8693313549043,1325.8693313549043,1.0001978093343722,0.00018726942751913066
1325.8762758045614,1325.8762758045614,0.9999453406286758,0.00018723772444404404
1325.8832202541248,1325.8832202541248,1.000278848912186,0.0001872636112353961
1325.8901647036887,1325.8901647036887,0.9996658432443812,0.0001871945102414761
1325.8971091533456,1325.8971091533456,1.0000492234589398,0.00018723072841793435
1325.9040536028162,1325.9040536028162,0.9999024831230849,0.0001872136047601998
1325.9109980522867,1325.9109980522867,0.9998487581732878,0.00018720508424424344
1325.9179425019433,1325.9179425019433,1.0001130551617865,0.0001872203328510843
1325.924886951414,1325.924886951414,0.9999715815733031,0.00018721713294499336
1325.931831400885,1325.931831400885,1.0001014019842878,0.0001872251499298562
1325.9387758504483,1325.9387758504483,1.0000625648078372,0.00018720782456600594
1325.945720299826,1325.945720299826,1.0002288425153743,0.0001872238030595461
1325.9526647492967,1325.9526647492967,0.9997354250983147,0.00018717976225056198
1325.959609198674,1325.959609198674,0.9996702483123329,0.0001871913059137942
1325.9673869820142,1325.9673869820142,1.0000377889625778,0.00018722314191030472
1325.9748869873977,1325.9748869873977,1.0001374191018377,0.00018722776141026837
1325.9818314367753,1325.9818314367753,1.0000830150933853,0.00018723136008215073
1325.9887758862455,1325.9887758862455,1.000256912364434,0.00018727127604392294
1325.9957203355298,1325.9957203355298,1.0002307722141557,0.00018727657482261434
1326.0026647849074,1326.0026647849074,0.9999023863130319,0.0001872545211489965
1326.0096092342847,1326.0096092342847,0.9999210564869754,0.00018727682804451195
1326.016553683569,1326.016553683569,0.9996010546630043,0.00018727888973594852
1326.0234981328535,1326.0234981328535,1.0001372750593576,0.00018735161866741812
1326.030442582138,1326.030442582138,0.9997620554165781,0.00018734725707676082
1326.0373870314222,1326.0373870314222,0.9999211385329463,0.00018737735524517937
1326.0443314807994,1326.0443314807994,0.9999572006484474,0.00018737144724083777
1326.0512759299909,1326.0512759299909,1.000281966387734,0.00018739685364630986
1326.0582203791819,1326.0582203791819,1.0000462773833354,0.00018740183234157838
1326.065164828466,1326.065164828466,1.0001680777734407,0.000187403329081056
1326.0721092777508,1326.0721092777508,0.9999202384860272,0.00018741701818953768
1326.0790537267553,1326.0790537267553,0.9999927454164957,0.00018741165249693757
1326.0859981761334,1326.0859981761334,0.999881116842708,0.00018741745546293603
1326.092942625231,1326.092942625231,1.0002162895789959,0.00018745526806888092
1326.0998870744224,1326.0998870744224,0.9998419911308435,0.00018742157654659056
1326.1068315235207,1326.1068315235207,0.999993193328276,0.00018743642518175395
1326.1137759727117,1326.1137759727117,1.0000045765608185,0.00018744962424119214
1326.1207204217167,1326.1207204217167,0.9998985882076011,0.0001874397772816726
1326.1276648710004,1326.1276648710004,1.0000974416357515,0.00018747260499533453
1326.134609319913,1326.134609319913,1.000106359583372,0.00018747790544882236
1326.1415537690104,1326.1415537690104,1.0000703094220285,0.0001874896675637057
1326.1484982182021,1326.1484982182021,0.9997777334539594,0.0001874672520196181
1326.1554426671137,1326.1554426671137,1.0000399857380193,0.0001874825043942495
1326.1623871160252,1326.1623871160252,1.0001741027864939,0.00018750842661415174
1326.1693315654034,1326.1693315654034,1.0001244712333295,0.00018750574238075778
1326.1762760143145,1326.1762760143145,1.0002499117903225,0.0001875300970954547
1326.1832204632267,1326.1832204632267,0.9998869418449867,0.00018747662052874672
1326.1901649121385,1326.1901649121385,0.9999487818093279,0.00018748111446166782
1326.1971093610498,1326.1971093610498,0.9997004699835343,0.0001874679632219754
1326.2040538099623,1326.2040538099623,0.9999323894085119,0.0001874997332542893
1326.2109982588736,1326.2109982588736,1.0001305195034753,0.00018751660757568178
1326.2179427077858,1326.2179427077858,1.000002931585676,0.0001874902095290167
1326.2248871566974,1326.2248871566974,0.9999788267893142,0.0001875147291396515
1326.2318316056092,1326.2318316056092,1.0003083456533077,0.0001875241877487293
1326.2387760545212,1326.2387760545212,1.0002137236220343,0.00018750532546257017
1326.2457205034323,1326.2457205034323,0.9999477496330125,0.00018748304138492718
1326.252664952345,1326.252664952345,0.9998715276997994,0.00018748314259450164
1326.2596094012563,1326.2596094012563,0.9997518015798761,0.0001874847174325888
1326.2665538501683,1326.2665538501683,1.000047424115089,0.00018750680629024788
1326.2734982986144,1326.2734982986144,1.000091095688123,0.00018751780154839482
1326.2804427475262,1326.2804427475262,1.0000537209386722,0.00018751036389193723
1326.287387196438,1326.287387196438,0.9998818425059686,0.0001874869980865353
1326.2943316450703,1326.2943316450703,0.9998533843683599,0.00018749409419918983
1326.3012760937959,1326.3012760937959,1.0001261435203628,0.00018752511809322762
1326.3082205427077,1326.3082205427077,0.9999587741651895,0.0001875078430209817
1326.3151649911538,1326.3151649911538,1.000146347312636,0.0001875275444988231
1326.3221094400656,1326.3221094400656,0.999671081090456,0.0001874878463433398
1326.3290538886044,1326.3290538886044,1.000063970204461,0.00018753887042531587
1326.3359983374241,1326.3359983374241,1.0004989761412464,0.00018758572799871861
1326.3429427858698,1326.3429427858698,1.0000214943492316,0.00018755461768501288
1326.3504427905084,1326.3504427905084,0.9999213326969898,0.00018754424740935938
1326.3596094626992,1326.3596094626992,0.9998413063848922,0.0001875631235988124
1326.3665539112385,1326.3665539112385,0.999897693244795,0.0001875766292840489
1326.3734983597778,1326.3734983597778,0.9999843704866928,0.00018759290767940184
1326.38044280841,1326.38044280841,0.9999406538899978,0.0001876027372469999
1326.3873872569495,1326.3873872569495,1.0001323077869408,0.00018764272183219804
1326.3943317054886,1326.3943317054886,0.9999633268843189,0.00018761994444670892
1326.401276153935,1326.401276153935,0.9999841562810946,0.00018764528311268885
1326.408220602474,1326.408220602474,1.000051226761493,0.00018765892437620622
1326.415165051014,1326.415165051014,0.9999112714470224,0.00018766156577701342
1326.4221094994596,1326.4221094994596,1.0000537289481402,0.00018768421337850923
1326.4290539479057,1326.4290539479057,0.9997110246003821,0.0001876599910842064
1326.4359983963518,1326.4359983963518,1.0002949272135937,0.0001877234162954884
1326.442942844798,1326.442942844798,0.9999877805299375,0.00018769673401145576
1326.4498872931513,1326.4498872931513,1.0000336533425558,0.0001877239740869331
1326.4568317415972,1326.4568317415972,1.00006428943867,0.00018773110178081417
1326.463776189857,1326.463776189857,0.9999963510646266,0.00018773804954324682
1326.47072063821,1326.47072063821,1.0000614657368216,0.00018775977257055575
1326.477665086563,1326.477665086563,1.0000239141378766,0.00018776012778937094
1326.4846095349162,1326.4846095349162,0.9998218265107198,0.00018774332293448854
1326.491553983176,1326.491553983176,0.9999570709668267,0.00018778633154195237
1326.4984984315292,1326.4984984315292,0.9998501340704904,0.00018777173756335416
1326.505442879789,1326.505442879789,1.0002096934791478,0.00018783572190786792
1326.5123873279558,1326.5123873279558,1.0000462917645625,0.0001878148564806253
1326.5193317763085,1326.5193317763085,1.0000208753690594,0.0001878502010890441
1326.5262762243824,1326.5262762243824,1.00004034367962,0.00018786098621208024
1326.533220672642,1326.533220672642,0.9998077199939097,0.00018786900998436464
1326.540165120809,1326.540165120809,1.0001201287980948,0.00018789150434440801
1326.5471095689759,1326.5471095689759,0.9999823068234861,0.0001879217002751037
1326.5540540171423,1326.5540540171423,0.999790111319794,0.00018791628380844996
1326.560998465216,1326.560998465216,1.0000866383878788,0.00018794395208498945
1326.567942913383,1326.567942913383,1.0000085486809667,0.00018796738551727412
1326.5748873613634,1326.5748873613634,1.0001880993642418,0.00018797016356052312
1326.5818318095303,1326.5818318095303,0.9999109269415445,0.00018797581892311747
1326.5887762575103,1326.5887762575103,0.9998769500132669,0.00018796582067284105
1326.5957207055842,1326.5957207055842,1.0001335043565112,0.00018800490583543975
1326.6026651535647,1326.6026651535647,0.9999933030519761,0.0001880099252684586
1326.6096096015451,1326.6096096015451,0.9999344973321639,0.00018800295345269515
1326.6165540495258,1326.6165540495258,1.000008465256333,0.00018802196277650633
1326.6234984975058,1326.6234984975058,0.99996067856513,0.00018804249648919066
1326.6304429454867,1326.6304429454867,1.0002196013275306,0.00018805921152891702
1326.6373873933737,1326.6373873933737,1.0000727636264601,0.00018805231604831945
1326.6443318412614,1326.6443318412614,0.9998114854426874,0.00018803022724492126
1326.6512762891484,1326.6512762891484,1.0000452935041029,0.0001880458801013914
1326.6582207370361,1326.6582207370361,0.9997846428849376,0.00018802065130127103
1326.6651651848304,1326.6651651848304,0.9999343430195282,0.0001880331896133835
1326.6721096327176,1326.6721096327176,1.0001688670349664,0.00018803606956319894
1326.679054080512,1326.679054080512,1.0000152356318404,0.00018802829520770013
1326.685998528213,1326.685998528213,1.0001546006215267,0.0001880216842133244
1326.6940540876465,1326.6940540876465,0.9997129172215949,0.0001879963567852384
1326.701276313304,1326.701276313304,0.999779302084948,0.0001879749945804158
1326.7082207610051,1326.7082207610051,1.000281655442459,0.00018798466520967666
1326.7157207646194,1326.7157207646194,1.0000608542679383,0.00018798190466145918
1326.7234985459104,1326.7234985459104,1.0001048915474315,0.00018796992032804106
1326.7304429936116,1326.7304429936116,1.000009894018366,0.00018797121077187496
1326.7373874413126,1326.7373874413126,1.0002653098938858,0.00018797741409155042
1326.744331888828,1326.744331888828,0.9998087436980525,0.00018794758947499678
1326.7512763364355,1326.7512763364355,0.9999679433577349,0.00018796676395079693
1326.7582207840433,1326.7582207840433,0.999956447094523,0.0001879528926133978
1326.7651652315585,1326.7651652315585,1.000018679862637,0.0001879540859491884
1326.772109679166,1326.772109679166,0.9999646979719377,0.00018796125475936982
1326.779054126681,1326.779054126681,0.9998112017966514,0.00018794163007297465
1326.785998574103,1326.785998574103,0.9996432251815873,0.00018792777353954807
1326.7929430216177,1326.7929430216177,1.0003133248781313,0.0001879953380691776
1326.799887469039,1326.799887469039,1.0001493562089632,0.0001879783828370169
1326.8068319165543,1326.8068319165543,1.0000761206924509,0.00018797698121908126
1326.8137763638827,1326.8137763638827,1.0000879240807243,0.000187992617267597
1326.8207208112108,1326.8207208112108,1.0000216550102532,0.00018799819542176922
1326.8276652586328,1326.8276652586328,1.0000112439873807,0.00018798094199726966
1326.8346097059614,1326.8346097059614,1.0001509995249047,0.00018800621499812114
1326.84155415329,1326.84155415329,0.9998270318347151,0.00018798207890862142
1326.8484986007118,1326.8484986007118,1.0001355140696462,0.00018799323934959067
1326.855443047854,1326.855443047854,0.9997948221118254,0.00018797409040620448
1326.8623874951822,1326.8623874951822,0.9998410828601955,0.00018796226922088017
1326.8693319424183,1326.8693319424183,1.0003574582860792,0.0001879883398054869
1326.8762763895606,1326.8762763895606,1.000109428383073,0.00018797039344655046
1326.8832208368888,1326.8832208368888,1.0000896350826036,0.00018793994109163177
1326.8901652840314,1326.8901652840314,1.000253118829691,0.0001879488858925351
1326.89710973108,1326.89710973108,0.9999581039221008,0.0001879158314761197
1326.9040541782226,1326.9040541782226,1.0000676758927167,0.0001878785427487953
1326.9109986253648,1326.9109986253648,1.0001667924162034,0.00018785568725936314
1326.9179430725073,1326.9179430725073,0.9999109684658525,0.0001878162914579831
1326.9248875195565,1326.9248875195565,0.9998057855659525,0.00018777508387130432
1326.9318319665124,1326.9318319665124,0.999809830894,0.00018775840291274652
1326.938776413562,1326.938776413562,0.9998944122397917,0.0001877377013857501
1326.9457208606104,1326.9457208606104,0.99999628018107,0.0001877102175581515
1326.9526653075668,1326.9526653075668,0.9998802174191045,0.00018766891974831597
1326.9596097545225,1326.9596097545225,1.00003379982485,0.00018765385146453207
1326.9665542013859,1326.9665542013859,1.000180200638989,0.00018764779528167812
1326.973498648342,1326.973498648342,1.0001194134699292,0.00018762016533730954
1326.9804430952045,1326.9804430952045,1.0000743617543448,0.0001875977160173923
1326.9873875419748,1326.9873875419748,1.0000479324345373,0.00018757517911964868
1326.9943319890235,1326.9943319890235,1.000166263536135,0.00018756710177378696
1327.0012764356075,1327.0012764356075,0.9997147602648084,0.00018752088818823565
1327.0082208825631,1327.0082208825631,1.000003434543225,0.00018755582555556177
1327.01516532924,1327.01516532924,0.9999830017477056,0.000187545359609905
1327.0221097758233,1327.0221097758233,0.9999254080606818,0.00018755157048313853
1327.0290542228724,1327.0290542228724,1.0003125292716113,0.00018756675696394203
1327.0359986694561,1327.0359986694561,0.9997053938428133,0.00018753023499525244
1327.0429431160394,1327.0429431160394,1.000108881109251,0.00018756150537002208
1327.049887562623,1327.049887562623,1.0000591445003542,0.00018757269830078048
1327.0568320092066,1327.0568320092066,0.9998483730842341,0.00018755657173044382
1327.0646097893803,1327.0646097893803,1.0001724279292294,0.0001875929029755039
