time,time,flux,flux_err
1410.9070990445482,1410.9070990445482,1.000034773667962,0.00010436340958553186
1410.914043677258,1410.914043677258,1.0000955441110118,0.00010437109276654861
1410.9209883100386,1410.9209883100386,1.000168036953104,0.00010436960045649298
1410.9279329428414,1410.9279329428414,0.9997857174075421,0.00010435083534705916
1410.9348775757144,1410.9348775757144,0.999922474754657,0.00010435641099768855
1410.9418222086576,1410.9418222086576,1.0001003022363606,0.00010436196879652884
1410.9487668416234,1410.9487668416234,1.0001172955411775,0.00010435324005339765
1410.9557114746601,1410.9557114746601,1.0002466712351825,0.00010436713357083482
1410.9637672490355,1410.9637672490355,1.0000554995372752,0.00010434813251745695
1410.9782120860104,1410.9782120860104,0.9999264820455135,0.00010428484463081449
1410.9876567871659,1410.9876567871659,0.9998376551534662,0.00010433331200485815
1410.9962681324446,1410.9962681324446,0.9999864295483828,0.00010428989088369887
1411.0071017604264,1411.0071017604264,1.000130604346953,0.00010432458320793324
1411.0140463938114,1411.0140463938114,1.0003017823093718,0.00010433836481769357
1411.0209910272197,1411.0209910272197,0.9997025512245891,0.00010430599850227564
1411.0279356606757,1411.0279356606757,1.0000915013278608,0.00010431768395358313
1411.0348802941767,1411.0348802941767,0.9998944356353523,0.00010429669094401208
1411.0418249276788,1411.0418249276788,0.9999929893212824,0.00010431221480191604
1411.0496029172666,1411.0496029172666,1.0000519962021066,0.000104311441036577
1411.0571031215081,1411.0571031215081,0.9998432556827807,0.00010428673532475376
1411.064047755173,1411.064047755173,1.0000692368652,0.00010430804208732979
1411.0709923887212,1411.0709923887212,0.9998681767823211,0.00010430820415976447
1411.0779370223863,1411.0779370223863,0.9999233796959339,0.00010429947271433022
1411.084881656167,1411.084881656167,1.0000417202401861,0.00010430223840434194
1411.0918262898317,1411.0918262898317,1.0001806826249788,0.00010431877937530613
1411.0987709235665,1411.0987709235665,0.9998962421203312,0.00010432024481990373
1411.105715557324,1411.105715557324,0.9999378088303181,0.00010430457890664812
1411.1126601911058,1411.1126601911058,0.999997841748668,0.00010429981656815497
1411.1196048248867,1411.1196048248867,0.9999864791545091,0.00010432324498979139
1411.126549458691,1411.126549458691,1.0000606756380457,0.0001042913799490431
1411.1334940925422,1411.1334940925422,0.9998627322986028,0.00010430114460481735
1411.1404387263694,1411.1404387263694,1.000059219152146,0.00010429965389173297
1411.1473833602445,1411.1473833602445,1.0001055981407434,0.00010430613434223299
1411.1543279941413,1411.1543279941413,0.9998490455654414,0.00010429145189646359
1411.161272628016,1411.161272628016,1.0001179762255412,0.0001042940290932005
1411.1682172619135,1411.1682172619135,1.000189362879528,0.00010427842348653175
1411.175161895811,1411.175161895811,0.9998894218306242,0.00010428984272218554
1411.1821065297556,1411.1821065297556,0.9998848677139124,0.00010428703706098052
1411.1890511636761,1411.1890511636761,1.0000020390127835,0.0001043056368109157
1411.19599579762,1411.19599579762,0.9999299098270189,0.00010427981165805908
1411.2029404315876,1411.2029404315876,0.9999995931366861,0.00010428821443391804
1411.2098850655311,1411.2098850655311,0.9998901102438051,0.00010429487540948806
1411.2168296994994,1411.2168296994994,1.0001489572186457,0.00010427408911142344
1411.223774333443,1411.223774333443,1.000171003021873,0.00010430734568845222
1411.2307189674107,1411.2307189674107,1.000077664082712,0.00010428345119406367
1411.2376636013553,1411.2376636013553,0.9999393715509953,0.0001042856271668433
1411.244608235345,1411.244608235345,0.9998229222590298,0.0001042990275516243
1411.2515528693368,1411.2515528693368,0.9999911053323434,0.00010431024204014217
1411.25849750328,1411.25849750328,1.0001003488940587,0.00010430748979632943
1411.2654421372713,1411.2654421372713,1.0000470036014035,0.00010431366397955228
1411.2723867712618,1411.2723867712618,0.9999641916190001,0.00010428734400021605
1411.2793314052055,1411.2793314052055,1.0000303579121206,0.0001042964876199047
1411.2862760391736,1411.2862760391736,0.9999414512763846,0.00010429393370602185
1411.2932206731873,1411.2932206731873,0.999853284752098,0.0001042906179867783
1411.3001653071315,1411.3001653071315,0.9999654321761209,0.00010429323555879088
1411.307109941099,1411.307109941099,1.0000479808923486,0.00010430916904655148
1411.3140545750425,1411.3140545750425,0.9999773579448059,0.00010432113183184257
1411.3209992090106,1411.3209992090106,1.0000816455958987,0.00010431946604528948
1411.3279438429079,1411.3279438429079,1.000058155599379,0.00010432358712442755
1411.334888476852,1411.334888476852,1.0000053545571588,0.0001042877766030678
1411.3418331107732,1411.3418331107732,1.0001774958855263,0.00010431568061468503
1411.3487777446935,1411.3487777446935,0.9999929768548466,0.0001043168035084619
1411.3557223786152,1411.3557223786152,0.9998939601702352,0.00010430188236270642
1411.362667012512,1411.362667012512,0.999900398276657,0.00010430108177227648
1411.369611646387,1411.369611646387,1.000022082800819,0.00010429393842671829
1411.3765562802605,1411.3765562802605,0.9998394082439013,0.00010430886269213154
1411.3835009141117,1411.3835009141117,1.0001431877611777,0.00010432508052151564
1411.3904455479633,1411.3904455479633,0.9999686401623078,0.0001042983348081141
1411.3973901818372,1411.3973901818372,1.000068396580872,0.00010430837343082418
1411.404334815642,1411.404334815642,0.9998797120874008,0.000104291800899689
1411.4112794494463,1411.4112794494463,1.0004170282014822,0.00010431837358278664
1411.4182240832506,1411.4182240832506,1.0000872203352749,0.00010429616354652599
1411.425168717032,1411.425168717032,0.9997122276482328,0.00010428699451729406
1411.4321133508124,1411.4321133508124,1.0000407993507063,0.00010428375246583825
1411.4390579845474,1411.4390579845474,0.999703523666953,0.00010426144175612251
1411.4460026182587,1411.4460026182587,0.9999963991785263,0.00010428818775609381
1411.452947251993,1411.452947251993,1.000009334440833,0.00010429561506736511
1411.459891885705,1411.459891885705,1.0002047228757456,0.00010430349190303253
1411.4668365193688,1411.4668365193688,1.0000936814391497,0.00010428530767527626
1411.4737811530347,1411.4737811530347,0.9999598463391726,0.00010429479345997776
1411.4807257866987,1411.4807257866987,0.9999573552823213,0.00010429141281162858
1411.4876704202475,1411.4876704202475,1.0000868977292712,0.00010431425898424531
1411.4946150538888,1411.4946150538888,1.0000482503821597,0.00010430865411995378
1411.50155968746,1411.50155968746,0.9999204069027148,0.00010431133224841872
1411.5085043210088,1411.5085043210088,1.0000651576146642,0.00010430953641681687
1411.5154489545337,1411.5154489545337,1.0000471312546193,0.00010428837990859426
1411.5223935880588,1411.5223935880588,0.9998165012821048,0.00010430289897224287
1411.5293382215373,1411.5293382215373,1.0000270905796804,0.00010433093655272461
1411.5362828550155,1411.5362828550155,0.9999864069242083,0.00010430514605080403
1411.5432274884479,1411.5432274884479,0.9998994709777934,0.00010429153904258411
1411.5501721218561,1411.5501721218561,1.0001706086790796,0.00010431366706664303
1411.5571167552885,1411.5571167552885,0.9999554510760597,0.0001043228056971115
1411.5640613886503,1411.5640613886503,0.9999818517641132,0.00010430448954304747
1411.571006021989,1411.571006021989,0.9999850236302535,0.00010431076416201278
1411.577950655305,1411.577950655305,0.9999300331775223,0.00010430019705640176
1411.5848952885965,1411.5848952885965,0.999917788776466,0.00010431696674693126
1411.591839921866,1411.591839921866,0.9999596524772801,0.00010432103565275952
1411.5987845550878,1411.5987845550878,1.0001036362835554,0.00010433493586813864
1411.6057291883105,1411.6057291883105,1.000069463406865,0.00010432401859446548
1411.6126738214864,1411.6126738214864,1.0000699529315438,0.00010431968192965706
1411.6196184546386,1411.6196184546386,1.0002018697516373,0.00010432467094188386
1411.6265630877683,1411.6265630877683,0.9998105414897711,0.00010431261379932639
1411.6335077209205,1411.6335077209205,0.9999131857074648,0.00010432400690222441
1411.6404523539568,1411.6404523539568,1.000062897197024,0.00010433027591829128
1411.6473969869696,1411.6473969869696,1.0004787185876456,0.00010434612821014729
1411.6543416200052,1411.6543416200052,1.000023871764228,0.00010432759654023577
1411.6612862529723,1411.6612862529723,0.9999458755016359,0.00010432490679818754
1411.6682308859379,1411.6682308859379,0.9999858821428065,0.00010433145828792
1411.675175518858,1411.675175518858,1.0000335309625403,0.00010432602834061501
1411.6821201517312,1411.6821201517312,0.999963343785538,0.00010430892629574393
1411.6890647846037,1411.6890647846037,0.9998377183540663,0.00010432649075296203
1411.6960094174078,1411.6960094174078,0.9998845836449606,0.00010432393439566395
1411.7029540502103,1411.7029540502103,1.0000150729645352,0.00010432188425338379
1411.709898682991,1411.709898682991,1.0001195524900848,0.0001043235810859122
1411.7168433157008,1411.7168433157008,1.0000159912277182,0.00010432785723149178
1411.7237879483876,1411.7237879483876,1.0000350219981466,0.00010433051233165861
1411.7307325810748,1411.7307325810748,0.9999274393259647,0.00010432608882800625
1411.7376772137147,1411.7376772137147,1.0000351176758717,0.00010432133273495156
1411.7446218462858,1411.7446218462858,1.0000185667319688,0.00010433356256744789
1411.7515664788789,1411.7515664788789,1.0000950896482006,0.00010434739518592575
1411.7585111114033,1411.7585111114033,1.0001689564665768,0.0001043496427995909
1411.7654557439032,1411.7654557439032,0.9999091653536354,0.00010434241709660079
1411.7724003763576,1411.7724003763576,0.9997852791007835,0.00010432009722658833
1411.7793450087886,1411.7793450087886,0.9999389522515107,0.00010434044395118444
1411.786289641149,1411.786289641149,0.9999899350757835,0.00010434259392948335
1411.7932342735105,1411.7932342735105,1.0000688463378948,0.0001043450688808604
1411.8001789058244,1411.8001789058244,0.9999771145936611,0.00010435610323304462
1411.8071235381155,1411.8071235381155,0.9998260314257237,0.0001043268765305684
1411.8140681703603,1411.8140681703603,1.0001540155775561,0.00010434911727810025
1411.8210128025808,1411.8210128025808,1.0001691090285711,0.00010435114640056076
1411.827957434733,1411.827957434733,0.9999355218009841,0.00010434111847870071
1411.8349020668838,1411.8349020668838,0.9999598141648767,0.00010432955223720023
1411.841846698989,1411.841846698989,1.0000245756177553,0.00010432526414602805
1411.848791331047,1411.848791331047,0.9999598030045227,0.00010433536989641651
1411.8557359630584,1411.8557359630584,1.000114235220284,0.00010435135949204504
1411.8626805950707,1411.8626805950707,0.999829043596106,0.00010433076350319425
1411.8696252269885,1411.8696252269885,1.0000353782472726,0.0001043478372105324
1411.8765698589077,1411.8765698589077,1.0000082878920125,0.00010432734118045802
1411.8835144908023,1411.8835144908023,1.000102764969307,0.000104338647379085
1411.890459122628,1411.890459122628,0.9998687352004157,0.00010433426349767306
1411.8974037544072,1411.8974037544072,0.9999874183548384,0.00010434563321149771
1411.9043483861624,1411.9043483861624,1.0000081321425014,0.00010433899971927128
1411.9112930178717,1411.9112930178717,1.000022228498785,0.00010434106792973936
1411.918237649557,1411.918237649557,1.0002266677379053,0.0001043458984264204
1411.9251822811968,1411.9251822811968,1.0000297786346821,0.00010435478224843042
1411.932126912789,1411.932126912789,0.9998229036365632,0.0001043339668611871
1411.9390715443583,1411.9390715443583,0.9999532507004141,0.00010434317527985853
1411.9460161758575,1411.9460161758575,0.9999860706710095,0.00010434414007172165
1411.9529608073335,1411.9529608073335,0.9998190997351349,0.00010434213794981441
1411.9599054387868,1411.9599054387868,0.999940419726603,0.000104357695402427
1411.9668500701696,1411.9668500701696,1.000027977545567,0.00010435120445252207
1411.9737947015763,1411.9737947015763,1.0002072919286233,0.00010435427791612624
1411.9807393328426,1411.9807393328426,1.0004820782058594,0.00010436866020925592
1411.9876839641324,1411.9876839641324,1.0000851339474346,0.00010435284794495512
1411.994628595353,1411.994628595353,0.9999723690485055,0.00010433037405064798
1412.0015732265258,1412.0015732265258,0.9999704018990239,0.00010435715226341327
1412.0085178576999,1412.0085178576999,1.0000692903884718,0.0001043529798811825
1412.015462488803,1412.015462488803,1.000032091089023,0.00010435104444839016
1412.0224071198604,1412.0224071198604,0.999883727721729,0.00010434545828486822
1412.0293517508942,1412.0293517508942,1.0000995665299939,0.00010434925276960841
1412.0362963818577,1412.0362963818577,0.9999885385821548,0.00010433477177980905
1412.0432410127987,1412.0432410127987,1.0000122831927072,0.00010433093643144302
1412.0501856436924,1412.0501856436924,0.9999483731557275,0.00010432268025769212
1412.0571302745639,1412.0571302745639,0.9998946013603447,0.00010433639687535998
1412.0640749053412,1412.0640749053412,0.9998890184771139,0.00010434940777970046
1412.0710195360957,1412.0710195360957,0.9999425174418214,0.00010435428858493736
1412.07796416685,1412.07796416685,1.0001123528649845,0.00010436002328702713
1412.0849087975344,1412.0849087975344,1.000149084420653,0.000104344607775304
1412.0918534281727,1412.0918534281727,0.9999557563086734,0.00010433801500183172
1412.0987980587636,1412.0987980587636,0.9999510088551379,0.00010435104673547464
1412.1057426893326,1412.1057426893326,0.9998270184097509,0.00010434330351010222
1412.11268731983,1412.11268731983,0.9999781889402015,0.00010435678832079048
1412.1196319503053,1412.1196319503053,0.9999773773294193,0.00010435174999256328
1412.1265765807336,1412.1265765807336,1.0000082647950246,0.00010434116777621803
1412.133521211092,1412.133521211092,1.0000649575752774,0.00010435619989889338
1412.140465841428,1412.140465841428,1.0001129103409487,0.00010434182674917602
1412.147410471716,1412.147410471716,1.000049717243443,0.00010433657117464115
1412.1543551019818,1412.1543551019818,0.9999880866377138,0.00010434639715161252
1412.1612997321774,1412.1612997321774,0.9999186577733724,0.00010435026851357134
1412.1682443623497,1412.1682443623497,0.9997943440269275,0.00010433493239507274
1412.1751889924055,1412.1751889924055,1.0000265463305058,0.00010434726488638822
1412.1821336224846,1412.1821336224846,1.000038603651006,0.00010436393437297459
1412.189078252494,1412.189078252494,1.0000873901392446,0.00010436580130950895
1412.1960228824798,1412.1960228824798,0.9999942399811858,0.0001043574832262491
1412.20296751242,1412.20296751242,0.9998822693287431,0.00010435639257752554
1412.2099121423123,1412.2099121423123,0.9999410156098598,0.00010435442839215535
1412.2168567721355,1412.2168567721355,1.0000888208311147,0.00010435667909812311
1412.2238014019356,1412.2238014019356,1.000033951445825,0.00010435369473094055
1412.2307460316651,1412.2307460316651,0.9999872638983114,0.00010435656018570455
1412.2376906613956,1412.2376906613956,0.9998639322396917,0.00010434364279109355
1412.2446352910083,1412.2446352910083,1.00003944929161,0.00010435237521052802
1412.2521354910596,1412.2521354910596,0.9999963990174019,0.00010434006947785559
1412.2607468316346,1412.2607468316346,1.000182822231007,0.00010428902637969785
1412.2704693129685,1412.2704693129685,0.9999557003928583,0.00010429365067022042
1412.2813029348497,1412.2813029348497,0.9999858933198494,0.00010428683529176362
1412.2904698456057,1412.2904698456057,0.9998163617036582,0.00010427959951535555
1412.2974144749166,1412.2974144749166,1.0001055316177645,0.00010435010604807236
1412.304359104181,1412.304359104181,0.9999523858186645,0.00010433082425606114
1412.311303733375,1412.311303733375,1.0000110423712563,0.00010432778337832016
1412.31824836257,1412.31824836257,1.0000282130389686,0.00010435043306481121
1412.3251929916707,1412.3251929916707,1.0001576419677767,0.0001043207626382287
1412.332137620796,1412.332137620796,0.9999749347481718,0.00010435603863032174
1412.3390822498036,1412.3390822498036,1.0000473536111187,0.00010433825586318867
1412.3460268787658,1412.3460268787658,0.9999952183910302,0.00010433468625946167
1412.3529715077038,1412.3529715077038,0.9999004508664869,0.00010429811687399214
1412.3599161365723,1412.3599161365723,0.9999527533450815,0.00010430555808977895
1412.3668607654176,1412.3668607654176,0.9999217949104156,0.0001043338039491716
1412.373805394216,1412.373805394216,0.9999505927632162,0.00010435073186398657
1412.3807500229454,1412.3807500229454,1.0002105692655086,0.00010435234938817638
1412.3876946516502,1412.3876946516502,0.9999113326375817,0.00010435660096454235
1412.3946392803095,1412.3946392803095,0.9998903317006608,0.000104346259679233
1412.4015839089213,1412.4015839089213,1.0001431170334976,0.0001043458677746431
1412.4085285374408,1412.4085285374408,1.0001085566023042,0.00010435771293305003
1412.4154731659835,1412.4154731659835,1.0000605208105366,0.00010428728686603746
1412.4224177944093,1412.4224177944093,0.9998517072416847,0.00010433373910974685
1412.429362422836,1412.429362422836,0.9998358099768039,0.00010435315233260529
1412.4363070511918,1412.4363070511918,0.9999670016970033,0.00010435807865590622
1412.443251679525,1412.443251679525,1.0001544621015377,0.00010435090417058029
1412.450196307788,1412.450196307788,1.0000184018255065,0.00010434978891053545
1412.4571409360046,1412.4571409360046,1.00000966555405,0.00010433402055995116
1412.4640855641744,1412.4640855641744,1.000004638903241,0.00010430957094575203
1412.4710301922978,1412.4710301922978,0.9999130476825091,0.00010431215618791304
1412.4779748203748,1412.4779748203748,0.9999071197909274,0.0001042760279909119
1412.4849194484048,1412.4849194484048,1.0004377172992605,0.00010436820916421168
1412.491864076389,1412.491864076389,0.9999370115097385,0.0001043565799483752
1412.4988087043025,1412.4988087043025,0.9999878115313653,0.00010432671748534446
1412.505753332147,1412.505753332147,1.0000113896583493,0.00010435564240445828
1412.5126979599909,1412.5126979599909,0.9998583188480954,0.00010434009426789378
1412.5196425878348,1412.5196425878348,1.0001661941641962,0.0001043751541524589
1412.5265872155626,1412.5265872155626,1.0000765179573459,0.0001043641134686249
1412.533531843243,1412.533531843243,0.9997986185544164,0.00010434042429279527
1412.5404764709015,1412.5404764709015,0.9998932888489052,0.0001043447531790644
1412.5474210984887,1412.5474210984887,0.9999524652420566,0.00010434973165502522
1412.5543657260305,1412.5543657260305,1.000019199939668,0.00010435854188860115
1412.5613103535252,1412.5613103535252,1.0001621058927657,0.00010435783893930025
1412.56825498095,1412.56825498095,1.0001002782213162,0.00010435500599233017
1412.5751996083752,1412.5751996083752,1.0000728744104994,0.00010436215517358816
1412.5821442357299,1412.5821442357299,1.00017634758296,0.00010435762497276499
1412.5890888630156,1412.5890888630156,0.9999179319951447,0.00010434906190058032
1412.596033490277,1412.596033490277,0.9998942016039475,0.00010434156305155736
1412.6029781174698,1412.6029781174698,1.000172746231274,0.00010435110161642968
1412.6099227446143,1412.6099227446143,0.9998149262282443,0.00010434188478175685
1412.6168673717139,1412.6168673717139,1.0000205241177167,0.00010433942739171575
1412.623811998766,1412.623811998766,0.9999203293147565,0.00010433218907022867
1412.6307566257954,1412.6307566257954,0.9999177354257576,0.00010431748539028277
1412.6377012527316,1412.6377012527316,0.9999168038382305,0.0001043493003452169
1412.6446458796438,1412.6446458796438,1.000093870304627,0.00010435514191216835
1412.6515905064875,1412.6515905064875,0.9999881222643466,0.00010435380430462452
1412.658535133306,1412.658535133306,0.9999703989922126,0.00010435108235927616
1412.6654797601032,1412.6654797601032,0.9998964133748348,0.00010435892078412593
1412.6724243867825,1412.6724243867825,0.9999955752228089,0.00010435596493812186
1412.6793690134625,1412.6793690134625,1.000173975921299,0.00010431830872912897
