time,time,flux,flux_err
1385.9510444889513,1385.9510444889513,0.99997420314706,0.00022835401471896525
1385.9593776776537,1385.9593776776537,0.999962606562469,0.00022834141617166908
1385.9677108663939,1385.9677108663939,1.0002228436638465,0.00022834274434662267
1385.9760440551538,1385.9760440551538,1.0001274372126328,0.000228357927627099
1385.9836828115533,1385.9836828115533,0.99977931973153,0.00020841256961821888
1385.9906271355517,1385.9906271355517,0.9999710748855557,0.00020842413693342182
1385.9975714595737,1385.9975714595737,0.9997979409647606,0.00020840671631014896
1386.0045157836198,1386.0045157836198,0.9999498740730821,0.00020840958258990845
1386.0114601076768,1386.0114601076768,0.9999357613898366,0.00020840062862375946
1386.018404431757,1386.018404431757,0.9999070897870596,0.00020839037114835104
1386.0253487558498,1386.0253487558498,1.0002384333224437,0.00020842725291080874
1386.032293079965,1386.032293079965,0.9999594057782122,0.00020840939336628383
1386.0392374040798,1386.0392374040798,0.9999357624963674,0.0002084067933546286
1386.0461817282307,1386.0461817282307,1.0001020686442825,0.00020839508922385297
1386.0531260524049,1386.0531260524049,1.000156877459913,0.0002083877455298031
1386.0600703765892,1386.0600703765892,0.9998160444913466,0.00020836700297160562
1386.0670147007866,1386.0670147007866,1.0000812801575862,0.0002084068820399777
1386.073959025007,1386.073959025007,1.0000905385022663,0.00020840145331283357
1386.0809033492383,1386.0809033492383,0.9999963153117347,0.00020837985007200575
1386.087847673482,1386.087847673482,0.9997104944365816,0.00020834605612514808
1386.094791997749,1386.094791997749,1.0000739614260907,0.0002084002519820225
1386.1017363220385,1386.1017363220385,0.9999378137216665,0.00020838718259719494
1386.1086806463284,1386.1086806463284,1.0000137907538162,0.00020839146201884407
1386.1156249706655,1386.1156249706655,1.000021028612062,0.0002083926136358672
1386.1225692950018,1386.1225692950018,1.0001984585460701,0.00020839742551375127
1386.1295136193498,1386.1295136193498,0.9999880373190143,0.00020837809988844685
1386.1364579437222,1386.1364579437222,1.0000127318333163,0.00020838146667805758
1386.143402268105,1386.143402268105,0.9997715300712418,0.00020838630747614835
1386.1503465925107,1386.1503465925107,1.0001842888326464,0.00020842597465902066
1386.1572909169295,1386.1572909169295,1.000077544347696,0.0002084076612465427
1386.1642352413596,1386.1642352413596,0.9999534364198158,0.0002084014567945169
1386.1711795658118,1386.1711795658118,0.9998999476005151,0.00020839576155230605
1386.178123890277,1386.178123890277,1.0003523307932123,0.00020843758122031866
1386.1850682147651,1386.1850682147651,0.9995602434018368,0.00020835185627784253
1386.1920125392758,1386.1920125392758,0.9996600774634837,0.00020835308998084305
1386.198956863787,1386.198956863787,1.0004477433566694,0.00020842746858464023
1386.2059011883105,1386.2059011883105,1.0000425453374746,0.0002083988566755696
1386.2128455128914,1386.2128455128914,1.0001278653650347,0.00020839125896022202
1386.2197898374136,1386.2197898374136,1.0001125098695043,0.00020839336652489357
1386.226734162007,1386.226734162007,1.000217977560777,0.00020841359665457352
1386.2336784866347,1386.2336784866347,1.0001226261772929,0.00020841972026973266
1386.2406228112268,1386.2406228112268,0.9998205124710824,0.0002083788469225334
1386.2475671358668,1386.2475671358668,1.0002152560839142,0.00020842775900164318
1386.2545114605177,1386.2545114605177,0.9997373487703942,0.00020838517517432213
1386.261455785168,1386.261455785168,0.9998835771135308,0.00020839297899378264
1386.2684001098542,1386.2684001098542,1.0002147774703765,0.00020843876444059467
1386.2753444345406,1386.2753444345406,0.9998304519799257,0.00020838856847157973
1386.282288759249,1386.282288759249,0.999996006498694,0.00020840729718058087
1386.28923308397,1386.28923308397,0.9997125517060231,0.00020838425828175388
1386.2961774087257,1386.2961774087257,0.9998454785705331,0.00020840903094098635
1386.3031217334697,1386.3031217334697,1.0004578770906896,0.00020844228617783534
1386.3100660582484,1386.3100660582484,1.0000942636737074,0.00020843211405955522
1386.3170103830394,1386.3170103830394,1.0001159629876177,0.0002084395190329326
1386.323954707842,1386.323954707842,1.0000464721710467,0.00020842234289504617
1386.3308990326552,1386.3308990326552,0.9997497294690154,0.00020837017736167226
1386.3378433575042,1386.3378433575042,1.0000885062294143,0.00020840841400409935
1386.3447876823307,1386.3447876823307,0.9998393941289658,0.00020838771322665545
1386.35173200719,1386.35173200719,0.9997769097951446,0.00020837436472490178
1386.3586763320743,1386.3586763320743,0.9999724763679095,0.000208403126562093
1386.3667317489728,1386.3667317489728,1.0001419705357573,0.00020841366793380797
1386.373953846874,1386.373953846874,1.000161441144994,0.00020841049350648816
1386.3808981718046,1386.3808981718046,1.0000694728086645,0.0002083967640502673
1386.387842496747,1386.387842496747,1.0002223903900664,0.00020840954668453862
1386.3947868217117,1386.3947868217117,1.0000069380518493,0.0002083802088598265
1386.401731146677,1386.401731146677,0.9997383466069634,0.00020834826338300406
1386.4086754716657,1386.4086754716657,0.999973799280844,0.00020835907748353085
1386.415619796666,1386.415619796666,1.000102460139173,0.00020837998458891438
1386.422564121689,1386.422564121689,0.9996498975686585,0.0002083559001956761
1386.4295084467244,1386.4295084467244,1.0001124863359236,0.00020838324949326668
1386.436452771772,1386.436452771772,0.9999198589737703,0.00020837910702166553
1386.4433970968296,1386.4433970968296,0.9999836858281611,0.00020837647159397456
1386.4503414219112,1386.4503414219112,1.000197243205952,0.00020838048793765922
1386.457285747005,1386.457285747005,1.0004483693975306,0.00020839707437666556
1386.4642300721093,1386.4642300721093,0.9999054411789181,0.00020834422539592868
1386.4711743972262,1386.4711743972262,0.9999313400824453,0.00020832711168340744
1386.4781187223664,1386.4781187223664,1.0000084858148803,0.00020836109655802547
1386.4850630475294,1386.4850630475294,0.9999840159255466,0.00020834818121001687
1386.4920073726921,1386.4920073726921,0.9996563763588979,0.00020832218405050134
1386.4989516978555,1386.4989516978555,1.0001877004221458,0.00020838436713125822
1386.5058960230424,1386.5058960230424,1.000058282931517,0.00020837517949719693
1386.5128403482515,1386.5128403482515,0.9998803887157987,0.00020835735192976183
1386.519784673473,1386.519784673473,0.9998712458587626,0.00020836322853408614
1386.526728998718,1386.526728998718,0.999978226433047,0.00020837643906556892
1386.5336733239621,1386.5336733239621,1.000135703590963,0.00020836918100452175
1386.5406176492302,1386.5406176492302,1.000020872983344,0.00020837134675756453
1386.5475619745105,1386.5475619745105,1.0000366029212198,0.00020837560466612615
1386.5545062997896,1386.5545062997896,0.9998096089852924,0.00020835780123737007
1386.562283944135,1386.562283944135,0.9996095897568628,0.00020836048028264703
1386.5697838154979,1386.5697838154979,1.0004760418536065,0.00020841448920750922
1386.5767281408243,1386.5767281408243,1.0001149966434115,0.0002083926322991338
1386.5836724661845,1386.5836724661845,1.0000777851326867,0.00020837959555315244
1386.5906167915462,1386.5906167915462,0.9998260242283792,0.00020835399673522107
1386.5975611169306,1386.5975611169306,1.0002214900899944,0.0002083853891009825
1386.6045054423146,1386.6045054423146,0.9997927053578113,0.0002083426799496247
1386.6114497677104,1386.6114497677104,1.0002742623408207,0.00020839466126609213
1386.618394093142,1386.618394093142,1.0003956664925755,0.00020841647521546524
1386.6253384185613,1386.6253384185613,0.999767425822245,0.00020836286701019394
1386.632282744015,1386.632282744015,0.9998063941546971,0.0002083507258216332
1386.6392270694694,1386.6392270694694,0.9997872201259556,0.0002083655961243849
1386.6461713949589,1386.6461713949589,1.000090320858366,0.00020836434998333037
1386.6531157204356,1386.6531157204356,0.9997992852181239,0.00020832270313939343
1386.6600600459485,1386.6600600459485,1.0001919159002999,0.00020836619316811473
1386.6670043714614,1386.6670043714614,1.0001366510115641,0.00020835941862522395
1386.6739486969966,1386.6739486969966,1.0001410764743774,0.0002083756556928292
1386.6808930225204,1386.6808930225204,0.9999272697691615,0.00020836589069278687
1386.6878373480915,1386.6878373480915,1.0001593504144701,0.00020839656207891376
1386.6947816736504,1386.6947816736504,0.9998487788856407,0.00020834555559979818
1386.701725999244,1386.701725999244,0.999931279546509,0.00020834344126034577
1386.7086703248378,1386.7086703248378,0.9999239284726613,0.0002083701168166959
1386.715614650444,1386.715614650444,1.0004275060927097,0.00020841147176214772
1386.7225589760606,1386.7225589760606,0.9996534447861205,0.0002083336160942687
1386.7295033016894,1386.7295033016894,0.9998738250514967,0.0002083757443514852
1386.7364476273424,1386.7364476273424,0.9999319826223434,0.00020838391075127943
1386.7433919530056,1386.7433919530056,1.0003088222448837,0.00020839891107973744
1386.7503362786804,1386.7503362786804,1.0000251395749815,0.00020839637822548575
1386.7572806043565,1386.7572806043565,0.9997705581927416,0.00020839128993467327
1386.7642249300673,1386.7642249300673,1.00018944611884,0.0002084277053730469
1386.772002574866,1386.772002574866,0.9999541609244058,0.00020841586555863403
1386.77950244666,1386.77950244666,1.0002353715675518,0.00020843281468908379
1386.7864467723703,1386.7864467723703,0.9999910004980308,0.00020839696544166158
1386.7933910981615,1386.7933910981615,0.9998667163001803,0.0002083773508209031
1386.8003354239067,1386.8003354239067,0.999904306880944,0.0002083685662303454
1386.8072797496875,1386.8072797496875,0.9998435248078549,0.00020837364068611113
1386.8142240754794,1386.8142240754794,0.9997893450763303,0.00020837755347060988
1386.8211684012824,1386.8211684012824,0.9999544380797204,0.00020838692235706675
1386.8281127270975,1386.8281127270975,1.0000440069683396,0.00020838648287226013
1386.835057052925,1386.835057052925,1.0001653413966243,0.00020838579409873393
1386.8420013787622,1386.8420013787622,1.000176949240901,0.00020836724153322402
1386.8489457046246,1386.8489457046246,0.9999242876399743,0.00020834826200513248
1386.8558900304981,1386.8558900304981,1.0002435674232077,0.0002083619770887459
1386.8628343563596,1386.8628343563596,1.000010043110567,0.00020835104401521875
1386.8697786822559,1386.8697786822559,0.99969467501964,0.00020831345440076588
1386.8767230081644,1386.8767230081644,1.0000281583746309,0.00020834508455374397
1386.8836673340845,1386.8836673340845,1.000176026688855,0.00020835491529990328
1386.8906116600153,1386.8906116600153,0.9999486099242922,0.00020834263719239106
1386.8975559859468,1386.8975559859468,1.0001008044221589,0.00020833540792228314
1386.904500311914,1386.904500311914,1.0000447525981186,0.0002083649975019262
1386.9114446378685,1386.9114446378685,0.999801997342449,0.00020834475979797091
1386.9183889638464,1386.9183889638464,1.0000207987262237,0.00020837954653216687
1386.9253332898365,1386.9253332898365,0.999994407812206,0.0002083805022532702
1386.9322776158497,1386.9322776158497,0.9997713656636013,0.00020837206172372034
1386.9392219418382,1386.9392219418382,1.000144828513314,0.00020840996813367634
1386.9461662678755,1386.9461662678755,1.0001335316368976,0.00020838576078247551
1386.953110593912,1386.953110593912,0.9999629398785123,0.00020837906641912987
1386.9600549199479,1386.9600549199479,1.0000026229748986,0.0002083880390884683
1386.9669992460424,1386.9669992460424,0.9998458649311097,0.0002083743370365248
1386.9739435721021,1386.9739435721021,0.999921728438568,0.0002083933632276093
1386.9822767634041,1386.9822767634041,1.00000444557908,0.00020838571633140343
1386.9892210895096,1386.9892210895096,1.0001231491663796,0.00020841313569425424
1386.9961654156161,1386.9961654156161,1.0002120392466036,0.0002084264009226333
1387.003109741746,1387.003109741746,1.0002963491760624,0.00020844563759447567
1387.0100540678745,1387.0100540678745,0.9998870036297441,0.00020840651099233082
1387.0169983940273,1387.0169983940273,0.9998566438621956,0.00020842246609137995
1387.0239427201925,1387.0239427201925,0.9997072080346727,0.00020839041058360116
1387.030887046345,1387.030887046345,1.0000642320451212,0.00020843702775599093
1387.037831372532,1387.037831372532,0.9997392259293058,0.0002083815663902687
1387.0447756987317,1387.0447756987317,1.0002702918159057,0.00020844555439929747
1387.051720024943,1387.051720024943,0.9998542553357395,0.0002084190113387844
1387.058664351153,1387.058664351153,1.0000802893497969,0.00020843302376389585
1387.0656086773877,1387.0656086773877,1.0001733054927395,0.00020844191185682021
1387.0725530036223,1387.0725530036223,0.9997465421293914,0.0002083828270111608
1387.0794973298796,1387.0794973298796,1.0001912243470137,0.00020841975464772145
1387.0864416561365,1387.0864416561365,1.000089772894672,0.00020839763564729514
1387.093385982406,1387.093385982406,0.9998082039916438,0.00020839073158115192
1387.1003303086875,1387.1003303086875,1.0000039850321991,0.00020840006043060954
1387.1072746350023,1387.1072746350023,1.0004083859340256,0.0002084441744754153
1387.1142189612947,1387.1142189612947,0.9997230788876162,0.00020837877869435648
1387.121163287599,1387.121163287599,1.0000984912291595,0.000208392707101652
1387.1281076139264,1387.1281076139264,0.999861834688532,0.0002084146478861215
1387.1350519403118,1387.1350519403118,0.9999944352333907,0.0002084075057866746
1387.1419962666394,1387.1419962666394,1.0000306437058817,0.0002084237475446078
1387.1489405930138,1387.1489405930138,0.9996397203157151,0.00020838074314417638
1387.155884919387,1387.155884919387,1.0003815548376525,0.00020845512761986218
1387.1628292457722,1387.1628292457722,0.9998981715946986,0.0002084108582458797
1387.1697735721586,1387.1697735721586,0.9998783806465088,0.00020841906217407345
1387.1767178985792,1387.1767178985792,1.0002653713744603,0.0002084431823207132
1387.183662224987,1387.183662224987,1.0001605696078077,0.00020841978208661528
1387.1906065514195,1387.1906065514195,0.999801288546653,0.00020840383000421698
1387.1975508778637,1387.1975508778637,0.9999567431595681,0.00020840649548448377
1387.2044952043188,1387.2044952043188,0.9999155823598608,0.0002084085656980717
1387.211439530774,1387.211439530774,0.9999242909163316,0.00020838366495173994
1387.2183838572412,1387.2183838572412,1.0000439105487227,0.00020840306460894893
1387.2253281837438,1387.2253281837438,0.9999025422109706,0.0002084047561054844
1387.2322725102333,1387.2322725102333,1.0001986400924598,0.0002084310735126419
1387.2392168367355,1387.2392168367355,1.0000729645358897,0.00020840254406064083
1387.2461611632611,1387.2461611632611,0.9998574972768935,0.00020838074977648865
1387.2531054897747,1387.2531054897747,1.0000576781030195,0.0002084093340067978
1387.2600498163224,1387.2600498163224,0.9999941225449132,0.0002083954838417945
1387.2669941428717,1387.2669941428717,1.0000894828357636,0.00020840505105398523
1387.2739384694205,1387.2739384694205,0.9998251622915395,0.00020837585562309417
1387.2808827959916,1387.2808827959916,1.000298875893034,0.0002084177268109648
1387.287827122575,1387.287827122575,1.0001014705054654,0.00020839798689527124
1387.2947714491588,1387.2947714491588,0.9994074051684636,0.00020834625635025896
1387.3017157757772,1387.3017157757772,1.0003695308203568,0.00020836297734932904
1387.3103267407835,1387.3103267407835,1.0000943536594655,0.00020843398125263324
1387.3183821596615,1387.3183821596615,0.9998317438175615,0.00020838937210225267
1387.3253264862801,1387.3253264862801,1.0000386381781898,0.00020838369296177173
1387.3336596782797,1387.3336596782797,0.9999613012758706,0.0002083746838956458
1387.3406040049215,1387.3406040049215,0.9998993084880212,0.00020839414188692927
1387.3483816508046,1387.3483816508046,0.999907431080395,0.000208385372645586
1387.3558815236102,1387.3558815236102,0.9999879350825196,0.00020838883821832716
1387.3628258502981,1387.3628258502981,1.00012319722707,0.00020841285614561395
1387.3697701770102,1387.3697701770102,1.000280815120179,0.00020840195323951297
1387.376714503722,1387.376714503722,1.0001039452038398,0.00020840638507538768
1387.3836588304443,1387.3836588304443,1.0001762896272226,0.00020838112342366403
1387.3906031571792,1387.3906031571792,0.9995486919507716,0.00020838786469184038
1387.3975474839147,1387.3975474839147,0.9999631114793196,0.00020839356024344172
1387.4044918106724,1387.4044918106724,0.9999945878996208,0.00020840045031054831
1387.4114361374418,1387.4114361374418,0.9998208452521903,0.00020839786211999077
1387.4183804642,1387.4183804642,1.0000850563947008,0.00020841618509695142
1387.4253247909937,1387.4253247909937,1.0004010469278166,0.00020841764837815717
1387.432269117774,1387.432269117774,0.9995247159535389,0.0002083591479788087
1387.4392134445907,1387.4392134445907,0.9999874817548247,0.00020840821792893435
1387.446157771396,1387.446157771396,1.0000415759780925,0.00020842824493363645
1387.4531020982236,1387.4531020982236,1.0004037792665712,0.0002084492893913984
1387.4600464250511,1387.4600464250511,1.0000239166543818,0.00020840801840506682
1387.466990751891,1387.466990751891,0.9998256610764248,0.000208394441235614
1387.4739350787427,1387.4739350787427,0.9999738905678177,0.0002083801629590376
1387.4808794056169,1387.4808794056169,1.0000100493303672,0.0002083809565216904
1387.4878237324676,1387.4878237324676,0.9997828521776613,0.00020836283172337802
1387.4947680593773,1387.4947680593773,0.9996825251566399,0.0002083849317886563
1387.5017123862292,1387.5017123862292,1.000069091593706,0.00020839584468875552
1387.5086567131377,1387.5086567131377,1.0004333827194538,0.00020842211341119715
1387.5156010400474,1387.5156010400474,1.0002290619749499,0.00020840792393877244
1387.5225453669686,1387.5225453669686,1.000331065142376,0.00020843743994539257
1387.529489693925,1387.529489693925,0.9998112317581965,0.0002083807350511667
1387.5364340208455,1387.5364340208455,0.9994795585393266,0.00020834794697663345
1387.5433783478018,1387.5433783478018,0.9999759260161991,0.00020840543263665753
1387.550322674758,1387.550322674758,1.0000415531149396,0.00020840977673332252
1387.5572670017257,1387.5572670017257,0.9998100537270249,0.0002083783200397623
1387.5642113286926,1387.5642113286926,1.000136127252913,0.00020841418361545208
1387.5711556556957,1387.5711556556957,1.0000455257146397,0.000208401371183293
1387.5780999826752,1387.5780999826752,0.9999172948892496,0.00020838426467677867
1387.585044309689,1387.585044309689,1.000247711532598,0.00020842668548953888
1387.591988636703,1387.591988636703,1.0001784016986353,0.00020844174173216076
1387.598932963729,1387.598932963729,1.000014198455835,0.0002083974450255186
1387.6058772907552,1387.6058772907552,0.9999347562209872,0.00020839222308877847
1387.6128216178038,1387.6128216178038,0.9998923365738841,0.0002083837781479151
1387.6197659448414,1387.6197659448414,0.9998863760016891,0.00020834447535767803
1387.626710271926,1387.626710271926,0.9998328838727769,0.00020836206951580898
1387.633654598975,1387.633654598975,0.9997874021736273,0.00020837745574460784
1387.6405989260584,1387.6405989260584,1.0002114689601864,0.0002084156037920468
1387.6475432531547,1387.6475432531547,1.0003143601425557,0.00020842546775151012
1387.6544875802506,1387.6544875802506,0.9998269142507613,0.0002083507866776637
1387.6614319073574,1387.6614319073574,1.0001292504708699,0.0002083875801598246
1387.6683762344646,1387.6683762344646,1.0000602395503946,0.00020839384130791742
1387.6753205615958,1387.6753205615958,0.9998558679524467,0.00020835184539179822
1387.6822648887266,1387.6822648887266,1.0002492150736175,0.00020840055537522454
1387.689209215868,1387.689209215868,1.0000933303176711,0.00020836745338558563
1387.6961535430105,1387.6961535430105,0.999488327983505,0.0002083276039046279
1387.7030978701766,1387.7030978701766,0.999789143901678,0.00020835565747885925
1387.7100421973541,1387.7100421973541,0.9998396294637921,0.00020833211420642365
