time,time,flux,flux_err
1354.1102679546216,1354.1102679546216,97362.67,35.307987
1354.1116568755338,1354.1116568755338,97384.92,35.31265
1354.114434717298,1354.114434717298,97357.11,35.279537
1354.1158236382685,1354.1158236382685,97405.86,35.327946
1354.1172125591802,1354.1172125591802,97421.32,35.325623
1354.1186014800917,1354.1186014800917,97422.93,35.32138
1354.1199904010032,1354.1199904010032,97356.22,35.310925
1354.1213793219154,1354.1213793219154,97422.99,35.32192
1354.122768242886,1354.122768242886,97430.76,35.318733
1354.1241571637975,1354.1241571637975,97403.61,35.317352
1354.1255460847674,1354.1255460847674,97405.15,35.312855
1354.1269350056787,1354.1269350056787,97394.15,35.30684
1354.1283239266486,1354.1283239266486,97391.74,35.313213
1354.129712847619,1354.129712847619,97366.92,35.30673
1354.1311017685307,1354.1311017685307,97389.34,35.313293
1354.1324906895002,1354.1324906895002,97389.44,35.313026
1354.1338796104708,1354.1338796104708,97395.805,35.313282
1354.1352685314405,1354.1352685314405,97465.93,35.3237
1354.1366574524109,1354.1366574524109,97412.35,35.31184
1354.1380463733808,1354.1380463733808,97441.94,35.3212
1354.1394352943498,1354.1394352943498,97362.445,35.293644
1354.1408242153784,1354.1408242153784,97452.51,35.32876
1354.1422131363488,1354.1422131363488,97428.85,35.31555
1354.1436020573187,1354.1436020573187,97352.34,35.306423
1354.1449909783466,1354.1449909783466,97429.71,35.322586
1354.1463798993163,1354.1463798993163,97447.414,35.322582
1354.147768820345,1354.147768820345,97438.625,35.3158
1354.1491577413155,1354.1491577413155,97363.35,35.304485
1354.150546662343,1354.150546662343,97476.16,35.329376
1354.1519355833707,1354.1519355833707,97354.09,35.306255
1354.1533245043993,1354.1533245043993,97407.86,35.31408
1354.15471342537,1354.15471342537,97331.67,35.300484
1354.1561023463978,1354.1561023463978,97437.11,35.31923
1354.157491267425,1354.157491267425,97415.086,35.316223
1354.1588801884536,1354.1588801884536,97346.94,35.29911
1354.1602691095406,1354.1602691095406,97423.52,35.32061
1354.1616580305686,1354.1616580305686,97405.766,35.31292
1354.1630469515967,1354.1630469515967,97373.37,35.310307
1354.1644358726244,1354.1644358726244,97427.516,35.318043
1354.1658247937114,1354.1658247937114,97432.74,35.319057
1354.1672137147402,1354.1672137147402,97382.336,35.31119
1354.1686026358257,1354.1686026358257,97446.3,35.320644
1354.1699915568536,1354.1699915568536,97315.766,35.295464
1354.1713804779406,1354.1713804779406,97380.86,35.310287
1354.1727693989683,1354.1727693989683,97423.414,35.316868
1354.174158320055,1354.174158320055,97364.78,35.30152
1354.1755472411414,1354.1755472411414,97419.836,35.31331
1354.1769361622278,1354.1769361622278,97363.6,35.30748
1354.1783250833146,1354.1783250833146,97409.79,35.3146
1354.1797140044005,1354.1797140044005,97451.8,35.32011
1354.1811029254875,1354.1811029254875,97439.93,35.3177
1354.1824918465736,1354.1824918465736,97413.69,35.31508
1354.183880767659,1354.183880767659,97379.46,35.305595
1354.185269688746,1354.185269688746,97389.3,35.308296
1354.186658609833,1354.186658609833,97366.31,35.312157
1354.1880475309772,1354.1880475309772,97394.33,35.308796
1354.1894364520635,1354.1894364520635,97411.805,35.31315
1354.1908253732079,1354.1908253732079,97437.43,35.317265
1354.192214294295,1354.192214294295,97406.125,35.3132
1354.19360321544,1354.19360321544,97394.59,35.315346
1354.1949921365253,1354.1949921365253,97455.22,35.32132
1354.1963810576697,1354.1963810576697,97411.74,35.318893
1354.197769978815,1354.197769978815,97446.26,35.31755
1354.1991588999017,1354.1991588999017,97438.35,35.314686
1354.2005478210458,1354.2005478210458,97317.53,35.296375
1354.2019367421897,1354.2019367421897,97384.52,35.310966
1354.203325663335,1354.203325663335,97360.625,35.308228
1354.20471458448,1354.20471458448,97419.71,35.31762
1354.206103505624,1354.206103505624,97454.42,35.326294
1354.2074924267686,1354.2074924267686,97376.695,35.307663
1354.2088813479713,1354.2088813479713,97449.84,35.320915
1354.2102702691163,1354.2102702691163,97447.14,35.32183
1354.2116591902613,1354.2116591902613,97405.28,35.30919
1354.213048111405,1354.213048111405,97421.0,35.319542
1354.2144370326077,1354.2144370326077,97370.42,35.306847
1354.2158259537528,1354.2158259537528,97412.04,35.31544
1354.2172148749553,1354.2172148749553,97395.88,35.31007
1354.2186037961005,1354.2186037961005,97512.016,35.33618
1354.2199927173028,1354.2199927173028,97414.984,35.312145
1354.2213816385056,1354.2213816385056,97420.805,35.31326
1354.2227705596506,1354.2227705596506,97424.055,35.320034
1354.2241594808534,1354.2241594808534,97412.86,35.312
1354.2255484020557,1354.2255484020557,97401.27,35.315197
1354.2269373232584,1354.2269373232584,97345.914,35.302452
1354.228326244461,1354.228326244461,97439.77,35.3209
1354.2297151656644,1354.2297151656644,97365.04,35.309006
1354.2311040868676,1354.2311040868676,97424.79,35.31828
1354.2324930080702,1354.2324930080702,97412.29,35.314682
1354.2338819292727,1354.2338819292727,97407.86,35.315666
1354.2352708504754,1354.2352708504754,97429.23,35.31849
1354.2366597716787,1354.2366597716787,97382.7,35.318806
1354.23804869294,1354.23804869294,97416.96,35.314083
1354.239437614142,1354.239437614142,97401.125,35.312485
1354.240826535403,1354.240826535403,97355.73,35.30624
1354.2422154566061,1354.2422154566061,97414.875,35.31668
1354.2436043778093,1354.2436043778093,97406.89,35.316555
1354.2449932990703,1354.2449932990703,97413.16,35.322186
1354.2463822203304,1354.2463822203304,97440.74,35.3215
1354.2477711415336,1354.2477711415336,97381.18,35.313457
1354.249160062795,1354.249160062795,97377.3,35.31077
1354.250548984056,1354.250548984056,97447.32,35.32454
1354.2519379053165,1354.2519379053165,97414.266,35.318375
1354.2533268265192,1354.2533268265192,97360.48,35.304474
1354.2547157477807,1354.2547157477807,97401.164,35.308876
1354.256104669042,1354.256104669042,97337.14,35.306526
1354.2574935903021,1354.2574935903021,97439.07,35.31486
1354.2588825115631,1354.2588825115631,97417.44,35.31898
1354.2602714328245,1354.2602714328245,97402.12,35.31447
1354.2616603541437,1354.2616603541437,97426.28,35.319263
1354.2630492754051,1354.2630492754051,97382.38,35.31322
1354.2644381966659,1354.2644381966659,97378.92,35.30617
1354.2658271179266,1354.2658271179266,97458.71,35.321278
1354.2672160392463,1354.2672160392463,97419.2,35.319862
1354.2686049605072,1354.2686049605072,97425.48,35.326176
1354.2699938817682,1354.2699938817682,97418.266,35.316242
1354.271382803087,1354.271382803087,97362.25,35.30893
1354.2727717243479,1354.2727717243479,97377.055,35.314278
1354.2741606456675,1354.2741606456675,97493.36,35.328274
1354.2755495669871,1354.2755495669871,97402.95,35.31688
1354.276938488248,1354.276938488248,97383.09,35.31177
1354.2783274095668,1354.2783274095668,97373.66,35.30378
1354.279716330886,1354.279716330886,97390.05,35.31578
1354.2811052522056,1354.2811052522056,97433.21,35.31666
1354.2824941734666,1354.2824941734666,97427.7,35.31781
1354.2838830947849,1354.2838830947849,97407.695,35.31386
1354.2852720161045,1354.2852720161045,97365.17,35.313686
1354.2866609374241,1354.2866609374241,97381.68,35.315857
1354.2880498587438,1354.2880498587438,97431.03,35.322826
1354.289438780063,1354.289438780063,97463.08,35.327415
1354.2908277013812,1354.2908277013812,97393.016,35.317173
1354.292216622759,1354.292216622759,97432.31,35.322685
1354.2936055440787,1354.2936055440787,97373.98,35.31375
1354.2949944653972,1354.2949944653972,97397.305,35.317257
1354.2963833867161,1354.2963833867161,97413.28,35.32236
1354.297772308094,1354.297772308094,97321.59,35.304585
1354.2991612294136,1354.2991612294136,97345.516,35.30764
1354.3005501507917,1354.3005501507917,97368.55,35.313038
1354.3019390721101,1354.3019390721101,97350.16,35.307858
1354.303327993487,1354.303327993487,97384.305,35.31597
1354.3047169148067,1354.3047169148067,97377.555,35.31299
1354.306105836184,1354.306105836184,97422.9,35.325138
1354.3074947575037,1354.3074947575037,97448.58,35.328552
1354.308883678881,1354.308883678881,97392.24,35.321175
1354.3102726002583,1354.3102726002583,97383.61,35.313263
1354.3116615216363,1354.3116615216363,97407.68,35.322758
1354.313050442955,1354.313050442955,97450.8,35.328327
1354.3144393643324,1354.3144393643324,97351.21,35.30428
1354.3158282857096,1354.3158282857096,97409.0,35.32215
1354.3172172070867,1354.3172172070867,97413.23,35.32217
1354.3186061284646,1354.3186061284646,97373.96,35.311264
1354.3199950498424,1354.3199950498424,97403.484,35.321087
1354.3213839712198,1354.3213839712198,97392.77,35.315273
1354.3227728925972,1354.3227728925972,97450.98,35.32767
1354.3241618139741,1354.3241618139741,97448.16,35.332203
1354.3255507354102,1354.3255507354102,97364.664,35.306263
1354.3269396567875,1354.3269396567875,97391.516,35.31659
1354.328328578164,1354.328328578164,97454.15,35.32772
1354.3297174995419,1354.3297174995419,97371.37,35.312817
1354.3311064209781,1354.3311064209781,97388.72,35.31362
1354.3324953423562,1354.3324953423562,97405.47,35.322227
1354.3338842637331,1354.3338842637331,97309.805,35.302776
1354.3352731851678,1354.3352731851678,97390.555,35.317204
1354.3366621065459,1354.3366621065459,97373.06,35.314926
1354.3380510279821,1354.3380510279821,97403.25,35.31798
1354.3394399494168,1354.3394399494168,97385.67,35.318546
1354.3408288707938,1354.3408288707938,97399.0,35.322754
1354.34221779223,1354.34221779223,97353.79,35.30965
1354.3436067136663,1354.3436067136663,97388.29,35.318645
1354.3449956350441,1354.3449956350441,97463.07,35.32913
1354.3463845564788,1354.3463845564788,97419.69,35.323013
1354.3477734779142,1354.3477734779142,97405.664,35.322857
1354.3491623993505,1354.3491623993505,97375.54,35.31376
1354.3505513207856,1354.3505513207856,97418.664,35.328625
1354.3519402422212,1354.3519402422212,97433.11,35.32598
1354.3533291636566,1354.3533291636566,97321.414,35.30956
1354.3547180850928,1354.3547180850928,97416.78,35.326385
1354.3561070065289,1354.3561070065289,97430.26,35.32544
1354.3574959279642,1354.3574959279642,97383.05,35.31918
1354.3588848493996,1354.3588848493996,97372.516,35.32146
1354.3602737708352,1354.3602737708352,97360.95,35.317596
1354.3616626922703,1354.3616626922703,97406.58,35.327545
1354.3630516137066,1354.3630516137066,97357.4,35.3114
1354.364440535201,1354.364440535201,97416.45,35.32679
1354.3658294566362,1354.3658294566362,97365.25,35.31792
1354.3672183780718,1354.3672183780718,97412.9,35.327393
1354.3686072995654,1354.3686072995654,97437.836,35.330036
1354.3699962210017,1354.3699962210017,97446.66,35.32969
1354.3713851424368,1354.3713851424368,97410.99,35.327484
1354.3727740639297,1354.3727740639297,97471.19,35.330456
1354.374162985366,1354.374162985366,97357.336,35.31402
1354.3755519068604,1354.3755519068604,97373.266,35.31772
1354.3769408283547,1354.3769408283547,97408.59,35.322342
1354.37832974979,1354.37832974979,97379.03,35.316467
1354.3797186712832,1354.3797186712832,97423.09,35.32225
1354.3811075927774,1354.3811075927774,97381.88,35.32226
1354.3824965142135,1354.3824965142135,97362.625,35.31486
1354.3838854357064,1354.3838854357064,97374.37,35.315556
1354.3852743572002,1354.3852743572002,97372.39,35.318233
1354.3866632786944,1354.3866632786944,97409.68,35.32186
1354.3880522001305,1354.3880522001305,97442.445,35.330257
1354.3894411216247,1354.3894411216247,97322.99,35.30876
1354.3908300431176,1354.3908300431176,97399.27,35.32801
1354.3922189646114,1354.3922189646114,97442.36,35.330177
1354.3936078861057,1354.3936078861057,97475.6,35.335182
1354.3949968075995,1354.3949968075995,97401.76,35.318523
1354.3963857290928,1354.3963857290928,97414.34,35.32865
1354.3977746505866,1354.3977746505866,97439.59,35.3325
1354.3991635720809,1354.3991635720809,97424.06,35.32457
1354.4005524936333,1354.4005524936333,97409.62,35.32535
1354.401941415127,1354.401941415127,97443.93,35.332752
1354.4033303366205,1354.4033303366205,97429.91,35.327393
1354.4047192581143,1354.4047192581143,97450.01,35.33254
1354.4061081796663,1354.4061081796663,97413.77,35.33015
1354.4074971011605,1354.4074971011605,97379.73,35.321537
1354.4088860226548,1354.4088860226548,97420.086,35.325928
1354.4102749442065,1354.4102749442065,97431.71,35.32934
1354.4116638657001,1354.4116638657001,97445.47,35.33643
1354.413052787194,1354.413052787194,97382.58,35.320213
1354.4144417087464,1354.4144417087464,97422.25,35.333305
1354.4158306302402,1354.4158306302402,97407.05,35.327564
1354.4172195517913,1354.4172195517913,97434.734,35.33287
1354.4186084733437,1354.4186084733437,97453.46,35.33179
1354.419997394838,1354.419997394838,97381.34,35.3208
1354.4213863163905,1354.4213863163905,97439.23,35.33325
1354.4227752378843,1354.4227752378843,97383.914,35.32415
1354.4241641594353,1354.4241641594353,97425.516,35.326122
1354.4255530809878,1354.4255530809878,97402.34,35.325844
1354.4269420025403,1354.4269420025403,97386.99,35.321632
1354.4283309240332,1354.4283309240332,97398.17,35.32539
1354.4297198455852,1354.4297198455852,97382.64,35.323723
1354.4311087671376,1354.4311087671376,97379.83,35.32247
1354.43249768869,1354.43249768869,97342.65,35.31699
1354.4338866102426,1354.4338866102426,97386.28,35.32225
1354.4352755317936,1354.4352755317936,97446.57,35.335205
1354.4366644533457,1354.4366644533457,97456.45,35.337536
1354.4380533748981,1354.4380533748981,97369.88,35.319065
1354.4394422964501,1354.4394422964501,97336.08,35.31527
1354.440831218002,1354.440831218002,97370.96,35.32613
1354.4422201395537,1354.4422201395537,97461.28,35.334118
1354.4436090611061,1354.4436090611061,97414.875,35.33389
1354.4449979826586,1354.4449979826586,97372.16,35.321938
1354.4463869042106,1354.4463869042106,97390.96,35.320206
1354.4477758257626,1354.4477758257626,97366.92,35.322266
1354.4491647473142,1354.4491647473142,97434.56,35.33421
1354.4505536689244,1354.4505536689244,97465.66,35.338936
1354.4519425904768,1354.4519425904768,97460.51,35.341373
1354.4533315120293,1354.4533315120293,97352.36,35.320374
1354.4547204336395,1354.4547204336395,97423.336,35.33616
1354.4561093551913,1354.4561093551913,97424.79,35.327946
1354.457498276743,1354.457498276743,97401.41,35.331448
1354.4588871983538,1354.4588871983538,97357.88,35.321938
1354.4602761199058,1354.4602761199058,97408.67,35.332504
1354.461665041515,1354.461665041515,97422.234,35.3295
1354.4630539630675,1354.4630539630675,97364.04,35.322674
1354.4644428846782,1354.4644428846782,97455.89,35.338314
1354.4658318062307,1354.4658318062307,97404.84,35.331825
1354.4672207278409,1354.4672207278409,97403.85,35.324207
1354.468609649392,1354.468609649392,97367.39,35.3232
1354.4699985710026,1354.4699985710026,97346.03,35.320618
1354.471387492555,1354.471387492555,97450.766,35.33332
1354.4727764141646,1354.4727764141646,97427.7,35.336685
1354.4741653357746,1354.4741653357746,97363.65,35.322464
1354.4755542573853,1354.4755542573853,97408.58,35.335354
1354.476943178938,1354.476943178938,97400.445,35.331078
1354.4783321005489,1354.4783321005489,97465.13,35.339664
1354.4797210221582,1354.4797210221582,97421.26,35.334175
1354.481109943768,1354.481109943768,97446.87,35.3404
1354.4824988653206,1354.4824988653206,97377.51,35.32215
1354.4838877869306,1354.4838877869306,97379.77,35.329227
1354.4852767085408,1354.4852767085408,97433.68,35.3348
1354.4866656301506,1354.4866656301506,97364.52,35.326344
1354.4880545517615,1354.4880545517615,97421.84,35.331783
1354.4894434733724,1354.4894434733724,97397.02,35.328316
1354.4908323949821,1354.4908323949821,97392.984,35.330006
1354.4922213165923,1354.4922213165923,97450.555,35.337284
1354.4936102382023,1354.4936102382023,97358.49,35.326614
1354.4949991598123,1354.4949991598123,97383.586,35.328594
1354.496388081423,1354.496388081423,97411.09,35.329777
1354.497777003034,1354.497777003034,97480.21,35.34359
1354.4991659246439,1354.4991659246439,97387.914,35.328003
1354.5005548463123,1354.5005548463123,97408.72,35.333374
1354.501943767922,1354.501943767922,97473.695,35.347847
1354.503332689533,1354.503332689533,97423.75,35.33
1354.504721611143,1354.504721611143,97365.12,35.331207
1354.5061105327522,1354.5061105327522,97449.484,35.33899
1354.5074994544211,1354.5074994544211,97392.32,35.33129
1354.508888376032,1354.508888376032,97445.51,35.33908
1354.510277297643,1354.510277297643,97454.62,35.34237
1354.5116662193109,1354.5116662193109,97368.375,35.336037
1354.5130551409202,1354.5130551409202,97378.85,35.32562
1354.514444062531,1354.514444062531,97476.18,35.346424
1354.5158329842002,1354.5158329842002,97440.08,35.341732
1354.5172219058095,1354.5172219058095,97398.8,35.33338
1354.5186108274777,1354.5186108274777,97497.94,35.349537
1354.5199997490886,1354.5199997490886,97410.46,35.33475
1354.5213886707575,1354.5213886707575,97393.164,35.327534
1354.5227775923681,1354.5227775923681,97404.19,35.327217
1354.5241665140356,1354.5241665140356,97394.57,35.329826
1354.5255554356459,1354.5255554356459,97361.29,35.33305
1354.5269443573147,1354.5269443573147,97417.72,35.3379
1354.5283332789245,1354.5283332789245,97379.97,35.322872
1354.529722200593,1354.529722200593,97462.945,35.343746
1354.5311111222613,1354.5311111222613,97430.24,35.34012
1354.532500043872,1354.532500043872,97441.266,35.33917
1354.5338889655409,1354.5338889655409,97440.86,35.336746
1354.5352778872093,1354.5352778872093,97343.71,35.32307
1354.536666808819,1354.536666808819,97457.86,35.3435
1354.5380557304875,1354.5380557304875,97388.16,35.3231
1354.5394446521557,1354.5394446521557,97405.68,35.33692
1354.5408335738248,1354.5408335738248,97406.11,35.3379
1354.5422224954355,1354.5422224954355,97463.56,35.3487
1354.5436114171034,1354.5436114171034,97441.195,35.34558
1354.5450003387718,1354.5450003387718,97430.85,35.340378
1354.5463892604403,1354.5463892604403,97383.86,35.33467
1354.5477781821091,1354.5477781821091,97435.41,35.33068
1354.549167103777,1354.549167103777,97358.28,35.329758
1354.5505560254448,1354.5505560254448,97442.44,35.341938
1354.551944947114,1354.551944947114,97391.96,35.33279
1354.5533338687828,1354.5533338687828,97392.21,35.33307
1354.5547227904517,1354.5547227904517,97343.33,35.324768
1354.5561117121201,1354.5561117121201,97442.12,35.344803
1354.5575006337876,1354.5575006337876,97395.445,35.33079
1354.5588895554565,1354.5588895554565,97424.01,35.338337
1354.5602784771254,1354.5602784771254,97405.22,35.33902
1354.561667398793,1354.561667398793,97336.35,35.321213
1354.5630563204613,1354.5630563204613,97409.555,35.335003
1354.5644452421302,1354.5644452421302,97396.97,35.336586
1354.565834163799,1354.565834163799,97420.51,35.340843
1354.567223085468,1354.567223085468,97411.81,35.335506
1354.5686120071355,1354.5686120071355,97390.74,35.33856
1354.570000928862,1354.570000928862,97384.79,35.332703
1354.571389850531,1354.571389850531,97442.875,35.344646
1354.5727787721994,1354.5727787721994,97398.55,35.337833
1354.5741676938674,1354.5741676938674,97401.62,35.33604
1354.5755566155358,1354.5755566155358,97383.1,35.336113
1354.5769455372629,1354.5769455372629,97404.875,35.330772
1354.5783344589317,1354.5783344589317,97367.5,35.33613
1354.5797233806002,1354.5797233806002,97440.77,35.34407
1354.5811123023266,1354.5811123023266,97468.195,35.34067
1354.5825012239948,1354.5825012239948,97413.01,35.33565
1354.5838901456632,1354.5838901456632,97420.08,35.338257
1354.5852790673903,1354.5852790673903,97411.34,35.3367
1354.5866679890592,1354.5866679890592,97439.77,35.345936
1354.5880569107858,1354.5880569107858,97363.69,35.330307
1354.5894458324537,1354.5894458324537,97364.38,35.32922
1354.5908347541222,1354.5908347541222,97543.484,35.36398
1354.5922236758493,1354.5922236758493,97394.75,35.337223
1354.5936125975177,1354.5936125975177,97383.516,35.334545
1354.5950015192434,1354.5950015192434,97384.336,35.340427
1354.5963904409123,1354.5963904409123,97404.125,35.329906
1354.5977793626394,1354.5977793626394,97417.03,35.341698
1354.5991682843082,1354.5991682843082,97422.43,35.341988
1354.6005572060349,1354.6005572060349,97342.875,35.33076
1354.6019461277024,1354.6019461277024,97431.92,35.343754
1354.6033350494295,1354.6033350494295,97421.84,35.342
