time,time,flux,flux_err
1385.9508493317114,1385.9508493317114,0.9999368289276355,0.000389564578474956
1385.9591827763143,1385.9591827763143,0.9998494319644543,0.00038957773370489724
1385.9675162208966,1385.9675162208966,1.000169112813923,0.00038967946970648864
1385.9758496654788,1385.9758496654788,1.0008024528488524,0.00038983908298725683
1385.9834886563735,1385.9834886563735,0.9988523069750336,0.00035565542994309374
1385.9904331935288,1385.9904331935288,1.0004148353235962,0.0003558075370303507
1385.9973777307307,1385.9973777307307,0.9996987118289921,0.0003557696108475785
1386.0043222679099,1386.0043222679099,1.0002996617346058,0.0003558829918312243
1386.0112668051115,1386.0112668051115,1.0002116605766704,0.00035586796834197296
1386.0182113423132,1386.0182113423132,0.9996331724591089,0.0003557947117772909
1386.0251558795162,1386.0251558795162,0.9995496107769632,0.00035581529165245994
1386.0321004167179,1386.0321004167179,0.9998891983896756,0.0003558987123447973
1386.0390449539425,1386.0390449539425,1.0005067557974483,0.0003559751643273213
1386.045989491145,1386.045989491145,1.0000650712784334,0.00035591102109489524
1386.0529340283706,1386.0529340283706,1.0004068677057985,0.00035596561217007524
1386.0598785656184,1386.0598785656184,0.9998999192646357,0.00035589119830187514
1386.0668231028444,1386.0668231028444,0.9999757967324058,0.00035589097513580265
1386.07376764007,1386.07376764007,1.000044209657921,0.0003559092656227855
1386.080712177341,1386.080712177341,0.9998644121225976,0.00035584258396068643
1386.08765671459,1386.08765671459,0.9998376066411309,0.00035588526986729107
1386.094601251862,1386.094601251862,1.000124941726655,0.00035591788731895505
1386.1015457891103,1386.1015457891103,1.0000253519621327,0.0003559394820147086
1386.1084903263818,1386.1084903263818,0.9997399373792447,0.0003558714442977283
1386.1154348636544,1386.1154348636544,0.9997266309548392,0.0003558421910607999
1386.122379400926,1386.122379400926,0.999947002315373,0.00035586031769479056
1386.1293239381976,1386.1293239381976,1.000238775049058,0.00035591764338706316
1386.13626847547,1386.13626847547,0.9997678146134096,0.0003558231464860872
1386.143213012765,1386.143213012765,1.0006641514734116,0.00035596601744776143
1386.150157550083,1386.150157550083,0.9999645508001654,0.00035581635730039935
1386.1571020873555,1386.1571020873555,1.000225308904237,0.0003559158156186969
1386.164046624674,1386.164046624674,1.0001884225866127,0.0003558831490224685
1386.1709911619917,1386.1709911619917,1.000254045355785,0.0003558458485818612
1386.1779356992872,1386.1779356992872,1.0000943606307233,0.0003559165295512159
1386.1848802366062,1386.1848802366062,1.000294829804912,0.0003558742246598051
1386.1918247739472,1386.1918247739472,0.9999163661045136,0.00035585193817510723
1386.1987693112656,1386.1987693112656,0.9996299917026278,0.0003558189267892192
1386.2057138486075,1386.2057138486075,0.999159632638326,0.0003557211043906877
1386.212658385926,1386.212658385926,1.0000696766871873,0.00035585426129811624
1386.2196029232673,1386.2196029232673,1.0001177613134693,0.00035591124291996896
1386.2265474606097,1386.2265474606097,1.000060305165807,0.0003559029924512355
1386.2334919979744,1386.2334919979744,1.0001869072032874,0.0003559363049015145
1386.240436535316,1386.240436535316,1.0002449811169576,0.0003559182715560208
1386.2473810726815,1386.2473810726815,0.999889011889987,0.00035585701260172994
1386.2543256100234,1386.2543256100234,0.9993647416433017,0.00035577374841946994
1386.2612701474109,1386.2612701474109,1.0001729038485976,0.0003558621206962985
1386.2682146847765,1386.2682146847765,0.9995833135751546,0.0003557551547267621
1386.2751592221416,1386.2751592221416,0.9998941282864567,0.0003558091607153982
1386.282103759529,1386.282103759529,1.0000888727113133,0.00035584285460468117
1386.2890482969176,1386.2890482969176,0.9997236761114742,0.0003557957616987422
1386.2959928343062,1386.2959928343062,1.0007140586158125,0.0003559552994342658
1386.3029373716945,1386.3029373716945,0.9996849448472103,0.0003558128228169838
1386.3098819090824,1386.3098819090824,1.0005781855789042,0.0003559743112124373
1386.316826446471,1386.316826446471,1.0000056075426857,0.0003558431077855435
1386.3237709838827,1386.3237709838827,0.999671107333131,0.00035581465103579903
1386.3307155212938,1386.3307155212938,0.9994432940806771,0.0003557956457838568
1386.3376600587058,1386.3376600587058,1.000036760550124,0.00035583129178738037
1386.3446045961177,1386.3446045961177,0.9994568901592349,0.000355758230764917
1386.3515491335052,1386.3515491335052,1.0004812089715602,0.00035592330209910773
1386.3584936709406,1386.3584936709406,0.9997300056832845,0.00035582810712599203
1386.3665493343487,1386.3665493343487,0.999671783488487,0.00035583334138156826
1386.3737716532873,1386.3737716532873,0.9998810086145307,0.0003557864157286848
1386.3807161906993,1386.3807161906993,0.9996577461932341,0.0003557757938528224
1386.3876607281577,1386.3876607281577,1.0004307513309891,0.00035588292638220344
1386.3946052655924,1386.3946052655924,0.9999939987405367,0.0003558292459285162
1386.4015498030271,1386.4015498030271,1.0002915233495837,0.0003558300341944201
1386.4084943404855,1386.4084943404855,1.0001227179432992,0.0003559028170890128
1386.4154388779436,1386.4154388779436,1.0002304964093693,0.0003558852418152173
1386.4223834153777,1386.4223834153777,0.9997817898105724,0.00035581051577377967
1386.4293279528597,1386.4293279528597,1.0001917088964811,0.00035589445061016365
1386.4362724902953,1386.4362724902953,0.9995292616909403,0.0003557871630792893
1386.4432170277757,1386.4432170277757,0.9999191045673058,0.0003558590447492986
1386.4501615652343,1386.4501615652343,0.9999510492866518,0.0003558426512982651
1386.4571061026932,1386.4571061026932,0.9998022653955021,0.0003558315822833231
1386.4640506401734,1386.4640506401734,1.0001170025992494,0.00035584087369879014
1386.470995177655,1386.470995177655,1.0006466920827244,0.00035591191898075314
1386.477939715137,1386.477939715137,0.9997100886095213,0.0003557848138610611
1386.4848842525948,1386.4848842525948,0.9997207919254809,0.0003558102737560727
1386.4918287900994,1386.4918287900994,0.999328558932989,0.00035575757769833806
1386.498773327581,1386.498773327581,1.0002950844171075,0.00035591703050018796
1386.5057178650861,1386.5057178650861,1.0003398428271137,0.00035592155190915687
1386.5126624025668,1386.5126624025668,0.9998349534612428,0.00035588478068931517
1386.519606940072,1386.519606940072,1.000849021338615,0.0003560316176836373
1386.526551477577,1386.526551477577,0.9995654247334935,0.00035584043711785706
1386.5334960150813,1386.5334960150813,0.999565439137297,0.0003558272091881262
1386.5404405525856,1386.5404405525856,1.0000443561360315,0.00035586379170390425
1386.5473850900912,1386.5473850900912,0.9993115163085969,0.00035579019153489345
1386.5543296276187,1386.5543296276187,1.0001910734503858,0.0003558946543721561
1386.5621075096144,1386.5621075096144,0.9999235027248543,0.0003558471321189804
1386.5696076101526,1386.5696076101526,1.0003889250324807,0.0003559499965110348
1386.576552147681,1386.576552147681,0.9998467742640862,0.0003558306782476072
1386.5834966852078,1386.5834966852078,1.0003194723804716,0.00035589451757200835
1386.5904412227133,1386.5904412227133,1.0000423500561673,0.00035581077635975597
1386.5973857602414,1386.5973857602414,1.0001093564701664,0.00035579304123288606
1386.6043302977691,1386.6043302977691,0.9999575482447917,0.00035582596058896475
1386.61127483532,1386.61127483532,0.9995723117747938,0.00035575402095005084
1386.6182193728484,1386.6182193728484,0.9999200635223267,0.0003558331127717201
1386.6251639103768,1386.6251639103768,1.0001160136892344,0.00035590719628394475
1386.6321084479507,1386.6321084479507,1.0006696179739,0.0003559361433571106
1386.6390529854789,1386.6390529854789,1.0000874023411632,0.00035585608216601297
1386.6459975230075,1386.6459975230075,0.9997964174831052,0.0003558089063166798
1386.6529420606043,1386.6529420606043,0.9994951470111608,0.00035573800314441607
1386.6598865981093,1386.6598865981093,0.9997368395701139,0.00035578155693679996
1386.6668311356846,1386.6668311356846,0.9996893893432072,0.0003557418579789944
1386.673775673235,1386.673775673235,0.9999158647994273,0.00035576174118770573
1386.6807202108098,1386.6807202108098,1.0002196341383605,0.0003558311971428148
1386.6876647483614,1386.6876647483614,1.0000770294655412,0.0003558082833228791
1386.6946092859357,1386.6946092859357,1.0011675363750465,0.00035592293727531655
1386.7015538234866,1386.7015538234866,1.0000888394188876,0.00035578862623578177
1386.7084983610614,1386.7084983610614,1.0001946995283508,0.0003558006921406554
1386.7154428986134,1386.7154428986134,1.0001118700157976,0.00035576813850599407
1386.722387436234,1386.722387436234,0.9998419805182177,0.00035572728169047077
1386.7293319737385,1386.7293319737385,0.9997656349592037,0.0003557287215669794
1386.7362765113603,1386.7362765113603,0.9995402274811948,0.00035573196545178457
1386.7432210489578,1386.7432210489578,1.0006914723027491,0.0003558944100650943
1386.7501655864853,1386.7501655864853,1.0002311605872503,0.0003559307191656004
1386.7571101241072,1386.7571101241072,1.0000002299654418,0.00035582456884577964
1386.7640546617283,1386.7640546617283,0.9993355906764858,0.00035571191748185555
1386.7718325437468,1386.7718325437468,1.0000992294638127,0.0003557998948788576
1386.7793326443784,1386.7793326443784,1.0001984318466144,0.00035583022459092633
1386.7862771819996,1386.7862771819996,1.000170647311618,0.0003558376528245117
1386.7932217195735,1386.7932217195735,1.0000483887885054,0.00035581175677228973
1386.8001662571248,1386.8001662571248,1.000380907799677,0.0003558005670007427
1386.8071107947464,1386.8071107947464,0.9998285835644151,0.0003557610324763668
1386.8140553323676,1386.8140553323676,0.9999874088885937,0.0003557860902509935
1386.820999869988,1386.820999869988,0.9999252594768816,0.0003557966812344121
1386.8279444076095,1386.8279444076095,0.9999938411973022,0.0003558262410527193
1386.834888945115,1386.834888945115,0.9997865000304247,0.0003557320107997755
1386.8418334827352,1386.8418334827352,1.0002720094544135,0.0003558670006373222
1386.8487780203566,1386.8487780203566,0.9999690909057293,0.0003558089159195566
1386.8557225579784,1386.8557225579784,1.0001460010199636,0.0003558334011204473
1386.8626670955991,1386.8626670955991,1.0000749261067776,0.0003558176466088
1386.86961163322,1386.86961163322,0.9996638110135503,0.0003557457749424959
1386.8765561708415,1386.8765561708415,0.9999613314994236,0.00035576033066414905
1386.8835007084629,1386.8835007084629,0.9996170771968209,0.00035571602038062856
1386.8904452460831,1386.8904452460831,1.000491967132196,0.00035586624645457207
1386.8973897837045,1386.8973897837045,0.9997606446488841,0.0003557544756591184
1386.9043343213264,1386.9043343213264,1.0000604511646978,0.0003558540192064048
1386.911278858947,1386.911278858947,0.9999288612561216,0.0003557822219857893
1386.9182233965678,1386.9182233965678,1.0002392168550196,0.00035581506520193575
1386.9251679341896,1386.9251679341896,1.0000501382028255,0.0003557772880459772
1386.9321124718106,1386.9321124718106,1.0000695816006413,0.0003558062558716677
1386.939057009431,1386.939057009431,0.9995611915413447,0.00035572722239453087
1386.946001547053,1386.946001547053,1.0003031674913676,0.00035580682716540677
1386.9529460846743,1386.9529460846743,1.0005814848068695,0.00035582174941325084
1386.959890622295,1386.959890622295,1.0002682660695394,0.0003558261695639797
1386.9668351599162,1386.9668351599162,1.000163053743497,0.0003558100044207647
1386.9737796975376,1386.9737796975376,0.999527302012704,0.0003557198274600438
1386.9821131427993,1386.9821131427993,1.0000942766196999,0.0003558121617487712
1386.9890576804198,1386.9890576804198,0.9998013618077083,0.0003557018115358501
1386.9960022180414,1386.9960022180414,1.0000816350013162,0.00035579687905348676
1387.0029467556628,1387.0029467556628,0.9995661666822413,0.0003557257617676302
1387.0098912932835,1387.0098912932835,1.0000506478630717,0.00035577126067018786
1387.0168358309045,1387.0168358309045,1.0002821734164207,0.00035582118221758345
1387.0237803686427,1387.0237803686427,0.9995378820557239,0.0003557392880948418
1387.0307249062637,1387.0307249062637,1.00023528515659,0.0003557836827755148
1387.0376694438844,1387.0376694438844,1.0003433205549543,0.00035574775944622645
1387.0446139815062,1387.0446139815062,0.9999366676261202,0.0003557189023935935
1387.0515585191508,1387.0515585191508,1.0003640783333538,0.000355800926676456
1387.0585030568643,1387.0585030568643,1.000239744793625,0.00035579509817919573
1387.0654475944857,1387.0654475944857,1.0003328848431354,0.00035579215515330086
1387.0723921321073,1387.0723921321073,0.9993781012420977,0.0003556513293319831
1387.0793366697515,1387.0793366697515,0.9995624201587882,0.0003556966949574098
1387.0862812074652,1387.0862812074652,0.9998355293194076,0.000355750165932962
1387.0932257450866,1387.0932257450866,1.000103035907043,0.00035576602738061566
1387.1001702827084,1387.1001702827084,0.9999099846574163,0.00035577231182112173
1387.1071148203987,1387.1071148203987,1.0003207694941112,0.00035578025363618225
1387.1140593580667,1387.1140593580667,0.9996865282673868,0.000355650197761182
1387.121003895688,1387.121003895688,1.00039911371362,0.00035578659470695965
1387.1279484333324,1387.1279484333324,1.0001718160945383,0.0003558173482220923
1387.1348929710462,1387.1348929710462,1.0002968635046812,0.0003557415569208609
1387.1418375086678,1387.1418375086678,0.9990363299538447,0.00035557053126596784
1387.1487820462894,1387.1487820462894,0.9999745952696353,0.000355689844265237
1387.1557265840263,1387.1557265840263,1.000067031610254,0.00035571891130261614
1387.1626711216472,1387.1626711216472,0.9998658245404594,0.0003556766167796109
1387.169615659269,1387.169615659269,1.000622523840172,0.0003558239202128144
1387.176560197007,1387.176560197007,1.0001780317026576,0.0003557098206878078
1387.183504734627,1387.183504734627,1.000348344883482,0.0003557928355462503
1387.190449272272,1387.190449272272,0.999849331008129,0.0003557123517751842
1387.1973938099864,1387.1973938099864,0.9997033668059057,0.0003556922425411749
1387.2043383476073,1387.2043383476073,1.0000017777573136,0.0003557300666464021
1387.2112828852748,1387.2112828852748,0.9992268209287714,0.0003555735709028631
1387.218227422966,1387.218227422966,1.0001459266975377,0.00035574337907820177
1387.2251719605879,1387.2251719605879,1.0006300749332153,0.0003558153108618534
1387.2321164983011,1387.2321164983011,0.9994599969585204,0.00035565653532230947
1387.2390610359457,1387.2390610359457,0.9998568212859011,0.0003557342185087527
1387.246005573591,1387.246005573591,1.000624842701916,0.0003558027279132138
1387.2529501113052,1387.2529501113052,1.0001812732725741,0.0003557431693089434
1387.2598946489256,1387.2598946489256,0.999640387101663,0.0003556127776623419
1387.2668391866168,1387.2668391866168,0.999622074931066,0.00035568246326308324
1387.273783724285,1387.273783724285,1.0000819412962918,0.00035570649013272283
1387.2807282619056,1387.2807282619056,1.0007554562790077,0.0003557789827354378
1387.2876727996431,1387.2876727996431,1.0003580275721737,0.00035577418927858196
1387.2946173372645,1387.2946173372645,0.9997003284181194,0.000355682176941962
1387.301561874956,1387.301561874956,0.9993675745476172,0.00035553713761982787
1387.3101731016518,1387.3101731016518,0.9996023043669038,0.0003556211162235958
1387.3182287653626,1387.3182287653626,1.0001736305819926,0.00035572652077214633
1387.325173303031,1387.325173303031,1.00049600887085,0.00035577199854327823
1387.3335067481987,1387.3335067481987,0.9999355403685385,0.00035567981229258207
1387.3404512859133,1387.3404512859133,0.9998715557668015,0.0003556832187477014
1387.3482291680498,1387.3482291680498,1.0001730158335083,0.00035575449212819427
1387.3557292687963,1387.3557292687963,1.0000159944822924,0.00035571967367197503
1387.3626738064172,1387.3626738064172,1.0000211829106271,0.00035571401039825444
1387.3696183441089,1387.3696183441089,0.9999346683310522,0.0003556370570628654
1387.3765628817769,1387.3765628817769,1.000048595154171,0.0003556661374530815
1387.3835074194203,1387.3835074194203,1.0000084826015359,0.0003556429164005346
1387.3904519571352,1387.3904519571352,0.9993822592647336,0.000355601265696744
1387.3973964947565,1387.3973964947565,1.0005320015885433,0.0003558033908310499
1387.4043410324473,1387.4043410324473,1.0000781062434239,0.00035569812499395474
1387.4112855701146,1387.4112855701146,0.9994672781137977,0.00035557885585558476
1387.4182301077592,1387.4182301077592,1.0000046803283695,0.00035564206477277
1387.4251746454743,1387.4251746454743,1.000468013351537,0.000355708688770118
1387.4321191830945,1387.4321191830945,1.0000028233060365,0.00035566545872330426
1387.4390637207857,1387.4390637207857,1.000471858400586,0.00035571944863906806
1387.446008258454,1387.446008258454,1.0000764731926353,0.000355718805878031
1387.4529527960747,1387.4529527960747,0.9993543331214042,0.000355587560984425
1387.459897333812,1387.459897333812,0.9996925927491809,0.0003556544732878031
1387.4668418714336,1387.4668418714336,1.0001252444323552,0.000355718486181828
1387.4737864091016,1387.4737864091016,1.000010823426488,0.0003556691765338302
1387.4807309467922,1387.4807309467922,1.0001245400498313,0.00035570916268991726
1387.487675484413,1387.487675484413,1.0002182531036687,0.0003556625529559336
1387.494620022128,1387.494620022128,1.0001924833297955,0.00035570345497190517
1387.5015645597728,1387.5015645597728,0.999840189112926,0.0003556187411544534
1387.508509097393,1387.508509097393,0.9995814523064741,0.00035558436543600447
1387.5154536351306,1387.5154536351306,1.000047401436829,0.00035561582172889195
1387.5223981727522,1387.5223981727522,0.9998514873496221,0.0003556161705534061
1387.529342710397,1387.529342710397,1.0001280526202678,0.00035567998224126274
1387.5362872481105,1387.5362872481105,1.0000733899173673,0.0003556593181858243
1387.543231785732,1387.543231785732,1.0002397828712064,0.00035571808493609433
1387.5501763234001,1387.5501763234001,1.0002605807810712,0.0003556849586898345
1387.557120861091,1387.557120861091,1.0001684930887542,0.00035565905505909615
1387.5640653987116,1387.5640653987116,1.0002877496723526,0.0003556539858335514
1387.5710099363564,1387.5710099363564,0.9991750755100538,0.00035552611705846546
1387.5779544740712,1387.5779544740712,0.9998216635174554,0.00035553247223755064
1387.5848990116917,1387.5848990116917,0.9997484170842054,0.00035559243499977167
1387.5918435493127,1387.5918435493127,0.999953973419559,0.0003556609533768603
1387.5987880870507,1387.5987880870507,1.0002870110047595,0.00035569286630532973
1387.6057326246719,1387.6057326246719,0.9998928864857749,0.0003556206660769689
1387.6126771622926,1387.6126771622926,0.9999620335542412,0.0003556269708763536
1387.6196216999838,1387.6196216999838,1.00050190081753,0.0003556542193272021
1387.6265662376522,1387.6265662376522,1.0000979434205008,0.00035561874477285616
1387.6335107752734,1387.6335107752734,1.0003511113798422,0.0003557016878102964
1387.6404553128937,1387.6404553128937,1.0000342149873276,0.00035568053707505054
1387.6473998505853,1387.6473998505853,0.999474049050899,0.0003556177369377173
1387.6543443882533,1387.6543443882533,0.9997179624117507,0.00035563464965703386
1387.6612889258738,1387.6612889258738,0.9997175999594304,0.00035564124370037907
1387.6682334634952,1387.6682334634952,1.0003241672854415,0.0003557160087000112
1387.6751780011398,1387.6751780011398,1.0000683400702615,0.00035563647961220455
1387.6821225388544,1387.6821225388544,0.9997659561351451,0.00035558344356946466
1387.6890670764747,1387.6890670764747,1.0000218923273123,0.00035561618920910206
1387.6960116140958,1387.6960116140958,1.0001991865913489,0.0003556582620900564
1387.7029561517177,1387.7029561517177,0.9998424285304605,0.00035558256295246547
1387.709900689339,1387.709900689339,1.000158303155633,0.00035560081414687223
1387.7168452270757,1387.7168452270757,1.0007493111617436,0.0003557051286319064
