time,time,flux,flux_err
1354.1125412395368,1354.1125412395368,0.9992375,0.00096208416
1354.1139301490402,1354.1139301490402,0.9991321,0.0009620999
1354.116707968511,1354.116707968511,1.0013049,0.0009625639
1354.1180968782473,1354.1180968782473,1.0009332,0.00096240744
1354.1194857877504,1354.1194857877504,0.9986153,0.0009615011
1354.120874697486,1354.120874697486,1.0013862,0.0009622592
1354.1222636072216,1354.1222636072216,0.99824107,0.00096145266
1354.123652516958,1354.123652516958,1.0007706,0.00096219935
1354.1250414264616,1354.1250414264616,1.0001681,0.00096225477
1354.1264303361972,1354.1264303361972,0.9999674,0.00096240506
1354.127819245933,1354.127819245933,0.99855554,0.0009615289
1354.1292081556685,1354.1292081556685,0.99938905,0.00096181675
1354.1305970651715,1354.1305970651715,1.0010066,0.00096268236
1354.1319859749078,1354.1319859749078,1.0004904,0.00096211635
1354.1333748846437,1354.1333748846437,1.0003077,0.0009626454
1354.1347637941462,1354.1347637941462,1.0001204,0.00096222374
1354.1361527038828,1354.1361527038828,1.000153,0.0009619156
1354.1375416136184,1354.1375416136184,0.99986,0.0009623229
1354.1389305231219,1354.1389305231219,0.99920917,0.00096167787
1354.1403194328577,1354.1403194328577,1.0011306,0.0009626506
1354.1417083425927,1354.1417083425927,0.99953854,0.0009619551
1354.1430972520961,1354.1430972520961,1.000093,0.00096177164
1354.1444861618324,1354.1444861618324,1.0018599,0.00096304616
1354.1458750715683,1354.1458750715683,1.0007141,0.00096208754
1354.147263981071,1354.147263981071,0.9993263,0.00096248067
1354.1486528908067,1354.1486528908067,1.0008103,0.0009623174
1354.1500418003102,1354.1500418003102,1.0004262,0.0009624243
1354.1514307100467,1354.1514307100467,1.0006533,0.00096246507
1354.152819619782,1354.152819619782,0.99867135,0.0009616405
1354.1542085292845,1354.1542085292845,1.0007845,0.0009627843
1354.1555974390208,1354.1555974390208,1.0005642,0.00096198666
1354.1569863485245,1354.1569863485245,1.0000142,0.00096200214
1354.15837525826,1354.15837525826,1.0005298,0.0009625056
1354.159764167995,1354.159764167995,0.99915045,0.0009618733
1354.1611530774985,1354.1611530774985,0.99847114,0.0009618384
1354.162541987235,1354.162541987235,1.0008191,0.00096248445
1354.1639308967378,1354.1639308967378,0.9989061,0.0009618296
1354.1653198064737,1354.1653198064737,1.0003198,0.00096260814
1354.1667087159763,1354.1667087159763,1.0004071,0.0009624101
1354.1680976257128,1354.1680976257128,0.999489,0.0009619353
1354.1694865352165,1354.1694865352165,1.0007035,0.0009626183
1354.1708754449514,1354.1708754449514,0.9987573,0.00096146844
1354.1722643544542,1354.1722643544542,0.9989759,0.00096212816
1354.1736532641908,1354.1736532641908,1.0009263,0.00096280524
1354.1750421736933,1354.1750421736933,0.998164,0.0009614558
1354.1764310834296,1354.1764310834296,1.000761,0.00096226425
1354.1778199929327,1354.1778199929327,0.99884486,0.000962069
1354.1792089026685,1354.1792089026685,1.0004042,0.000962329
1354.180597812172,1354.180597812172,1.0013742,0.0009624243
1354.1819867219074,1354.1819867219074,0.9998417,0.00096158864
1354.183375631411,1354.183375631411,0.99939007,0.00096210954
1354.1847645411467,1354.1847645411467,0.99762,0.0009616578
1354.1861534506488,1354.1861534506488,0.99830556,0.0009619105
1354.1875423603854,1354.1875423603854,0.99997514,0.0009618052
1354.188931269889,1354.188931269889,0.9998983,0.00096254743
1354.1903201793916,1354.1903201793916,1.0000703,0.00096197403
1354.1917090891275,1354.1917090891275,1.0002128,0.00096209446
1354.1930979986303,1354.1930979986303,0.99974734,0.0009622662
1354.1944869083668,1354.1944869083668,0.9996582,0.0009622587
1354.1958758178703,1354.1958758178703,0.99972075,0.0009619888
1354.1972647273724,1354.1972647273724,0.9992875,0.00096199923
1354.198653637108,1354.198653637108,0.9997449,0.0009621618
1354.2000425466117,1354.2000425466117,0.9977248,0.00096192927
1354.2014314561152,1354.2014314561152,0.9989457,0.00096166536
1354.2028203658506,1354.2028203658506,1.0001473,0.0009622841
1354.204209275353,1354.204209275353,1.0012468,0.00096284813
1354.2055981848566,1354.2055981848566,0.9996155,0.0009619805
1354.206987094593,1354.206987094593,0.9994519,0.0009620756
1354.2083760040955,1354.2083760040955,0.99947983,0.00096203294
1354.2097649135985,1354.2097649135985,0.99870867,0.00096198445
1354.2111538233344,1354.2111538233344,0.9993068,0.0009619533
1354.2125427328378,1354.2125427328378,0.99974304,0.0009618392
1354.2139316423413,1354.2139316423413,1.0006168,0.00096236746
1354.2153205520763,1354.2153205520763,1.0006248,0.0009622739
1354.2167094615793,1354.2167094615793,1.0026859,0.00096311845
1354.2180983710828,1354.2180983710828,1.0000662,0.00096242933
1354.2194872805856,1354.2194872805856,0.9999313,0.0009616305
1354.220876190322,1354.220876190322,0.99886566,0.000961767
1354.2222650998247,1354.2222650998247,0.99904335,0.00096202944
1354.2236540093277,1354.2236540093277,0.9988142,0.00096176506
1354.2250429188312,1354.2250429188312,0.99952215,0.00096186
1354.226431828567,1354.226431828567,0.99911374,0.0009622953
1354.2278207380696,1354.2278207380696,0.99835294,0.00096157275
1354.2292096475726,1354.2292096475726,1.0005226,0.0009627238
1354.2305985570754,1354.2305985570754,1.0001465,0.0009620492
1354.231987466812,1354.231987466812,1.0029837,0.0009629066
1354.2333763763154,1354.2333763763154,0.9998073,0.00096191326
1354.2347652858182,1354.2347652858182,1.0008422,0.0009623754
1354.236154195321,1354.236154195321,0.9976699,0.00096150243
1354.237543104824,1354.237543104824,1.0003808,0.00096230337
1354.2389320145603,1354.2389320145603,0.9984058,0.00096172874
1354.2403209240638,1354.2403209240638,0.9992592,0.0009616002
1354.241709833566,1354.241709833566,0.998448,0.00096192723
1354.243098743069,1354.243098743069,0.9988621,0.00096194516
1354.2444876525724,1354.2444876525724,1.000638,0.0009628875
1354.2458765620759,1354.2458765620759,1.000739,0.0009627
1354.2472654715789,1354.2472654715789,0.9981088,0.0009618312
1354.248654381081,1354.248654381081,0.99945927,0.00096203893
1354.2500432908173,1354.2500432908173,0.99998033,0.00096189865
1354.2514322003208,1354.2514322003208,1.0003169,0.00096200046
1354.2528211098238,1354.2528211098238,0.9996343,0.0009623852
1354.2542100193264,1354.2542100193264,0.99867815,0.00096204365
1354.2555989288294,1354.2555989288294,1.00042,0.0009621971
1354.2569878383329,1354.2569878383329,0.9997011,0.00096199143
1354.2583767478363,1354.2583767478363,1.000259,0.00096264516
1354.2597656573384,1354.2597656573384,1.0001429,0.0009620017
1354.2611545668415,1354.2611545668415,1.0000412,0.00096185785
1354.262543476345,1354.262543476345,0.999124,0.00096204074
1354.263932385848,1354.263932385848,0.9993754,0.0009614446
1354.2653212953514,1354.2653212953514,0.99879795,0.0009619181
1354.2667102048542,1354.2667102048542,0.99781996,0.0009617677
1354.268099114357,1354.268099114357,0.9982212,0.00096192304
1354.2694880238605,1354.2694880238605,0.99770015,0.0009614837
1354.2708769333635,1354.2708769333635,0.9972879,0.0009612805
1354.2722658428665,1354.2722658428665,0.9987031,0.0009615991
1354.273654752369,1354.273654752369,1.0001534,0.00096252677
1354.2750436618721,1354.2750436618721,1.0004759,0.0009624118
1354.2764325713756,1354.2764325713756,0.9991832,0.0009619084
1354.277821480879,1354.277821480879,1.0005009,0.0009627135
1354.279210390382,1354.279210390382,1.0003538,0.00096243515
1354.2805992998847,1354.2805992998847,1.0011712,0.0009623799
1354.2819882093877,1354.2819882093877,1.001265,0.0009628794
1354.2833771188912,1354.2833771188912,0.9983015,0.0009613543
1354.2847660283942,1354.2847660283942,1.0000637,0.00096250646
1354.2861549378963,1354.2861549378963,0.99975705,0.00096226414
1354.2875438473998,1354.2875438473998,0.9997535,0.00096165057
1354.2889327569033,1354.2889327569033,1.0000646,0.00096189213
1354.2903216664067,1354.2903216664067,0.99986947,0.00096181035
1354.2917105759097,1354.2917105759097,0.9985049,0.00096135767
1354.293099485179,1354.293099485179,0.99999595,0.00096175086
1354.2944883946825,1354.2944883946825,0.9982174,0.0009614028
1354.295877304186,1354.295877304186,0.9996972,0.000962285
1354.2972662136883,1354.2972662136883,0.99971,0.0009618028
1354.298655123191,1354.298655123191,1.0023513,0.00096296286
1354.3000440326946,1354.3000440326946,0.99999374,0.00096184044
1354.301432942198,1354.301432942198,0.9987397,0.0009615873
1354.302821851469,1354.302821851469,0.9980831,0.00096157397
1354.3042107609713,1354.3042107609713,0.9992846,0.00096222194
1354.3055996704738,1354.3055996704738,0.9983473,0.0009618414
1354.3069885799773,1354.3069885799773,0.99840087,0.00096195
1354.3083774894803,1354.3083774894803,0.99947095,0.0009619823
1354.309766398751,1354.309766398751,0.9996311,0.00096212997
1354.311155308254,1354.311155308254,1.0006561,0.00096254156
1354.3125442177568,1354.3125442177568,0.9993015,0.00096216146
1354.3139331272605,1354.3139331272605,1.0006309,0.00096253084
1354.315322036763,1354.315322036763,1.0010935,0.0009624004
1354.3167109460333,1354.3167109460333,1.0005591,0.0009625199
1354.318099855536,1354.318099855536,0.9996534,0.00096237066
1354.3194887650388,1354.3194887650388,0.9991396,0.000961775
1354.3208776745423,1354.3208776745423,0.99949694,0.00096212345
1354.322266583813,1354.322266583813,1.0007724,0.0009623974
1354.323655493316,1354.323655493316,0.99929005,0.00096188526
1354.325044402819,1354.325044402819,0.9997643,0.00096236204
1354.3264333120887,1354.3264333120887,0.9989595,0.00096173846
1354.3278222215922,1354.3278222215922,0.99873406,0.0009620151
1354.3292111310952,1354.3292111310952,0.99898314,0.0009621426
1354.3306000403645,1354.3306000403645,1.0008258,0.00096270844
1354.331988949868,1354.331988949868,0.99854577,0.00096198375
1354.3333778593717,1354.3333778593717,1.0000514,0.00096234196
1354.3347667686426,1354.3347667686426,0.99990076,0.0009620309
1354.3361556781451,1354.3361556781451,1.0005177,0.000962195
1354.3375445876472,1354.3375445876472,1.0017529,0.00096261955
1354.3389334969181,1354.3389334969181,1.0004178,0.0009624037
1354.3403224064218,1354.3403224064218,0.9988995,0.0009613697
1354.341711315924,1354.341711315924,1.0003114,0.0009623545
1354.3431002251937,1354.3431002251937,0.9990167,0.0009615979
1354.3444891346974,1354.3444891346974,1.0001885,0.0009624072
1354.3458780439682,1354.3458780439682,1.0006247,0.00096247037
1354.3472669534717,1354.3472669534717,0.99961066,0.0009618806
1354.3486558629738,1354.3486558629738,0.99855894,0.0009618885
1354.3500447722438,1354.3500447722438,0.99969625,0.0009622105
1354.3514336817475,1354.3514336817475,0.9973803,0.0009616388
1354.3528225910172,1354.3528225910172,1.0015997,0.0009630263
1354.3542115005203,1354.3542115005203,0.99851465,0.00096169265
1354.3556004097902,1354.3556004097902,0.9995715,0.00096227555
1354.356989319294,1354.356989319294,0.9998878,0.0009624063
1354.3583782285646,1354.3583782285646,1.00062,0.00096213596
1354.3597671380674,1354.3597671380674,0.99929905,0.00096169004
1354.3611560473373,1354.3611560473373,1.001648,0.000962824
1354.3625449568403,1354.3625449568403,1.0007335,0.0009624785
1354.36393386611,1354.36393386611,1.0005884,0.00096238736
1354.3653227756138,1354.3653227756138,1.0004073,0.0009625917
1354.3667116848846,1354.3667116848846,0.9994031,0.0009621785
1354.3681005943872,1354.3681005943872,0.99893475,0.0009618401
1354.3694895036574,1354.3694895036574,1.0015082,0.0009630167
1354.3708784131602,1354.3708784131602,1.0009946,0.0009627106
1354.372267322431,1354.372267322431,1.0005058,0.0009621636
1354.3736562319336,1354.3736562319336,0.99968,0.0009621003
1354.375045141203,1354.375045141203,0.9974739,0.0009612652
1354.3764340507066,1354.3764340507066,1.0019238,0.00096338836
1354.3778229599775,1354.3778229599775,0.99890804,0.000961428
1354.3792118692481,1354.3792118692481,1.0001624,0.0009625284
1354.380600778751,1354.380600778751,0.9992082,0.000961993
1354.3819896880204,1354.3819896880204,1.0005462,0.0009619502
1354.383378597524,1354.383378597524,0.9999533,0.0009622031
1354.3847675067946,1354.3847675067946,1.0007169,0.00096259324
1354.3861564160638,1354.3861564160638,0.99840814,0.0009614715
1354.3875453255669,1354.3875453255669,1.0004599,0.00096247817
1354.3889342348375,1354.3889342348375,0.9996497,0.0009623606
1354.3903231441082,1354.3903231441082,0.999046,0.0009621653
1354.3917120536116,1354.3917120536116,0.99949664,0.0009621669
1354.393100962881,1354.393100962881,0.9999589,0.0009621312
1354.394489872151,1354.394489872151,0.9993173,0.00096215244
1354.3958787816546,1354.3958787816546,0.99851894,0.00096169446
1354.3972676909248,1354.3972676909248,0.99963987,0.0009621778
1354.3986566001945,1354.3986566001945,1.0008543,0.00096249994
1354.4000455096975,1354.4000455096975,1.0002724,0.00096248323
1354.4014344189682,1354.4014344189682,0.9995672,0.0009620563
1354.4028233282388,1354.4028233282388,0.9983418,0.0009612925
1354.4042122377418,1354.4042122377418,0.99928993,0.000962065
1354.4056011470116,1354.4056011470116,0.99877465,0.00096197956
1354.4069900562818,1354.4069900562818,1.0011379,0.00096244883
1354.408378965552,1354.408378965552,0.99887156,0.00096173224
1354.4097678750554,1354.4097678750554,1.0002648,0.0009623027
1354.411156784326,1354.411156784326,0.9995091,0.00096223457
1354.412545693596,1354.412545693596,1.0007607,0.00096233014
1354.413934602866,1354.413934602866,1.000402,0.00096223026
1354.4153235121362,1354.4153235121362,0.99953693,0.0009618278
1354.4167124216397,1354.4167124216397,0.99934804,0.00096221594
1354.4181013309098,1354.4181013309098,1.0001434,0.0009622718
1354.4194902401791,1354.4194902401791,0.999591,0.0009618575
1354.4208791494498,1354.4208791494498,0.9991646,0.0009621538
1354.4222680587204,1354.4222680587204,1.0000412,0.0009621443
1354.423656967991,1354.423656967991,0.9994645,0.000961958
1354.425045877494,1354.425045877494,0.9997701,0.00096206524
1354.4264347867634,1354.4264347867634,0.9999382,0.00096232136
1354.427823696034,1354.427823696034,0.99783254,0.00096136465
1354.4292126053047,1354.4292126053047,1.0009685,0.0009626235
1354.430601514574,1354.430601514574,1.0007943,0.00096246065
1354.4319904238441,1354.4319904238441,0.99954814,0.00096158637
1354.4333793331148,1354.4333793331148,1.0011878,0.0009627315
1354.4347682423854,1354.4347682423854,0.9988971,0.00096198835
1354.436157151889,1354.436157151889,1.0001831,0.00096220453
1354.4375460611582,1354.4375460611582,0.99918175,0.0009618925
1354.4389349704284,1354.4389349704284,1.001203,0.00096270436
1354.440323879699,1354.440323879699,0.99999213,0.00096217147
1354.4417127889692,1354.4417127889692,0.9997895,0.0009620851
1354.4431016982392,1354.4431016982392,0.9999926,0.00096211047
1354.4444906075091,1354.4444906075091,0.99959713,0.0009613501
1354.4458795167798,1354.4458795167798,1.0003006,0.0009622866
1354.4472684260504,1354.4472684260504,0.9999517,0.0009624048
1354.4486573353206,1354.4486573353206,0.9987497,0.00096166646
1354.4500462445908,1354.4500462445908,0.99868554,0.0009615456
1354.4514351538605,1354.4514351538605,1.00038,0.00096258015
1354.4528240631307,1354.4528240631307,0.99778724,0.00096151326
1354.4542129724014,1354.4542129724014,0.998903,0.00096172537
1354.455601881672,1354.455601881672,0.9989469,0.00096185534
1354.4569907909422,1354.4569907909422,0.9977601,0.0009613491
1354.4583797002122,1354.4583797002122,1.0007234,0.00096238777
1354.4597686094821,1354.4597686094821,0.9989989,0.0009620672
1354.4611575187528,1354.4611575187528,0.9991604,0.00096197653
1354.462546428023,1354.462546428023,1.0007775,0.0009624018
1354.4639353372922,1354.4639353372922,0.99897254,0.00096139987
1354.465324246563,1354.465324246563,0.99881136,0.0009617772
1354.4667131558335,1354.4667131558335,1.0002162,0.000962483
1354.4681020648713,1354.4681020648713,0.99728143,0.00096089166
1354.4694909741415,1354.4694909741415,1.0,0.00096235226
1354.4708798834108,1354.4708798834108,0.9987596,0.0009617318
1354.4722687926815,1354.4722687926815,1.0010465,0.0009621698
1354.473657701952,1354.473657701952,0.99993116,0.0009622567
1354.4750466112216,1354.4750466112216,1.0015658,0.0009622973
1354.4764355204916,1354.4764355204916,1.000168,0.0009623014
1354.4778244297622,1354.4778244297622,0.9993253,0.00096211804
1354.4792133388003,1354.4792133388003,0.998057,0.0009612544
1354.4806022480711,1354.4806022480711,0.9980922,0.0009612623
1354.4819911573404,1354.4819911573404,0.99865353,0.00096130406
1354.4833800666102,1354.4833800666102,1.0001352,0.0009622928
1354.484768975881,1354.484768975881,0.9996356,0.00096204603
1354.486157885151,1354.486157885151,1.0014412,0.00096270617
1354.4875467941883,1354.4875467941883,1.0000749,0.0009624664
1354.488935703458,1354.488935703458,0.9988483,0.0009615283
1354.490324612729,1354.490324612729,1.0008258,0.0009624505
1354.4917135219998,1354.4917135219998,0.99911994,0.00096180604
1354.4931024310367,1354.4931024310367,0.9983574,0.00096185255
1354.494491340307,1354.494491340307,0.99947673,0.0009619211
1354.4958802495769,1354.4958802495769,1.000748,0.00096209376
1354.4972691588468,1354.4972691588468,1.0008695,0.0009628094
1354.4986580678847,1354.4986580678847,0.9983036,0.0009616823
1354.5000469771555,1354.5000469771555,0.99932504,0.0009619833
1354.5014358864255,1354.5014358864255,0.9992387,0.0009617045
1354.5028247956957,1354.5028247956957,0.99900234,0.00096171343
1354.5042137047326,1354.5042137047326,0.9983313,0.0009615585
1354.5056026140035,1354.5056026140035,0.99993193,0.00096209184
1354.5069915232734,1354.5069915232734,0.9995002,0.0009620677
1354.5083804323099,1354.5083804323099,0.9991189,0.0009620007
1354.5097693415805,1354.5097693415805,0.9983155,0.0009612925
1354.5111582508514,1354.5111582508514,0.9993419,0.00096211035
1354.5125471598894,1354.5125471598894,0.9999264,0.0009619175
1354.5139360691592,1354.5139360691592,0.99928576,0.00096211204
1354.5153249784285,1354.5153249784285,0.9974111,0.00096147694
1354.5167138874665,1354.5167138874665,1.0001744,0.0009622806
1354.5181027967374,1354.5181027967374,1.0014282,0.00096258085
1354.5194917057738,1354.5194917057738,0.9996117,0.0009624141
1354.5208806150438,1354.5208806150438,0.9988027,0.00096154393
1354.5222695243147,1354.5222695243147,1.0005461,0.00096235203
1354.5236584333525,1354.5236584333525,0.9999822,0.0009618936
1354.525047342623,1354.525047342623,0.99930215,0.00096206396
1354.5264362516596,1354.5264362516596,0.998517,0.0009615092
1354.5278251609298,1354.5278251609298,1.0010669,0.0009621564
1354.5292140699676,1354.5292140699676,1.0027586,0.00096315535
1354.5306029792373,1354.5306029792373,0.9996503,0.0009614897
1354.5319918882747,1354.5319918882747,0.99961203,0.0009615728
1354.5333807975449,1354.5333807975449,1.0010283,0.00096272235
1354.5347697068155,1354.5347697068155,0.9994201,0.0009613798
1354.5361586158533,1354.5361586158533,0.9992451,0.00096126687
1354.5375475251235,1354.5375475251235,1.0000374,0.000962109
1354.5389364341604,1354.5389364341604,0.9997076,0.000962182
1354.5403253434306,1354.5403253434306,0.99966323,0.0009623151
1354.5417142524677,1354.5417142524677,0.9996693,0.0009620376
1354.5431031615058,1354.5431031615058,1.0019962,0.00096299686
1354.5444920707764,1354.5444920707764,0.9988985,0.00096188334
1354.5458809798133,1354.5458809798133,0.99883044,0.00096191437
1354.5472698890835,1354.5472698890835,0.99889016,0.0009612112
1354.5486587981209,1354.5486587981209,0.9993247,0.00096212706
1354.5500477073915,1354.5500477073915,0.9999189,0.00096203777
1354.5514366164284,1354.5514366164284,1.0008479,0.0009615718
1354.552825525698,1354.552825525698,1.0010792,0.00096247543
1354.554214434736,1354.554214434736,1.0008668,0.00096281426
1354.5556033437738,1354.5556033437738,0.9983143,0.00096148404
1354.5569922530444,1354.5569922530444,0.9991193,0.0009617297
1354.5583811620818,1354.5583811620818,0.9985426,0.0009616181
1354.5597700711182,1354.5597700711182,0.9996592,0.0009619815
1354.5611589803889,1354.5611589803889,1.0019864,0.0009631033
1354.5625478894267,1354.5625478894267,0.99990815,0.00096230104
1354.563936798696,1354.563936798696,1.0019249,0.00096281234
1354.5653257077333,1354.5653257077333,1.0018766,0.0009625374
1354.5667146167712,1354.5667146167712,1.0009463,0.0009624759
