time,time,flux,flux_err
1354.119573862347,1354.119573862347,0.9999294897518763,0.00042752850486208404
1354.1283702462035,1354.1283702462035,1.0002175749424371,0.0004275389436927811
1354.1360092106584,1354.1360092106584,0.9997647231901283,0.00039021247395366833
1354.142953723622,1354.142953723622,0.9999655532444521,0.00039017680596490197
1354.1498982363057,1354.1498982363057,1.0005948226697525,0.0003902773734019565
1354.156842748524,1354.156842748524,0.9994819408269819,0.00039009381592861216
1354.1637872606489,1354.1637872606489,0.9999175236209213,0.0003901751419111765
1354.1707317724947,1354.1707317724947,0.9998421220983328,0.0003901021537673807
1354.1776762840607,1354.1776762840607,1.0005251641596398,0.0003902291367975865
1354.184620795348,1354.184620795348,0.9998754050782207,0.00039013327738600606
1354.1915653064484,1354.1915653064484,1.0002831357496702,0.0003902102358154948
1354.1985098171765,1354.1985098171765,1.0002198600750543,0.0003902659215313166
1354.2054543278116,1354.2054543278116,0.9993448028667448,0.00039003613367212406
1354.212398838074,1354.212398838074,0.999943461405118,0.0003901919918601568
1354.219343348057,1354.219343348057,1.000327271146437,0.00039021030815487455
1354.2262878578538,1354.2262878578538,0.999971886639441,0.00039020209636143676
1354.2332323673709,1354.2332323673709,1.0001682818962276,0.0003902560830954301
1354.2401768767022,1354.2401768767022,0.9991337975257701,0.0003901329436929014
1354.2471213857539,1354.2471213857539,0.9999964416719738,0.00039022763318919546
1354.2540658945263,1354.2540658945263,1.000385163596127,0.00039029099912795784
1354.2610104031123,1354.2610104031123,1.0004050206351311,0.0003902972675492878
1354.267954911326,1354.267954911326,1.0003226688572195,0.00039028181221882814
1354.2748994192598,1354.2748994192598,0.9998766457157876,0.0003902387746154771
1354.2818439271941,1354.2818439271941,0.9996362598935828,0.00039021116823316536
1354.2887884349418,1354.2887884349418,0.9999667798603935,0.00039024508168938497
1354.2957329423175,1354.2957329423175,0.9998606429060801,0.0003902198425004987
1354.302677449413,1354.302677449413,1.0000765080595817,0.0003902101988416557
1354.3096219563226,1354.3096219563226,0.999724358373598,0.00039017117879984724
1354.3165664630465,1354.3165664630465,1.0002051715985183,0.00039023102276843953
1354.3235109694901,1354.3235109694901,1.0002603058243653,0.0003902639483652066
1354.3304554757478,1354.3304554757478,1.000278916396574,0.00039021551819484697
1354.3373999818195,1354.3373999818195,0.9997963709306017,0.00039016619697325374
1354.3443444874251,1354.3443444874251,0.9993517814483732,0.0003900705284288009
1354.3512889930314,1354.3512889930314,0.9999673693281664,0.0003901475865413573
1354.3582334985435,1354.3582334985435,1.000168538232599,0.00039016687613487516
1354.3651780035907,1354.3651780035907,1.0001482911081279,0.00039017971450821295
1354.3721225086379,1354.3721225086379,1.0001691354800593,0.0003901875341760181
1354.379067013219,1354.379067013219,1.0002344835882235,0.00039015102892475385
1354.3860115177074,1354.3860115177074,0.999688002122568,0.00039006317259822386
1354.3929560220095,1354.3929560220095,0.9997856733172013,0.0003901392416819589
1354.3999005260316,1354.3999005260316,1.000546269549597,0.00039013931172933615
1354.4068450299615,1354.4068450299615,0.9999100103848241,0.00039008265863233464
1354.4137895337046,1354.4137895337046,0.9995609737151738,0.0003900481819471812
1354.4207340369821,1354.4207340369821,1.0002460159807611,0.0003901234369019384
1354.4276785402599,1354.4276785402599,1.000006279788876,0.000390097346066935
1354.434623043444,1354.434623043444,1.000553202111837,0.0003901758407050457
1354.4415675461628,1354.4415675461628,0.9999188794454295,0.0003901519766576849
1354.4485120488812,1354.4485120488812,0.9995779388676518,0.0003901051284766758
1354.4554565513206,1354.4554565513206,0.9997924344790226,0.00039014342420276576
1354.4624010534808,1354.4624010534808,0.9998669093070222,0.00039017349050119983
1354.4693455556405,1354.4693455556405,0.9999697831831525,0.0003902004473104018
1354.4762900574276,1354.4762900574276,1.0005081964289924,0.0003902950828267508
1354.4832345592154,1354.4832345592154,0.9999254081512937,0.0003901368665566935
1354.4901790606298,1354.4901790606298,0.999797720202159,0.00039012406007730906
1354.4971235618589,1354.4971235618589,0.9996965840139348,0.0003901139258660291
1354.5040680628083,1354.5040680628083,1.000173009973349,0.00039013005455077376
1354.511012563757,1354.511012563757,0.9998513107020477,0.00039005805137332615
1354.5179570646135,1354.5179570646135,0.9998347322044252,0.000390158744643147
1354.5249015650968,1354.5249015650968,1.0006949793091373,0.0003901766194480664
1354.5318460654871,1354.5318460654871,1.0004838733391785,0.0003902452239657924
1354.5387905656917,1354.5387905656917,0.9999633200437869,0.00039010114197613203
1354.5457350656166,1354.5457350656166,0.9993207218588237,0.00039002966374118936
1354.5526795653545,1354.5526795653545,1.0004115525432336,0.00039024566541479824
1354.5596240650934,1354.5596240650934,0.9997454571658789,0.0003901258300170511
1354.5665685645522,1354.5665685645522,0.9997636946899344,0.00039013367966224746
1354.5735130637322,1354.5735130637322,1.0005488750733957,0.000390248595046592
1354.5804575629115,1354.5804575629115,0.9998826217366249,0.00039014680741610713
1354.5874020617189,1354.5874020617189,1.0005325828743306,0.00039026205945050485
1354.5943465607124,1354.5943465607124,0.9997697124281828,0.00039018968317293623
1354.6012910591467,1354.6012910591467,1.0001580761294553,0.0003902347252275122
1354.6082355574883,1354.6082355574883,0.9997278103529794,0.0003901542684725012
1354.6151800557368,1354.6151800557368,0.9997191870280115,0.0003901326847300595
1354.6221245537986,1354.6221245537986,1.0000507087775259,0.00039013795807352485
1354.6290690516748,1354.6290690516748,1.0001097461424653,0.00039015736980335924
1354.6360135494574,1354.6360135494574,0.9997376802641071,0.0003900956122562339
1354.6429580469608,1354.6429580469608,1.0008774541173016,0.0003902920190085558
1354.6499025443711,1354.6499025443711,1.0000403473458603,0.0003901503671709924
1354.6568470415948,1354.6568470415948,1.000413499603947,0.00039022358250410895
1354.6637915387257,1354.6637915387257,1.000104276675456,0.0003901390404666823
1354.6707360355772,1354.6707360355772,0.999630585696116,0.00039007855795208436
1354.6776805323352,1354.6776805323352,1.0002251505380966,0.00039016538615899594
1354.6846250288143,1354.6846250288143,0.9998843282740353,0.0003901391887517824
1354.6915695251068,1354.6915695251068,1.0000276156247494,0.00039018471395594657
1354.698514021399,1354.698514021399,0.9996091095405811,0.0003901518815115104
1354.705458517692,1354.705458517692,0.999937399021604,0.00039013222320684554
1354.7124030136122,1354.7124030136122,0.9995920379877156,0.00039013053412466326
1354.7193475094389,1354.7193475094389,1.0005417801035392,0.0003902168733393842
1354.7262920049866,1354.7262920049866,1.0001385022325462,0.0003901978987931761
1354.7332365005338,1354.7332365005338,0.9995027144007222,0.0003901061993372407
1354.7401809958953,1354.7401809958953,1.0001607453499397,0.0003901762596136872
1354.7471254911636,1354.7471254911636,1.000396106168053,0.0003902116827139002
1354.754069986059,1354.754069986059,1.0000377505575888,0.00039009783394712815
1354.7610144809546,1354.7610144809546,1.0000395770162014,0.00039009658447278466
1354.767958975664,1354.767958975664,1.0000900050435084,0.0003901430785575754
1354.7749034702804,1354.7749034702804,0.9992875975167517,0.00038999847019639155
1354.78184796471,1354.78184796471,1.000333172833388,0.00039022778869255906
1354.788792458954,1354.788792458954,1.000383612046458,0.0003901940052286219
1354.7957369531978,1354.7957369531978,1.0003492639102693,0.0003901907664662564
1354.8026814471618,1354.8026814471618,0.9994418192307248,0.00039006103460905616
1354.8096259411261,1354.8096259411261,1.0000299104648915,0.00039012209129621166
1354.8165704346247,1354.8165704346247,1.0000771905167714,0.00039022113487833046
1354.8235149282166,1354.8235149282166,0.9994553495831019,0.0003900630999635013
1354.8304594217152,1354.8304594217152,0.9998551530789387,0.00039010433985128964
1354.8374039149348,1354.8374039149348,1.0002078695774115,0.0003901426997205458
1354.8443484081538,1354.8443484081538,1.0003522064540022,0.0003902221306782209
1354.8512929010938,1354.8512929010938,1.0001428139254696,0.00039023687314112545
1354.858237393847,1354.858237393847,0.9999259201835227,0.00039015672463762953
1354.8651818866938,1354.8651818866938,1.0003439450581855,0.0003902435759329372
1354.8721263792615,1354.8721263792615,0.9996051317789612,0.00039012138650149737
1354.8790708717354,1354.8790708717354,1.0001235281403846,0.00039019986329917323
1354.8860153641167,1354.8860153641167,1.000171468320435,0.0003901958633627947
1354.892959856218,1354.892959856218,0.9994226011290225,0.0003900642628139884
1354.8999043482268,1354.8999043482268,0.9997666817867177,0.00039011692292648516
1354.9068488402356,1354.9068488402356,0.9998211329233033,0.0003901712966206515
1354.9137933319644,1354.9137933319644,1.0002312779133378,0.00039021842703000013
1354.9207378236001,1354.9207378236001,1.0003300961928916,0.00039027287240757196
1354.9276823152363,1354.9276823152363,1.0001826737501798,0.0003901691637529714
1354.9346268064066,1354.9346268064066,1.0001611800662076,0.00039022560776650445
1354.9429601959969,1354.9429601959969,1.0002388903016268,0.00039027208157987024
1354.9499046869812,1354.9499046869812,0.9998503160582708,0.0003901788066996382
1354.9568491780585,1354.9568491780585,0.9993344707462164,0.00039014523315114883
1354.9637936688564,1354.9637936688564,1.0004541423527187,0.0003903573994356627
1354.9707381595613,1354.9707381595613,1.000030237990877,0.0003901700953982606
1354.9776826502657,1354.9776826502657,0.9997609227423585,0.00039016795595899726
1354.9846271405981,1354.9846271405981,1.000037768915107,0.000390264877607974
1354.9915716309301,1354.9915716309301,0.999915687342177,0.00039019563208346985
1354.9985161210757,1354.9985161210757,0.9997077820001424,0.0003902215865240726
1355.0054606111285,1355.0054606111285,0.9999951538337924,0.0003902696229529691
1355.0124051011812,1355.0124051011812,1.0004398208512038,0.00039033865636341496
1355.0193495909548,1355.0193495909548,0.999728380085713,0.0003901711889326803
1355.0262940806347,1355.0262940806347,1.000464079417614,0.00039026492862258364
1355.0332385704085,1355.0332385704085,1.000123488948731,0.00039018666131148506
1355.0401830597164,1355.0401830597164,0.9998952866361325,0.00039020273783036487
1355.0471275490238,1355.0471275490238,0.9997002448924841,0.00039017574354668086
1355.0540720383312,1355.0540720383312,0.9997871212668512,0.0003902066465402858
1355.0610165273597,1355.0610165273597,1.0001406926943202,0.0003902640599745892
1355.067961016388,1355.067961016388,1.0003568683345425,0.0003902680860096757
1355.07490550523,1355.07490550523,0.9999186759852356,0.00039029765114830206
1355.081849993979,1355.081849993979,1.0001255274763872,0.0003903044942514978
1355.0887944825413,1355.0887944825413,0.9997167195993543,0.0003901613515890807
1355.095738971104,1355.095738971104,0.9997378258556177,0.00039024190697954116
1355.1026834594804,1355.1026834594804,1.0002317183721865,0.00039031682166014247
1355.1096279477638,1355.1096279477638,0.9998664635961795,0.0003901763507568678
1355.116572435954,1355.116572435954,1.0001281135567832,0.0003902683336235406
1355.1235169238648,1355.1235169238648,1.0002438268834246,0.0003902696711352617
1355.1304614118685,1355.1304614118685,0.9998435778049526,0.00039023665694379724
1355.137405899593,1355.137405899593,0.9998948582974652,0.0003902551496697143
1355.144350387317,1355.144350387317,1.0004626090435176,0.0003903061333564219
1355.1512948748557,1355.1512948748557,0.999630691812067,0.0003901896769404121
1355.1582393623937,1355.1582393623937,0.9998982227121012,0.0003902188459350991
1355.1651838496523,1355.1651838496523,0.999809759448586,0.00039023769604969844
1355.1721283370046,1355.1721283370046,1.0003729955448144,0.0003902488799676075
1355.1790728239837,1355.1790728239837,0.999582026026701,0.00039018983090218146
1355.186017310963,1355.186017310963,1.0004559198623086,0.00039028691814176704
1355.1929617979426,1355.1929617979426,0.9996761968874708,0.000390206710148179
1355.1999062848286,1355.1999062848286,0.9999745161589317,0.00039025978301490997
1355.2068507714357,1355.2068507714357,1.0000619475347885,0.0003901907813794707
1355.2137952580422,1355.2137952580422,0.9999111320707972,0.0003902632375673171
1355.2207397444631,1355.2207397444631,0.9999112548718289,0.00039012960945023476
1355.2276842307908,1355.2276842307908,1.0006481408891303,0.00039029249492322294
1355.234628717025,1355.234628717025,0.9999726689303634,0.0003901698323107644
1355.2415732031664,1355.2415732031664,0.9993369362714214,0.0003900991495975337
1355.2485176892142,1355.2485176892142,1.000530139319838,0.0003902823637794208
1355.255462175076,1355.255462175076,1.0003709653567836,0.00039024138548059676
1355.2624066608448,1355.2624066608448,0.9996267992159578,0.0003901829804368301
1355.2693511466134,1355.2693511466134,0.9999376701666851,0.00039027452010621084
1355.2762956321956,1355.2762956321956,0.9997313204081266,0.0003902508399707412
1355.2832401176847,1355.2832401176847,1.0003155687988168,0.000390317907958235
1355.2901846030811,1355.2901846030811,1.0002338274304352,0.00039028746953583633
1355.2971290883843,1355.2971290883843,0.9994356369577521,0.0003901936619590138
1355.304073573594,1355.304073573594,0.9995164703975634,0.00039020853601756184
1355.3110180586177,1355.3110180586177,0.9996999797834709,0.00039021930159088613
1355.3179625435482,1355.3179625435482,1.0006377735134713,0.00039029141141813694
1355.3249070284787,1355.3249070284787,1.0002066366017377,0.00039029659682581337
1355.331851513316,1355.331851513316,1.0004543535296886,0.0003902991680750286
1355.3396293361252,1355.3396293361252,1.000008441041961,0.0003902119371525589
1355.347129379269,1355.347129379269,0.9999320410685918,0.00039024487891543754
1355.3540738637337,1355.3540738637337,1.000030661570234,0.0003902485484915265
1355.3610183480125,1355.3610183480125,0.9997083474622599,0.0003901934191156828
1355.3679628322911,1355.3679628322911,1.0001246126218377,0.0003903060470306491
1355.374907316383,1355.374907316383,1.0003866310842375,0.0003902278056887255
1355.3818518003823,1355.3818518003823,0.9993092381610825,0.0003901162035442238
1355.3887962843814,1355.3887962843814,1.0000038834608387,0.0003902277461208837
1355.3957407681942,1355.3957407681942,0.9997007456398066,0.0003901795448314356
1355.4037963692722,1355.4037963692722,1.0002647157666062,0.0003902285171826905
1355.4110186321914,1355.4110186321914,1.000266576787981,0.0003902600352588738
1355.417963115632,1355.417963115632,0.9992937141204115,0.00039008088087474815
1355.4249075991654,1355.4249075991654,1.0001859991128899,0.0003902571826985805
1355.4318520824195,1355.4318520824195,1.000518145854821,0.0003903142896296673
1355.4387965655808,1355.4387965655808,1.0003983530562859,0.0003902451894413855
1355.4457410487416,1355.4457410487416,1.0000447987718408,0.0003901676982104874
1355.4526855317163,1355.4526855317163,1.0003667927793898,0.00039028517859524583
1355.459630014691,1355.459630014691,0.9990587924653349,0.0003901243911258438
1355.4665744974793,1355.4665744974793,1.000039129588672,0.00039028555829724224
1355.473518980175,1355.473518980175,1.000269200087669,0.00039028106612496594
1355.4804634628704,1355.4804634628704,0.9995248367736718,0.00039014865861414477
1355.4874079452861,1355.4874079452861,0.9998183514108782,0.000390289261662988
1355.4943524276089,1355.4943524276089,1.0000852300733125,0.0003903053365250486
1355.5012969099316,1355.5012969099316,0.9999838061971298,0.0003903278876197223
1355.5082413922541,1355.5082413922541,0.9999770680075223,0.00039024932669178925
1355.5151858744837,1355.5151858744837,1.0006586287183894,0.0003904050294790641
1355.5221303564344,1355.5221303564344,1.0002531964612522,0.0003903736928967389
1355.5290748383843,1355.5290748383843,0.9995268344277506,0.00039015558960440446
1355.5360193202414,1355.5360193202414,0.999995414959501,0.00039023675696928085
1355.542963802099,1355.542963802099,1.0000688495310226,0.00039016154517799247
1355.5499082836764,1355.5499082836764,0.9988818202467371,0.00039009993970533626
1355.5568527652542,1355.5568527652542,1.0004739334406165,0.00039029099962340375
1355.563797246739,1355.563797246739,0.9996229149038441,0.0003901527058783483
1355.5707417281299,1355.5707417281299,1.0004919802492018,0.00039031274405810004
1355.5776862094285,1355.5776862094285,1.0003934470933653,0.0003903319663661751
1355.5846306907267,1355.5846306907267,1.0010732396991608,0.00039036159763629076
1355.5915751716525,1355.5915751716525,1.0001059140879747,0.0003902778802229322
1355.598519652765,1355.598519652765,0.9997953343399584,0.0003902083875070458
1355.6054641335973,1355.6054641335973,0.9989700525269329,0.0003901203752509605
1355.6124086145232,1355.6124086145232,0.9995425697723679,0.00039020122961042774
1355.6193530951696,1355.6193530951696,0.9998809900116606,0.0003902783188092376
1355.626297575816,1355.626297575816,1.0002583844911512,0.00039034784541413115
1355.6332420564627,1355.6332420564627,0.9999262684412071,0.00039038326123931545
1355.6401865368293,1355.6401865368293,1.0005253432667067,0.000390409710054213
1355.6471310172892,1355.6471310172892,1.0000726431945606,0.0003903504580342773
1355.6540754975636,1355.6540754975636,1.0000926159938508,0.00039032253184848595
1355.6610199777442,1355.6610199777442,1.0002370645746625,0.0003903283147069261
1355.6679644577384,1355.6679644577384,0.9994852888014819,0.00039019336899342934
1355.6749089377333,1355.6749089377333,0.999863298981986,0.0003903523797759364
1355.6818534177276,1355.6818534177276,0.9999900816396249,0.00039031317879385536
1355.6887978977222,1355.6887978977222,1.0006551264910624,0.0003903598047464515
1355.695742377251,1355.695742377251,0.9998898420682302,0.0003903197447769032
1355.702686856966,1355.702686856966,1.00003716184255,0.0003903271180445081
1355.709631336588,1355.709631336588,1.0001378564443661,0.0003902934795606475
1355.7165758160238,1355.7165758160238,0.9999700774856336,0.00039027064474061774
1355.7235202954594,1355.7235202954594,0.9993923315588068,0.00039015100069232634
1355.730464774709,1355.730464774709,1.0007941215465763,0.0003904113200891216
1355.7374092539583,1355.7374092539583,0.9997079237991986,0.00039027024019457383
1355.7443537330214,1355.7443537330214,0.9998508200366937,0.00039019193781643607
1355.7526871078971,1355.7526871078971,1.0003186879619625,0.00039031126381414643
1355.7596315867738,1355.7596315867738,1.0000858101253614,0.0003902759740687712
1355.766576065651,1355.766576065651,1.000316455586359,0.00039026728432300846
1355.7735205444346,1355.7735205444346,0.9993838732349518,0.0003901342523210831
1355.7804650230319,1355.7804650230319,1.000441945595352,0.00039037766782384323
1355.7874095016296,1355.7874095016296,0.9995256566604926,0.0003901611044933199
1355.794353980134,1355.794353980134,1.0000617056012668,0.0003902416197273031
1355.8012984585453,1355.8012984585453,0.9998500002617448,0.00039025120009345156
1355.8082429368635,1355.8082429368635,1.0002406913136,0.0003903612284786496
1355.8151874150885,1355.8151874150885,0.9992814435691029,0.000390179182585972
1355.8221318932206,1355.8221318932206,0.9994218945213822,0.00039014946851126435
1355.829076371259,1355.829076371259,1.0005625913686758,0.0003904459931077024
1355.8360208493905,1355.8360208493905,1.000135193575815,0.0003902800030524836
1355.8429653270573,1355.8429653270573,1.00066280613907,0.0003903436716307668
1355.8499098051886,1355.8499098051886,0.9992638346037138,0.0003901949162987655
1355.856854282855,1355.856854282855,0.9998163122226009,0.00039024644727877876
1355.8637987605211,1355.8637987605211,0.9997496217780488,0.00039021122365603944
1355.8707432379078,1355.8707432379078,1.0002490647563973,0.00039031682884650064
1355.877687715388,1355.877687715388,1.0006420388967971,0.0003904345205133277
