time,time,flux,flux_err
1385.9528515467562,1385.9528515467562,1.0007432638741094,0.0016167470928354494
1385.9611850546405,1385.9611850546405,0.9987802434457204,0.0016163752440876721
1385.969518562475,1385.969518562475,1.0011008370240653,0.0016170892357665798
1385.9771576112917,1385.9771576112917,0.9998468158117759,0.0014762586808056255
1385.9841022010903,1385.9841022010903,1.000326710161282,0.0014760021137883177
1385.9910467908305,1385.9910467908305,0.9996206309892692,0.0014761298637700256
1385.997991380605,1385.997991380605,0.9979728530950244,0.001475009294945449
1386.0049359702646,1386.0049359702646,0.9998897339398916,0.0014763389928585883
1386.0118805599582,1386.0118805599582,0.9999300827779354,0.001476064795337965
1386.0188251495815,1386.0188251495815,1.0005897838529498,0.001476362527687074
1386.0257697391942,1386.0257697391942,1.0018565490467233,0.0014768771331780362
1386.0327143287716,1386.0327143287716,0.9973566789345412,0.0014753129677399562
1386.039658918325,1386.039658918325,1.0004786842983062,0.0014767052010353774
1386.046603507833,1386.046603507833,1.0023961516918416,0.0014764811549414602
1386.0535480973058,1386.0535480973058,1.0010894862510729,0.0014763706983537026
1386.0604926867777,1386.0604926867777,0.9993113333424148,0.0014759162107804856
1386.0674372762037,1386.0674372762037,1.00007137932833,0.0014760118598667717
1386.074381865572,1386.074381865572,0.9972884764374671,0.0014753377124394707
1386.0813264549274,1386.0813264549274,0.9996133385024691,0.0014762289992130018
1386.08827104426,1386.08827104426,1.0024682261859166,0.0014768989754064248
1386.0952156335466,1386.0952156335466,0.9982093118885647,0.0014758103535586647
1386.1021602228095,1386.1021602228095,1.0006208402129384,0.0014761684401752666
1386.1091048120372,1386.1091048120372,1.0008721831140708,0.0014765649039371605
1386.116049401254,1386.116049401254,0.998275928507924,0.0014754087674719862
1386.1229939904238,1386.1229939904238,1.0010007550535036,0.001475530634152815
1386.1299385795696,1386.1299385795696,0.9990237594139966,0.0014756642248860631
1386.136883168659,1386.136883168659,1.0010155941776717,0.001476217241525651
1386.1438277577472,1386.1438277577472,1.0001890758071166,0.0014758546041796908
1386.1507723467882,1386.1507723467882,1.0017476927367546,0.0014770507993023374
1386.1577169357838,1386.1577169357838,0.9982088769476445,0.0014750949719888877
1386.1646615247796,1386.1646615247796,1.0003078095689069,0.001476249909722306
1386.1716061137274,1386.1716061137274,0.9990120562564542,0.0014756164775036004
1386.1785507026411,1386.1785507026411,1.0024115039945807,0.0014770738919519077
1386.1854952915437,1386.1854952915437,0.9991348978565515,0.00147604484568018
1386.192439880399,1386.192439880399,0.998192209311252,0.0014759545406348668
1386.1993844692192,1386.1993844692192,0.9994111443205771,0.0014760822949829494
1386.2063290580056,1386.2063290580056,1.0009054316183956,0.0014767825367779197
1386.2132736467795,1386.2132736467795,1.001902562167325,0.001477683770768387
1386.2202182354945,1386.2202182354945,0.99970400510588,0.0014769280513987845
1386.2271628241992,1386.2271628241992,1.0005152077766148,0.0014771996365756151
1386.2341074128572,1386.2341074128572,0.999779494052208,0.0014769805211592149
1386.2410520015137,1386.2410520015137,0.996842877884262,0.0014765709145792194
1386.2479965901023,1386.2479965901023,1.0022497947310913,0.0014778968778982437
1386.2549411787018,1386.2549411787018,1.0021215252835032,0.0014778212683559176
1386.261885767219,1386.261885767219,0.9978408222149179,0.0014764441480071492
1386.2688303557375,1386.2688303557375,0.9986484826078156,0.001476782662557874
1386.2757749442205,1386.2757749442205,0.9992460991871177,0.00147657698716083
1386.2827195326684,1386.2827195326684,1.0016009730151738,0.001476644077626483
1386.2896641210814,1386.2896641210814,0.9986780380246504,0.0014751188847501532
1386.2966087094715,1386.2966087094715,1.001050064386148,0.0014766936994947293
1386.303553297815,1386.303553297815,0.9981389998716551,0.0014749066126455172
1386.3104978861456,1386.3104978861456,1.002076487844827,0.0014756984856602428
1386.3174424744545,1386.3174424744545,1.0017291531205195,0.0014757252999709246
1386.324387062705,1386.324387062705,0.9976181418900175,0.001474246638305313
1386.3313316509311,1386.3313316509311,1.0009058229401173,0.0014756402625816837
1386.3382762391236,1386.3382762391236,1.0006763379938595,0.0014753746400388461
1386.3452208272925,1386.3452208272925,1.0021861545006021,0.001476941333462317
1386.3521654154372,1386.3521654154372,0.9977872688962284,0.001475438424790461
1386.3591100035248,1386.3591100035248,1.0004697502053443,0.0014764604450667209
1386.3668879421687,1386.3668879421687,0.9987992781443221,0.0014761032656326499
1386.3743880972465,1386.3743880972465,0.9996127915707973,0.0014767673648384701
1386.3813326852523,1386.3813326852523,0.9990543880385253,0.0014769273163817201
1386.3882772732234,1386.3882772732234,1.0010303966890322,0.0014773397057851535
1386.395221861159,1386.395221861159,1.000007520681817,0.0014766821103520714
1386.402166449071,1386.402166449071,0.9988184128002964,0.0014767802655028413
1386.4091110369372,1386.4091110369372,1.0006779598688411,0.0014770614912655577
1386.416055624792,1386.416055624792,1.0005581836156883,0.00147764324586826
1386.4230002125992,1386.4230002125992,1.0012657164438927,0.0014773227615602403
1386.4299448003837,1386.4299448003837,0.9999575880426914,0.0014765054637394777
1386.436889388134,1386.436889388134,0.9994443024196877,0.0014766803477295192
1386.443833975848,1386.443833975848,0.9988886389877235,0.0014767091930122168
1386.4507785635626,1386.4507785635626,1.0003750135151102,0.001477090695286316
1386.4577231511848,1386.4577231511848,0.9999792655204809,0.001477061201937569
1386.464667738829,1386.464667738829,0.9996137284342836,0.0014768896209627013
1386.4716123264038,1386.4716123264038,1.0008868125075883,0.0014769952218732123
1386.4785569139792,1386.4785569139792,1.0002306207764975,0.0014769331916861868
1386.4855015015078,1386.4855015015078,1.0004745730647133,0.0014763287406452576
1386.4924460890004,1386.4924460890004,1.000047914986221,0.0014767295213888312
1386.4993906764707,1386.4993906764707,1.0001968537952064,0.0014769128787737846
1386.506335263895,1386.506335263895,0.9965653422104653,0.0014750345275447853
1386.5132798512948,1386.5132798512948,0.9991606631583367,0.0014754959525046791
1386.5202244386717,1386.5202244386717,1.0024497894766735,0.001476431024567654
1386.5271690260263,1386.5271690260263,1.0003394407078994,0.001476248516967624
1386.5341136133327,1386.5341136133327,1.0025103895440293,0.0014765983079966362
1386.5410582006164,1386.5410582006164,0.9995218471486671,0.0014751693449081551
1386.5480027878662,1386.5480027878662,0.997410204214121,0.0014753224937518853
1386.5549473750684,1386.5549473750684,0.9996343380161636,0.0014750077354388313
1386.5624475292382,1386.5624475292382,1.0026266038934932,0.0014768098263078996
1386.570225466823,1386.570225466823,1.0007580847549895,0.0014755899352779083
1386.5771700539558,1386.5771700539558,0.9975259957695257,0.001474748530812116
1386.5841146410178,1386.5841146410178,1.0014612322845935,0.0014763652411610283
1386.5910592280807,1386.5910592280807,0.9978395837046262,0.0014748511223164717
1386.598003815097,1386.598003815097,1.0010515910719886,0.0014762677601151363
1386.60494840209,1386.60494840209,0.9993092839220296,0.001475345440728301
1386.6118929890474,1386.6118929890474,1.000036308993291,0.0014757832516288124
1386.6188375759707,1386.6188375759707,0.9997764287158157,0.0014754047927061404
1386.625782162871,1386.625782162871,1.0001798020202477,0.0014764821894468652
1386.6327267497234,1386.6327267497234,1.0021004952872836,0.001476654088192876
1386.6396713365768,1386.6396713365768,0.9992087349029625,0.0014757983687633633
1386.6466159233607,1386.6466159233607,1.0020791534513207,0.0014775905117934195
1386.6535605101199,1386.6535605101199,0.9994098877292572,0.0014766729547973526
1386.660505096857,1386.660505096857,0.9991245123306332,0.0014763370113649557
1386.6674496835592,1386.6674496835592,0.9981842515647813,0.0014763433740570397
1386.6743942702374,1386.6743942702374,0.9984612532513122,0.0014764038543069828
1386.6813388568692,1386.6813388568692,1.0011534909387687,0.0014774479709283113
1386.6882834434896,1386.6882834434896,1.000854472316133,0.001477108800945217
1386.6952280300636,1386.6952280300636,0.9983897712712269,0.0014765684958936505
1386.7021726166136,1386.7021726166136,0.9997074919205498,0.0014770547900023227
1386.7091172031294,1386.7091172031294,1.0021011178691686,0.001477785058481507
1386.7160617895988,1386.7160617895988,1.000482120004933,0.0014773383575339605
1386.7230063760558,1386.7230063760558,1.0013228671738237,0.0014767722167944278
1386.729950962478,1386.729950962478,0.9975046860962357,0.001475821782943306
1386.7368955488548,1386.7368955488548,1.0022221355495162,0.0014769293170013794
1386.7438401352185,1386.7438401352185,1.000245922809478,0.001476985756482854
1386.7507847215475,1386.7507847215475,0.995502213980276,0.0014757419170322
1386.7577293078423,1386.7577293078423,1.0001052327757303,0.0014764255842783193
1386.7646738940905,1386.7646738940905,0.9997661213837784,0.001476668335346139
1386.7721740472123,1386.7721740472123,1.001528141899938,0.0014772726183837986
1386.7799519837606,1386.7799519837606,0.9991272807238472,0.00147684009018271
1386.7868965699272,1386.7868965699272,1.0000371246971302,0.0014774262659378987
1386.7938411560583,1386.7938411560583,1.0014320309722633,0.0014771713401218211
1386.8007857421546,1386.8007857421546,1.0008202485033182,0.001477083873370553
1386.8077303282166,1386.8077303282166,0.9963092466814818,0.0014759068242036376
1386.8146749142436,1386.8146749142436,1.0007894941889721,0.00147608420487116
1386.8216195002462,1386.8216195002462,0.9992067218449787,0.0014757760981322066
1386.8285640862148,1386.8285640862148,1.0006316525213177,0.0014763126120710128
1386.835508672172,1386.835508672172,1.0006983809380232,0.0014757558086800164
1386.8424532580582,1386.8424532580582,0.9998594535064068,0.0014758577159277547
1386.8493978439456,1386.8493978439456,0.9990486921052316,0.0014757157623686238
1386.8563424297859,1386.8563424297859,1.0009672617590843,0.001476043174992584
1386.8632870155914,1386.8632870155914,1.0010561669434064,0.0014767286873552943
1386.8702316013732,1386.8702316013732,1.0007612219955089,0.0014761702643086262
1386.8771761871208,1386.8771761871208,0.9995000533219122,0.001475902747509871
1386.884120772845,1386.884120772845,0.9996187690423598,0.0014765494473735778
1386.891065358533,1386.891065358533,0.9995204926287773,0.0014765053045752625
1386.8980099441876,1386.8980099441876,1.0004494314927297,0.0014770381948415515
1386.9049545298071,1386.9049545298071,1.000275606333706,0.0014768976574641335
1386.9118991153914,1386.9118991153914,0.9989498291661942,0.0014763359278354513
1386.9188437009518,1386.9188437009518,0.9988601072533317,0.0014765283911689004
1386.9257882864783,1386.9257882864783,0.9989467118925418,0.0014761374786985081
1386.9327328719814,1386.9327328719814,1.00073559682327,0.0014762562419348133
1386.9396774574368,1386.9396774574368,1.000790297989437,0.0014761036962330847
1386.94662204287,1386.94662204287,1.0013147416003965,0.0014764358751730563
1386.95356662828,1386.95356662828,1.0011396317003776,0.0014763407483149849
1386.9605112136314,1386.9605112136314,1.0001091301843026,0.0014760302118010785
1386.9674557989824,1386.9674557989824,0.9998160529362714,0.0014762442688909204
1386.974400384276,1386.974400384276,0.9973406185147352,0.0014746536055352914
1386.982456103191,1386.982456103191,1.0013302022061186,0.0014762362972361852
1386.9896784718273,1386.9896784718273,1.0005478141799362,0.001476537427349887
1386.9966230570394,1386.9966230570394,0.9988230544199637,0.0014757764556741545
1387.0035676422053,1387.0035676422053,0.9985576426335859,0.0014755160918075774
1387.010512227358,1387.010512227358,1.0023820391398357,0.0014770588686772127
1387.017456812465,1387.017456812465,1.000333211108642,0.0014758011170739555
1387.0244013975257,1387.0244013975257,0.9986626178397616,0.0014753533374275629
1387.0313459825863,1387.0313459825863,1.000814655159585,0.0014763788011401722
1387.0382905675995,1387.0382905675995,0.9985421406147937,0.0014755458753009632
1387.0452351525669,1387.0452351525669,1.0002609436478065,0.00147644685431359
1387.052179737523,1387.052179737523,1.0006300290586796,0.0014762527617600285
1387.0591243224433,1387.0591243224433,1.001577642525455,0.0014765411657679012
1387.0660689073288,1387.0660689073288,0.9983734110630349,0.0014753003331066806
1387.07301349218,1387.07301349218,0.9999240591397547,0.001475359455416501
1387.0799580770195,1387.0799580770195,0.9978343344314133,0.0014748591017999032
1387.0869026617881,1387.0869026617881,0.9999757646516866,0.0014759797584934782
1387.093847246558,1387.093847246558,0.9985676731358606,0.001474695144634854
1387.1007918312928,1387.1007918312928,0.9987475154655892,0.0014753266691480272
1387.10773641598,1387.10773641598,1.001402338480521,0.0014759874356242994
1387.1146810006444,1387.1146810006444,1.003367019847511,0.001476833951286494
1387.1216255852746,1387.1216255852746,0.9968193425167756,0.001475150555181525
1387.1285701698812,1387.1285701698812,1.0015051857146364,0.0014760958651033158
1387.1355147544518,1387.1355147544518,0.9962352644431844,0.0014742881192218236
1387.1424593389888,1387.1424593389888,1.0015360004159177,0.0014754254579907673
1387.1494039234908,1387.1494039234908,1.0011782803272529,0.001475207919889632
1387.156348507969,1387.156348507969,0.999473496628751,0.0014750462857293712
1387.1632930924002,1387.1632930924002,0.997930819060589,0.0014749801576077963
1387.1702376768094,1387.1702376768094,1.0005688377142274,0.0014760888077834382
1387.1771822611947,1387.1771822611947,0.9995195573574046,0.0014753461241318142
1387.1841268455441,1387.1841268455441,1.0022529054105718,0.0014767097537961471
1387.1910714298479,1387.1910714298479,0.9994851986305167,0.0014752055312980828
1387.1980160141288,1387.1980160141288,0.9999385555396,0.0014756346973712356
1387.204960598386,1387.204960598386,0.999307153989289,0.0014755554992756763
1387.2119051826076,1387.2119051826076,1.0013913331633493,0.0014758393377852248
1387.2188497667835,1387.2188497667835,0.9977865099966335,0.0014745567133561787
1387.225794350948,1387.225794350948,1.0004874937235266,0.0014759416445266653
1387.2327389350648,1387.2327389350648,1.000046183430189,0.0014757393347884643
1387.239683519159,1387.239683519159,0.9983230446741278,0.0014753225765384147
1387.246628103207,1387.246628103207,1.003407157178573,0.0014767640550474334
1387.253572687243,1387.253572687243,1.0005843461419388,0.0014764352107390314
1387.260517271232,1387.260517271232,0.999264166808229,0.0014749893619989186
1387.2674618551982,1387.2674618551982,0.9973261859690782,0.0014750125950912499
1387.2744064391532,1387.2744064391532,1.001221309412729,0.0014767658412791107
1387.2813510230487,1387.2813510230487,1.0008159300390018,0.001475997116156327
1387.2882956068981,1387.2882956068981,0.9996623120132344,0.0014761156559593125
1387.2952401907482,1387.2952401907482,0.9988955928193028,0.0014765058774190397
1387.3021847745404,1387.3021847745404,1.0009389538632585,0.0014767289856991658
1387.3102404917308,1387.3102404917308,1.0007045352411685,0.0014761983746212376
1387.3188517755414,1387.3188517755414,0.9993160749876996,0.0014760157305852843
1387.3257963592519,1387.3257963592519,1.002045081187254,0.0014775819234232655
1387.3338520762916,1387.3338520762916,0.997080202569326,0.0014753605410747998
1387.3410744432758,1387.3410744432758,1.0004265168219142,0.0014767356230221613
1387.3485745935468,1387.3485745935468,1.0006587272122547,0.001476507026473558
1387.3563525271263,1387.3563525271263,1.0018238134481958,0.0014769505469908865
1387.3632971106613,1387.3632971106613,0.9990504004584538,0.001475938995834755
1387.3702416941387,1387.3702416941387,0.9981903227778446,0.001475651013430947
1387.3771862776043,1387.3771862776043,1.0009406604476387,0.001476184302075825
1387.3841308610229,1387.3841308610229,0.9984028034353247,0.001475597897134514
1387.3910754444303,1387.3910754444303,1.000062924340344,0.0014759647666607893
1387.3980200277913,1387.3980200277913,1.0012169314648318,0.0014756861442686408
1387.4049646111057,1387.4049646111057,1.0001629928810123,0.0014761822082753708
1387.4119091944192,1387.4119091944192,0.9997943835957355,0.001475599884109191
1387.4188537776986,1387.4188537776986,1.0013182882653744,0.0014762312502336554
1387.4257983609318,1387.4257983609318,1.0020733412041116,0.0014761334659280623
1387.4327429441407,1387.4327429441407,0.9975028949790217,0.0014747688081672417
1387.439687527315,1387.439687527315,0.9978825265665524,0.0014744605303421002
1387.4466321104435,1387.4466321104435,0.9999048970389499,0.0014760182568501023
1387.4535766935599,1387.4535766935599,1.0006602310543378,0.0014762083879964092
1387.4605212766287,1387.4605212766287,1.002451593086774,0.0014770599285222018
1387.467465859699,1387.467465859699,1.000262846904841,0.0014765659430964456
1387.4744104426873,1387.4744104426873,0.9992981906605538,0.0014758298312020667
1387.4813550256754,1387.4813550256754,0.999365108698235,0.0014761214233602262
1387.4882996086283,1387.4882996086283,0.9992405569726902,0.0014760600458746723
1387.495244191547,1387.495244191547,0.9986823890275062,0.0014755438154391571
1387.5021887744308,1387.5021887744308,1.0000734802590636,0.001475827101054897
1387.5091333572905,1387.5091333572905,0.9992643923885272,0.001475416816604609
1387.5160779401042,1387.5160779401042,1.0019982522443107,0.0014755625545111646
1387.523022522906,1387.523022522906,1.0002062995660346,0.0014756790575685048
1387.5299671056387,1387.5299671056387,1.001349984428817,0.0014755425771595639
1387.5369116883703,1387.5369116883703,0.9996488024958321,0.0014754954972843845
1387.5438562710674,1387.5438562710674,0.9978111725244083,0.0014747540458978233
1387.5508008537417,1387.5508008537417,1.0010277373761456,0.0014753286750416922
1387.5577454363693,1387.5577454363693,1.0016418077569174,0.0014761805591489883
1387.5646900189608,1387.5646900189608,1.000681700923627,0.001475750230291961
1387.5716346015304,1387.5716346015304,0.9988996885327905,0.0014753130475700295
1387.578579184053,1387.578579184053,0.9998781926138515,0.001475991946147249
1387.585523766564,1387.585523766564,0.9978533460654624,0.0014753340981306015
1387.5924683490048,1387.5924683490048,0.9986188293451251,0.0014753486143537387
1387.599412931446,1387.599412931446,1.0016993192471613,0.0014771576523129463
1387.606357513876,1387.606357513876,1.001045038071629,0.001475883381789026
1387.6133020962463,1387.6133020962463,1.000447418998816,0.0014761383856787443
1387.620246678594,1387.620246678594,1.0002535922434075,0.0014765480849200094
1387.6271912609077,1387.6271912609077,1.0011679241837985,0.0014765675859298492
1387.6341358431744,1387.6341358431744,0.9999851539843538,0.0014761925664838493
1387.6410804254167,1387.6410804254167,0.9989659489576251,0.0014759430492231552
1387.648025007637,1387.648025007637,0.9987949468531092,0.0014760463816883844
1387.6549695898107,1387.6549695898107,0.9996672269592548,0.0014758498349016812
1387.6619141719605,1387.6619141719605,0.9992249578995456,0.0014760435943911051
1387.6688587540752,1387.6688587540752,0.9988667864054243,0.0014757336937313952
1387.6758033361673,1387.6758033361673,1.002634673017895,0.0014773059170088488
1387.6827479182132,1387.6827479182132,0.9995672085559478,0.0014756091275653902
1387.6896925002227,1387.6896925002227,1.0011968263321802,0.0014761509800385272
1387.6966370822215,1387.6966370822215,0.9996441274761386,0.0014761682051814208
1387.7035816641855,1387.7035816641855,1.0009144012603255,0.001476162977790986
1387.710526246115,1387.710526246115,0.9989428370119257,0.0014761215245472736
1387.717470827996,1387.717470827996,1.0032813477208742,0.001476651526725784
1387.7244154098557,1387.7244154098557,0.9968075353516535,0.0014747522731528707
1387.7313599916913,1387.7313599916913,1.0005115181298097,0.0014755763172663607
