time,time,flux,flux_err
1325.304964687708,1325.304964687708,1.0017775318152662,0.004272942716565211
1325.313298072037,1325.313298072037,0.9987655863542938,0.00427722390174201
1325.3216314561332,1325.3216314561332,1.0033531769448498,0.004281957628314367
1325.3299648398413,1325.3299648398413,1.0007425105931136,0.004288718787237529
1325.3376037746223,1325.3376037746223,0.9957753992254924,0.003916359173597347
1325.3445482603213,1325.3445482603213,0.9951511484264884,0.003920470237105546
1325.3514927461138,1325.3514927461138,0.9988011065203507,0.003927617654714311
1325.3584372315331,1325.3584372315331,1.0013035506991659,0.003931560823849674
1325.3653817165803,1325.3653817165803,0.998920479816222,0.0039301776616821275
1325.3723262016276,1325.3723262016276,1.0032776236824614,0.003940197751074241
1325.379270686488,1325.379270686488,1.0002468202267705,0.003940873376710853
1325.3862151709768,1325.3862151709768,1.000998576366825,0.003943429886798027
1325.3931596552789,1325.3931596552789,0.9983958020624699,0.0039477066750696005
1325.4001041393942,1325.4001041393942,0.9945486034820892,0.003949590884677529
1325.4070486232308,1325.4070486232308,1.0027441927307397,0.003955384677283166
1325.4139931070672,1325.4139931070672,1.0006668242125811,0.003959113582672363
1325.4209375906244,1325.4209375906244,1.004782491936625,0.003967630359110607
1325.4278820739016,1325.4278820739016,1.0077074464015907,0.003968685771349591
1325.434826556993,1325.434826556993,0.9948911698401142,0.003969081187174675
1325.4417710399914,1325.4417710399914,0.9972936501669846,0.003975567173254147
1325.4487155226168,1325.4487155226168,0.992986716294357,0.003975521677929025
1325.4556600052424,1325.4556600052424,0.9999164757932085,0.003979516384422555
1325.4626044875888,1325.4626044875888,1.0009813124524396,0.003980478175242717
1325.4695489697488,1325.4695489697488,0.997905916371112,0.003980346405641015
1325.4764934518155,1325.4764934518155,0.999623778287868,0.003988439135742166
1325.4834379336035,1325.4834379336035,1.0065526693483176,0.003992995208675033
1325.4903824152975,1325.4903824152975,1.0016902851115832,0.003994360812978282
1325.4973268968058,1325.4973268968058,0.9996715214266958,0.003995996709455606
1325.5042713779412,1325.5042713779412,1.0002592074411811,0.0039986400287105855
1325.5112158590769,1325.5112158590769,1.0040442144966801,0.004002134177055206
1325.5181603401193,1325.5181603401193,1.0017255409386376,0.004006898504051579
1325.525104820789,1325.525104820789,0.9915687637595824,0.004011921177491874
1325.532049301459,1325.532049301459,0.992632433703174,0.00401735002258788
1325.5389937820357,1325.5389937820357,1.001717893886871,0.00402553212108292
1325.5459382622396,1325.5459382622396,1.0062595616286676,0.004034692668850226
1325.5528827423514,1325.5528827423514,1.004099195964493,0.004038177321715154
1325.5598272222758,1325.5598272222758,1.0009229395115298,0.004041522676680637
1325.566771702201,1325.566771702201,0.9981034755524967,0.004044390091667264
1325.5737161818463,1325.5737161818463,0.9951742318721569,0.004047554678926303
1325.5806606613985,1325.5806606613985,1.0007287936587983,0.0040489451138893216
1325.587605140858,1325.587605140858,1.0014900663593156,0.004049579666397339
1325.5945496202235,1325.5945496202235,1.0010534592464626,0.004050807120997275
1325.6014940991242,1325.6014940991242,0.9991616020279401,0.004053223005770356
1325.6084385781173,1325.6084385781173,0.9985998740935023,0.004053341172095622
1325.6153830569249,1325.6153830569249,1.000810929032672,0.004055583464431819
1325.622327535639,1325.622327535639,1.0053823414061114,0.004055947127427343
1325.6292720140736,1325.6292720140736,1.0029626129153708,0.004051781152045667
1325.6362164925085,1325.6362164925085,0.9968424262885899,0.004051889454727138
1325.643160970757,1325.643160970757,0.9998928688215993,0.004053195433141858
1325.6501054489122,1325.6501054489122,1.0012972076110658,0.0040547217289918286
1325.6570499268814,1325.6570499268814,1.0001599257012663,0.004054649755948978
1325.663994404757,1325.663994404757,1.003092643426669,0.004057670798637702
1325.67093888254,1325.67093888254,0.9965270317284197,0.004058108515500833
1325.6778833601365,1325.6778833601365,0.9983462748997496,0.004057109068127703
1325.6848278376401,1325.6848278376401,0.9944648031626435,0.00405849916194017
1325.6917723150502,1325.6917723150502,0.9978102371565651,0.004059506153264904
1325.698716792274,1325.698716792274,0.9998704611772347,0.004057187568748179
1325.7056612694053,1325.7056612694053,1.001398329208491,0.004055440590806845
1325.7126057462567,1325.7126057462567,0.9996488110108077,0.004055089991984994
1325.7195502231082,1325.7195502231082,0.9958579522038262,0.004055109856124359
1325.7264946999594,1325.7264946999594,0.9957944525691413,0.004052620792084365
1325.733439176811,1325.733439176811,1.0065519518253192,0.004059678936624384
1325.740383653197,1325.740383653197,1.0018010658407461,0.0040554896311215515
1325.7473281296757,1325.7473281296757,1.0042169219647135,0.004059530289136361
1325.7542726060615,1325.7542726060615,1.0067323904348235,0.004061754245560605
1325.761217082168,1325.761217082168,0.9939540946268762,0.004062982625601676
1325.7681615583674,1325.7681615583674,0.9976581083553206,0.00406898578427975
1325.7751060343808,1325.7751060343808,1.0001907666729588,0.004071818713487467
1325.7820505102077,1325.7820505102077,0.9982368353102629,0.004076230721017298
1325.7889949859416,1325.7889949859416,0.9960879648775819,0.004078974302765303
1325.7959394615823,1325.7959394615823,1.0030868591139912,0.00408569435232555
1325.8028839373162,1325.8028839373162,1.0018696846193982,0.004088510375390221
1325.8098284127711,1325.8098284127711,1.0001798282388832,0.004091994432576618
1325.8167728881322,1325.8167728881322,0.9952675453700252,0.004092614083596712
1325.8237173634002,1325.8237173634002,1.0019892155000705,0.004094236516398541
1325.8306618385755,1325.8306618385755,1.0031331069527254,0.004095458329173226
1325.8376063136575,1325.8376063136575,0.9972265187083209,0.004097047115433948
1325.8445507886463,1325.8445507886463,1.004016362212486,0.004100663622380986
1325.851495263542,1325.851495263542,0.999862565689029,0.004099454524959289
1325.858439738251,1325.858439738251,0.9990791661722058,0.004101094204034819
1325.8653842128676,1325.8653842128676,0.9977557917238391,0.004099240343708297
1325.8723286877635,1325.8723286877635,0.9981046082556068,0.00409714900646425
1325.8792731622866,1325.8792731622866,1.0020027019773636,0.004095639586742604
1325.8862176363443,1325.8862176363443,1.0000835027215804,0.0040931547618041015
1325.8931621108675,1325.8931621108675,0.9975043994758244,0.004095733254463465
1325.9001065850177,1325.9001065850177,1.002719826084686,0.004097423439085004
1325.9070510592617,1325.9070510592617,0.9999861315319624,0.004095955641168918
1325.9139955333192,1325.9139955333192,1.0023903218250183,0.004095221714090607
1325.9209400072834,1325.9209400072834,1.0016755818818601,0.004094343139756448
1325.9278844811547,1325.9278844811547,0.9987647447438963,0.004092837154867417
1325.934828954933,1325.934828954933,0.9990443844840724,0.004090872998087866
1325.9417734286178,1325.9417734286178,0.9959726680414656,0.004086765977289855
1325.9487179023029,1325.9487179023029,0.9965034315930538,0.004087600482935099
1325.9556623758947,1325.9556623758947,1.0032647189291999,0.004087294711150848
1325.9626068492073,1325.9626068492073,0.9990369074687386,0.004083216810986401
1325.9706624383502,1325.9706624383502,1.0028861964048674,0.004087455445863306
1325.9778846906436,1325.9778846906436,1.002795027010945,0.004085918939772667
1325.9848291638627,1325.9848291638627,0.9972948516604706,0.004082343568822085
1325.9917736369891,1325.9917736369891,1.0001795581575492,0.0040822043839365075
1325.9987181101153,1325.9987181101153,1.0034430525460272,0.004085412417534122
1326.0056625830553,1326.0056625830553,0.9970538480009008,0.004087815665645503
1326.0126070559018,1326.0126070559018,1.0010215952566939,0.004090649036137369
1326.019551528749,1326.019551528749,0.9972842822360157,0.004092011864580762
1326.0264960015024,1326.0264960015024,1.0000377104234528,0.004096923298553879
1326.033440474163,1326.033440474163,1.0032766693400168,0.004100087322408113
1326.0403849467305,1326.0403849467305,0.9982633492550624,0.004102353262315302
1326.0473294192045,1326.0473294192045,0.9954278480466217,0.0041007823790155185
1326.0542738918655,1326.0542738918655,1.0018324558219605,0.004107812914085577
1326.0612183640599,1326.0612183640599,0.9980879864841565,0.004112143048335041
1326.0681628362547,1326.0681628362547,1.0032334053287302,0.004118062831224319
1326.0751073084498,1326.0751073084498,1.006507743452833,0.004121909495426548
1326.0820517806446,1326.0820517806446,1.0067478737910205,0.0041301630827405055
1326.0889962528395,1326.0889962528395,0.9961541863661099,0.004133409434971981
1326.0959407250343,1326.0959407250343,0.9918107065532341,0.004138861293341785
1326.1028851967635,1326.1028851967635,0.9951961021471633,0.004146438823317301
1326.1098296687721,1326.1098296687721,1.0000258677562857,0.004153350113713393
1326.116774140501,1326.116774140501,0.9971039922294895,0.004157302342903009
1326.1237186122305,1326.1237186122305,0.9986725150007045,0.004161448551999014
1326.1306630839595,1326.1306630839595,1.0000356496653748,0.004166670387707917
1326.1376075555959,1326.1376075555959,1.0018765132152023,0.004164872433599388
1326.1445520270454,1326.1445520270454,0.9972404891106628,0.004160777753348538
1326.1514964985886,1326.1514964985886,0.9979074611115772,0.0041575555896159345
1326.1584409699456,1326.1584409699456,0.9975024804963472,0.004147936331224102
1326.165385441302,1326.165385441302,0.9947865179043864,0.004141041674844501
1326.1723299125656,1326.1723299125656,0.998129831550575,0.0041365779155260515
1326.179274383829,1326.179274383829,1.006149060682597,0.004132453226836348
1326.1862188549997,1326.1862188549997,0.9982235058083603,0.00412374784793739
1326.1931633260765,1326.1931633260765,1.0013151595224568,0.0041191770263469245
1326.2001077971538,1326.2001077971538,1.0032057539934964,0.004113962373454889
1326.207052267952,1326.207052267952,1.0040424340196392,0.004109742062883103
1326.2139967389362,1326.2139967389362,1.0033210731468087,0.0041081333076435685
1326.2209412097338,1326.2209412097338,0.9982426579327903,0.004104872596699715
1326.227885680532,1326.227885680532,0.9965667707004743,0.004105322766691429
1326.2348301512363,1326.2348301512363,0.9998361769200372,0.004106432587431099
1326.2417746218482,1326.2417746218482,1.001719813249999,0.004108295559269786
1326.2487190925526,1326.2487190925526,0.9958307410867304,0.0041083064899148855
1326.2556635629785,1326.2556635629785,0.999621912775862,0.004110168776909436
1326.2626080334035,1326.2626080334035,0.9978789805322116,0.004110226828552349
1326.2695525039221,1326.2695525039221,1.0035327518112689,0.004112750410376459
1326.2764969742543,1326.2764969742543,1.0008742518170557,0.0041115284831291675
1326.2834414444933,1326.2834414444933,0.9946299288482952,0.004110657438648213
1326.290385914826,1326.290385914826,1.0006883716886048,0.004112529635839631
1326.2973303849715,1326.2973303849715,1.0077229710688873,0.004118559091054683
1326.3042748550245,1326.3042748550245,0.9969388884090078,0.004113171227125484
1326.311219325077,1326.311219325077,1.0004686929960467,0.0041136222640832856
1326.3181637952232,1326.3181637952232,1.0000008298784906,0.00411081811433717
1326.3251082650897,1326.3251082650897,0.9994764907873611,0.0041138581175484195
1326.3320527349565,1326.3320527349565,0.9936670735006711,0.00411101912194771
1326.338997204823,1326.338997204823,1.0059710733053486,0.004117656689404102
1326.3459416746896,1326.3459416746896,0.9932424990419249,0.004115469650592452
1326.3539972593621,1326.3539972593621,1.0038692507102136,0.00412067734876618
1326.3626084018101,1326.3626084018101,1.003818995637325,0.004121628127751594
1326.3695528713047,1326.3695528713047,1.0034628644398933,0.004123536163918246
1326.3764973408915,1326.3764973408915,0.9990869417216928,0.0041280993140155944
1326.3834418103856,1326.3834418103856,0.9991712347240893,0.004129983708710297
1326.3903862797863,1326.3903862797863,0.9976305850323518,0.004130937902358106
1326.3973307491874,1326.3973307491874,0.9946856544908591,0.004134083420198552
1326.4042752184955,1326.4042752184955,1.003281949495717,0.004143924240035189
1326.4112196877097,1326.4112196877097,1.0000522708801036,0.004145224952990764
1326.418164156925,1326.418164156925,1.0080391096386336,0.004154626744389149
1326.425108626046,1326.425108626046,0.9942172553036326,0.004152359968115373
1326.4320530951675,1326.4320530951675,0.9935665544415005,0.004155521192089621
1326.4389975641957,1326.4389975641957,1.0054003284373432,0.004159012133484766
1326.4459420332244,1326.4459420332244,0.9998831917091021,0.004155055519071262
1326.4528865021596,1326.4528865021596,1.0057732999198732,0.004158705545382081
1326.4598309710946,1326.4598309710946,0.9968097674739542,0.0041510891076670334
1326.4667754398438,1326.4667754398438,0.995396185674357,0.004147037210928478
1326.4737199086858,1326.4737199086858,1.0015770180693713,0.004150681005287098
1326.4806643774346,1326.4806643774346,0.9973415523963108,0.004146556674935597
1326.4876088460908,1326.4876088460908,1.0055798508044682,0.004144796847738406
1326.4945533146533,1326.4945533146533,0.9950584109072343,0.004139822561150143
1326.5014977833093,1326.5014977833093,1.000914038879346,0.004144875653187554
1326.5084422517784,1326.5084422517784,0.9977280870921172,0.004143014566328153
1326.5153867202484,1326.5153867202484,1.002408659673178,0.0041414208167220665
1326.5223311886248,1326.5223311886248,1.0024655160851712,0.00414369420164937
1326.5292756570946,1326.5292756570946,0.9996482844519414,0.004144313042003725
1326.5362201254711,1326.5362201254711,1.0019691463391063,0.004146448100046407
1326.5431645935676,1326.5431645935676,0.9997440110010253,0.004151245417820183
1326.5501090619446,1326.5501090619446,1.0033674265850836,0.004159346536272366
1326.5570535300415,1326.5570535300415,0.9951698874009784,0.004159648740894259
1326.5639979981383,1326.5639979981383,1.0013122245685184,0.004159366363949745
1326.5709424662352,1326.5709424662352,1.0013282327558717,0.004161981279299767
1326.5778869342396,1326.5778869342396,0.9986154941219747,0.004160790844522195
1326.5848314022435,1326.5848314022435,0.9882505653896525,0.004154266567446408
1326.591775870247,1326.591775870247,1.004375247424155,0.0041584181116510015
1326.598720338065,1326.598720338065,0.9990010851237374,0.004154909412050885
1326.6056648057895,1326.6056648057895,0.9974058564234254,0.004153663535371556
1326.6126092737934,1326.6126092737934,1.004976627486148,0.0041548068964894725
1326.6195537413319,1326.6195537413319,1.0034633249783764,0.004153471876039836
1326.6264982089629,1326.6264982089629,1.0038452364844075,0.004152196549870286
1326.633442676874,1326.633442676874,0.9986276816444694,0.004155826867235163
1326.6403871444118,1326.6403871444118,1.0033319029079721,0.0041537515267133516
1326.6473316119502,1326.6473316119502,1.0020571194755474,0.004158308558558642
1326.6542760794887,1326.6542760794887,0.9987147662797339,0.004159426178730613
1326.6612205466542,1326.6612205466542,0.9970407837128914,0.004160407354283596
1326.6681650140995,1326.6681650140995,0.9930243578889175,0.004158540137179144
1326.6751094816375,1326.6751094816375,1.0023806141264742,0.004163604050976706
1326.6820539487103,1326.6820539487103,0.9996931232110331,0.004161049688048886
1326.6889984160623,1326.6889984160623,0.9936128966614588,0.004159435918874146
1326.6973317767356,1326.6973317767356,1.0037842939903416,0.004158778729399356
1326.7042762439014,1326.7042762439014,0.9972143779939703,0.004155104057743749
1326.711220710974,1326.711220710974,1.0038271582700933,0.004155965785553854
1326.718998513965,1326.718998513965,1.0027320399361153,0.004152253026997748
1326.7264985384409,1326.7264985384409,1.010360827306956,0.004152780339049752
1326.7334430054202,1326.7334430054202,0.9942765630824046,0.004142425932864976
1326.7403874722136,1326.7403874722136,0.9967236125622371,0.004142798317901601
1326.7473319391,1326.7473319391,0.9978431546617635,0.004143887746090667
1326.7542764059858,1326.7542764059858,1.0002500689263942,0.004142796048516443
1326.761220872779,1326.761220872779,1.0013074286032766,0.004145921017196507
1326.768165339386,1326.768165339386,0.9989721167870105,0.004146154557064908
1326.775109806086,1326.775109806086,0.9996151755862328,0.00414453487882881
1326.7820542726931,1326.7820542726931,0.9996334937324006,0.00414670534721523
1326.7889987392998,1326.7889987392998,1.0022969444014636,0.004148869734110349
1326.7959432058137,1326.7959432058137,1.0043316852547268,0.004149034585934058
1326.8028876723274,1326.8028876723274,0.9938711846092069,0.004144023064282796
1326.8098321387486,1326.8098321387486,0.9986277369469537,0.004145355109057011
1326.8167766050756,1326.8167766050756,0.9996262050950364,0.0041505650372554905
1326.8237210714965,1326.8237210714965,1.0011652392013928,0.004155624053410679
1326.830665537824,1326.830665537824,1.0038201248247864,0.004159426248524784
1326.8376100040582,1326.8376100040582,1.0036467519142591,0.0041597995720573325
1326.844554470293,1326.844554470293,1.0013982004969662,0.004163079453915909
1326.851498936434,1326.851498936434,0.9919409269988251,0.004158514535772172
1326.8584434025754,1326.8584434025754,1.0029924003086221,0.00416357570520493
1326.8653878687169,1326.8653878687169,0.9955768475180617,0.004158661062587803
1326.8723323347651,1326.8723323347651,1.0005891579407526,0.004156867977068665
1326.8792768007202,1326.8792768007202,0.9974138894493482,0.004153907009628913
1326.8862212666747,1326.8862212666747,1.0005291755368497,0.0041509104014935605
1326.8931657325368,1326.8931657325368,0.9977055882130053,0.004149959422315562
1326.9001101983984,1326.9001101983984,1.0027557746204487,0.004145492818166936
1326.9070546641676,1326.9070546641676,1.0047576412420167,0.004145144727663265
1326.9139991299357,1326.9139991299357,1.0044269295950021,0.004139694273410402
1326.9209435957048,1326.9209435957048,0.9969529458686038,0.00413088590818963
1326.9278880613806,1326.9278880613806,1.000568600497174,0.004130499776391588
1326.9348325270562,1326.9348325270562,1.0006399783715616,0.004127336511416711
1326.941776992639,1326.941776992639,0.9951066058319045,0.004126342822169398
1326.9487214581277,1326.9487214581277,1.0018998356640487,0.004126663292984021
1326.9556659236175,1326.9556659236175,0.9936525205495294,0.004121266116093598
1326.9626103891064,1326.9626103891064,1.004495285697709,0.004123960100794722
1326.969554854503,1326.969554854503,0.9995980872438833,0.004121913757148449
1326.9764993197127,1326.9764993197127,1.0008049589165997,0.004122493777960871
1326.983443785202,1326.983443785202,1.0028763114592818,0.00411678182765971
1326.9903882505987,1326.9903882505987,0.997400667757003,0.004114182996338931
1326.9973327158086,1326.9973327158086,0.999942166567967,0.004116861068490158
1327.0042771810183,1327.0042771810183,0.9986484881112038,0.004116420706721221
1327.0112216460423,1327.0112216460423,1.0015058132891461,0.004114812429338206
1327.0181661109725,1327.0181661109725,1.0019169023975987,0.004116855084091069
1327.0251105761824,1327.0251105761824,1.001002358105063,0.004116960140924767
1327.0320550412064,1327.0320550412064,0.9986365296727768,0.004116665712612942
1327.0389995061373,1327.0389995061373,0.9977952854067894,0.004110738495144416
1327.0459439710671,1327.0459439710671,0.9968227916457584,0.004112352819843833
1327.0528884359978,1327.0528884359978,0.9998222151048017,0.0041169506110367935
1327.059832900742,1327.059832900742,0.9964786950199152,0.004116541171258775
1327.0678884799204,1327.0678884799204,1.0054827011358658,0.004122791326616851
1327.075110723273,1327.075110723273,1.0070286702583566,0.004122892383785484
1327.082055187924,1327.082055187924,0.9989562923644286,0.004121519633961747
1327.088999652575,1327.088999652575,1.0049872301724772,0.00412645129201133
1327.0959441172265,1327.0959441172265,0.9965604753589854,0.0041246354702151235
