time,time,flux,flux_err
1544.281635259182,1544.281635259182,1.0001339809311365,8.012763686929553e-05
1544.289968854053,1544.289968854053,0.999910407082799,8.008302967309636e-05
1544.2983024488465,1544.2983024488465,0.9998158817597614,8.008513857560401e-05
1544.305941577533,1544.305941577533,0.9999125813160752,7.312020298011232e-05
1544.3128862399406,1544.3128862399406,0.9998607866206919,7.310883405182404e-05
1544.3198309025354,1544.3198309025354,1.00015789267353,7.312545009155833e-05
1544.3267755648503,1544.3267755648503,1.000136533845114,7.309661044140805e-05
1544.3337202273515,1544.3337202273515,1.0000394918074489,7.309638874320465e-05
1544.3406648899459,1544.3406648899459,1.0002194773807038,7.310068877336998e-05
1544.3476095523542,1544.3476095523542,0.9998441166760393,7.307936961297896e-05
1544.3545542150416,1544.3545542150416,1.0000572067718436,7.307788147942578e-05
1544.3614988774495,1544.3614988774495,0.9999986420328174,7.308593651664536e-05
1544.3684435401374,1544.3684435401374,1.0000560020203682,7.307365199820182e-05
1544.3753882026383,1544.3753882026383,1.000027476752058,7.307201676047869e-05
1544.382332865233,1544.382332865233,0.9998369508623434,7.30280989454358e-05
1544.3892775280135,1544.3892775280135,0.9998569891602329,7.304144280889912e-05
1544.3962221904214,1544.3962221904214,0.9998078197027954,7.304406009372752e-05
1544.4031668531093,1544.4031668531093,1.0000822250358885,7.304824015545793e-05
1544.4101115158896,1544.4101115158896,1.0001420665795204,7.304484366213695e-05
1544.417056178298,1544.417056178298,0.9999322353728664,7.299630045551411e-05
1544.4240008409856,1544.4240008409856,1.0000093690633396,7.299844943401962e-05
1544.430945503766,1544.430945503766,1.0000883754105225,7.302699595515948e-05
1544.4378901665466,1544.4378901665466,0.9998933398544004,7.301432891796909e-05
1544.444834828862,1544.444834828862,1.0000961692368313,7.30291443163683e-05
1544.4517794916424,1544.4517794916424,0.9999372891093395,7.299721945103787e-05
1544.4587241544232,1544.4587241544232,0.9999653719760083,7.299822612107867e-05
1544.4656688172038,1544.4656688172038,0.9999798544480113,7.300572085514668e-05
1544.472613479705,1544.472613479705,0.9998352907111062,7.298557209610215e-05
1544.4795581422993,1544.4795581422993,1.000172651280487,7.300156874039839e-05
1544.4865028050801,1544.4865028050801,1.000163842724474,7.299922460244489e-05
1544.4934474678605,1544.4934474678605,1.0001245512994286,7.300380463719562e-05
1544.500392130641,1544.500392130641,1.00027348626851,7.29861424871245e-05
1544.5073367929563,1544.5073367929563,0.9996589751060941,7.2956684617597e-05
1544.514281455737,1544.514281455737,1.0000449656313148,7.298437724043563e-05
1544.521226118518,1544.521226118518,0.9999514448777769,7.297649399320101e-05
1544.528170781298,1544.528170781298,1.000014721302247,7.298206644323728e-05
1544.5351154437997,1544.5351154437997,1.0000023009749328,7.298505913819749e-05
1544.5420601063938,1544.5420601063938,1.0000122907604587,7.298236366926595e-05
1544.5490047691746,1544.5490047691746,1.0000549307518118,7.29712050350842e-05
1544.5559494319552,1544.5559494319552,1.0002135925656472,7.299486789898646e-05
1544.5628940943632,1544.5628940943632,0.9999490166208155,7.29766134825959e-05
1544.5698387570508,1544.5698387570508,0.9999752774111699,7.2977212258921e-05
1544.5767834198316,1544.5767834198316,0.9998603923601589,7.296118283275257e-05
1544.5837280823328,1544.5837280823328,0.9999606631056475,7.295904916238989e-05
1544.590672744927,1544.590672744927,0.9999826076152104,7.29660414226697e-05
1544.5976174077077,1544.5976174077077,0.9999715329411352,7.296328346442177e-05
1544.6045620701154,1544.6045620701154,1.0000467183228334,7.29732083611271e-05
1544.6115067328035,1544.6115067328035,1.000176311837386,7.295696564629285e-05
1544.6184513953976,1544.6184513953976,1.0000250341320505,7.296781935519396e-05
1544.6253960578993,1544.6253960578993,0.9999122390139188,7.295993072415864e-05
1544.6323407204932,1544.6323407204932,1.0000741116851497,7.295758571963116e-05
1544.6398409560172,1544.6398409560172,0.9998396612430323,7.294297697211891e-05
1544.6476189779587,1544.6476189779587,0.9999575975658906,7.296649078722399e-05
1544.6545636406463,1544.6545636406463,0.9998954969424169,7.293948413142047e-05
1544.6615083029612,1544.6615083029612,1.000113671275917,7.296986469489106e-05
1544.6684529655558,1544.6684529655558,1.0002229226342896,7.297355865496905e-05
1544.6753976280568,1544.6753976280568,0.9999464240718947,7.294680311862415e-05
1544.682342290372,1544.682342290372,1.0000225918234464,7.29552603989459e-05
1544.6892869528733,1544.6892869528733,1.000102704835576,7.295351810655614e-05
1544.696231615281,1544.696231615281,0.9998379409145798,7.29548158212152e-05
1544.7031762776894,1544.7031762776894,0.999939367254704,7.294507577951877e-05
1544.7101209400973,1544.7101209400973,1.000102475618638,7.294384444902044e-05
1544.7170656024125,1544.7170656024125,1.0000150687730383,7.295979252656658e-05
1544.7240102648204,1544.7240102648204,0.9998836427421243,7.294031152388453e-05
1544.7309549271354,1544.7309549271354,0.9999217130893058,7.29486188700982e-05
1544.7378995894505,1544.7378995894505,1.0001274604703694,7.296121295416821e-05
1544.7448442517657,1544.7448442517657,0.9998919739388732,7.295142379572785e-05
1544.7517889139876,1544.7517889139876,0.9998376863777297,7.29467021449766e-05
1544.7587335762091,1544.7587335762091,1.000120412005879,7.297411438419473e-05
1544.765678238431,1544.765678238431,0.9998071222104432,7.295411128865726e-05
1544.772622900653,1544.772622900653,1.0001640529314257,7.296676672842377e-05
1544.7795675628747,1544.7795675628747,1.0000405303257551,7.297285425118659e-05
1544.7865122249104,1544.7865122249104,0.9999473463750658,7.295826001843956e-05
1544.793456887132,1544.793456887132,1.0000286688703501,7.295714234163957e-05
1544.800401549261,1544.800401549261,0.9999988311700776,7.294365682352234e-05
1544.8073462112964,1544.8073462112964,0.9998186493266369,7.293507398744846e-05
1544.814290873425,1544.814290873425,0.9999527579397485,7.295077751095929e-05
1544.8212355354608,1544.8212355354608,0.9999277956367625,7.294315518421458e-05
1544.828180197403,1544.828180197403,1.0000903836546313,7.295943514303764e-05
1544.8351248594388,1544.8351248594388,1.000087211757908,7.296174713051418e-05
1544.8420695213808,1544.8420695213808,0.9999332919124744,7.296246018216014e-05
1544.8490141833238,1544.8490141833238,0.9999030489750005,7.296081233764987e-05
1544.855958845173,1544.855958845173,0.9999573835813388,7.295917059083341e-05
1544.8629035071153,1544.8629035071153,0.9999996058575844,7.294842070870525e-05
1544.8698481689648,1544.8698481689648,1.0001829904776656,7.295564915491259e-05
1544.876792830814,1544.876792830814,0.9999120986244542,7.295126423145312e-05
1544.8837374925702,1544.8837374925702,0.9999802473311309,7.295542429885877e-05
1544.8906821543264,1544.8906821543264,0.9999485630598235,7.295715003581228e-05
1544.8976268160825,1544.8976268160825,1.0000998100254839,7.294956215318389e-05
1544.904571477839,1544.904571477839,0.9998883279646469,7.294434934221875e-05
1544.9115161394088,1544.9115161394088,0.9999870899117758,7.294405547826762e-05
1544.9184608010717,1544.9184608010717,1.0002606704539043,7.295742301808702e-05
1544.9254054626415,1544.9254054626415,1.0000856177627164,7.294538115488704e-05
1544.9323501243048,1544.9323501243048,1.0000040536848602,7.293961209181795e-05
1544.9392947858744,1544.9392947858744,0.9999860760001307,7.291799076714075e-05
1544.9462394473514,1544.9462394473514,1.0000963622895291,7.292545223855526e-05
1544.9531841089213,1544.9531841089213,0.9999580826938148,7.290730883863456e-05
1544.960128770305,1544.960128770305,0.9997750202267717,7.29064062395432e-05
1544.967073431782,1544.967073431782,0.999944799962015,7.293009441921354e-05
1544.9740180931653,1544.9740180931653,1.0000747521298028,7.29314347564033e-05
1544.9809627545492,1544.9809627545492,0.9999831656226881,7.293587009615853e-05
1544.9879074158398,1544.9879074158398,1.000202476710087,7.29332246880653e-05
1544.9948520771297,1544.9948520771297,0.9998034864057287,7.290950188150187e-05
1545.0017967384206,1545.0017967384206,1.0001856966906146,7.292297889967203e-05
1545.0087413996177,1545.0087413996177,0.9999214238324002,7.291648167746761e-05
1545.0156860608151,1545.0156860608151,1.0000014291653023,7.292616135402887e-05
1545.0226307219195,1545.0226307219195,0.999876639945219,7.292400969638863e-05
1545.0295753831167,1545.0295753831167,1.0000572082405976,7.293486232511342e-05
1545.036520044128,1545.036520044128,1.0001717067408715,7.29310740803215e-05
1545.0434647052323,1545.0434647052323,1.0000233765672315,7.292931397756285e-05
1545.0504093662437,1545.0504093662437,0.9999722362000554,7.292170465902776e-05
1545.0573540271612,1545.0573540271612,0.9999842660863039,7.292365984639678e-05
1545.0642986880794,1545.0642986880794,1.0001060255434506,7.291909926179099e-05
1545.0712433489975,1545.0712433489975,0.9999319614827777,7.292269635753011e-05
1545.0781880098225,1545.0781880098225,1.0000555095786763,7.292897943284742e-05
1545.0851326706472,1545.0851326706472,0.9999174563606917,7.291171027829952e-05
1545.0920773315652,1545.0920773315652,0.999886035829963,7.291201908904627e-05
1545.0990219922037,1545.0990219922037,1.0000191677902428,7.291702578072808e-05
1545.1059666529356,1545.1059666529356,0.9999543107595692,7.291320834379073e-05
1545.112911313574,1545.112911313574,1.0001453530892181,7.292293065329331e-05
1545.1198559743057,1545.1198559743057,1.0001945855511136,7.291873027085939e-05
1545.126800634758,1545.126800634758,0.9999132885885617,7.291371523188081e-05
1545.1337452952102,1545.1337452952102,0.9998641390106894,7.291923731018234e-05
1545.1406899556628,1545.1406899556628,1.000057781464032,7.291644100051375e-05
1545.1476346164873,1545.1476346164873,1.000069905714983,7.292273921803718e-05
1545.1545792765673,1545.1545792765673,0.999951133530586,7.29131277149645e-05
1545.1615239370196,1545.1615239370196,1.0000403670855653,7.291569383403195e-05
1545.168468597472,1545.168468597472,1.000104006672812,7.291286718861819e-05
1545.175413257924,1545.175413257924,0.9998325680197976,7.289351171839301e-05
1545.182357918004,1545.182357918004,0.9998653999649019,7.290999333823488e-05
1545.1893025783634,1545.1893025783634,1.0001942219854922,7.291787279906701e-05
1545.196247238443,1545.196247238443,0.9999882329765803,7.288892741733345e-05
1545.2031918986156,1545.2031918986156,1.0000117200935588,7.288721765215069e-05
1545.2101365586955,1545.2101365586955,0.9998064754511592,7.28791559545306e-05
1545.2170812187753,1545.2170812187753,1.0000400815515262,7.288279986714967e-05
1545.2240258787624,1545.2240258787624,0.9999313295324919,7.287632705538718e-05
1545.230970538749,1545.230970538749,1.0000808424958096,7.288621572759777e-05
1545.2379151986424,1545.2379151986424,1.0000024318617282,7.28865601100415e-05
1545.2448598585358,1545.2448598585358,0.9999444459846842,7.288110098125867e-05
1545.2518045184293,1545.2518045184293,1.0000147111873694,7.288672339870314e-05
1545.2587491781364,1545.2587491781364,1.0001098938396251,7.289313565517048e-05
1545.2656938379369,1545.2656938379369,0.999990426853795,7.288554996367384e-05
1545.272638497551,1545.272638497551,0.9999916189760727,7.28946654165628e-05
1545.279583157258,1545.279583157258,0.9998516547705967,7.289123166060737e-05
1545.2865278168724,1545.2865278168724,1.0000899456200094,7.289869012875359e-05
1545.2934724763936,1545.2934724763936,0.9998989920059864,7.289709434263377e-05
1545.3004171359146,1545.3004171359146,1.0000302095528437,7.28996178745521e-05
1545.3073617954356,1545.3073617954356,0.9999693149578357,7.289886706134989e-05
1545.31430645477,1545.31430645477,1.0001168958010203,7.289766013541419e-05
1545.3212511142915,1545.3212511142915,1.0001413927434184,7.289508806498442e-05
1545.3281957735326,1545.3281957735326,1.0000324235120037,7.289674241622976e-05
1545.3351404328675,1545.3351404328675,0.9998383472388145,7.288786975752906e-05
1545.342085092109,1545.342085092109,0.9997412695633848,7.288496061185093e-05
1545.3490297511644,1545.3490297511644,1.0001096183077958,7.289844750088447e-05
1545.3559744104064,1545.3559744104064,1.000120119208996,7.288327645095486e-05
1545.3629190694614,1545.3629190694614,1.000007676800822,7.286764445791327e-05
1545.3698637285165,1545.3698637285165,0.9998806578998151,7.28854838113406e-05
1545.376808387572,1545.376808387572,1.0000103702758096,7.288090780968807e-05
1545.3837530465341,1545.3837530465341,1.0000637607960445,7.288931688038018e-05
1545.3906977054035,1545.3906977054035,1.0001499994763745,7.289960039819918e-05
1545.3976423642723,1545.3976423642723,0.999923165252077,7.288506794568607e-05
1545.404587023048,1545.404587023048,0.9999624174232917,7.287832578618418e-05
1545.4115316818243,1545.4115316818243,0.9999267404990008,7.287430044916236e-05
1545.4184763405071,1545.4184763405071,1.0000634377107736,7.288421802260834e-05
1545.42542099919,1545.42542099919,0.9999305189703893,7.28795200377261e-05
1545.4323656577794,1545.4323656577794,1.0000838931839442,7.28886839291656e-05
1545.4393103163693,1545.4393103163693,0.9998935898131458,7.28772679962364e-05
1545.4462549748655,1545.4462549748655,1.0001055771870453,7.288812643887255e-05
1545.4531996332694,1545.4531996332694,0.9999028266895309,7.287096413351036e-05
1545.4601442917658,1545.4601442917658,1.0001894612190156,7.289135335623642e-05
1545.4670889499826,1545.4670889499826,1.0000577179718515,7.288238806804693e-05
1545.4740336084792,1545.4740336084792,0.9999110034543284,7.287201646663334e-05
1545.480978266603,1545.480978266603,0.9998887130095433,7.286253555572492e-05
1545.4879229247274,1545.4879229247274,0.9999602933084653,7.28750280764305e-05
1545.4948675828512,1545.4948675828512,0.9999653594875667,7.287699739714541e-05
1545.5018122409754,1545.5018122409754,1.000063941077284,7.287511997972671e-05
1545.5087568990991,1545.5087568990991,1.0000870808775517,7.288660743429327e-05
1545.5157015572236,1545.5157015572236,0.9999108926857418,7.28768279188714e-05
1545.5226462150677,1545.5226462150677,1.0000854358901419,7.288042868118316e-05
1545.5295908730054,1545.5295908730054,1.0000856150519755,7.288774700999335e-05
1545.536535530757,1545.536535530757,0.9999677909359626,7.288622770747361e-05
1545.543480188602,1545.543480188602,0.9999287393992329,7.288171443667527e-05
1545.5504248463533,1545.5504248463533,0.9998338998089483,7.287677100057237e-05
1545.5573695040116,1545.5573695040116,1.0000493270996356,7.289166603629701e-05
1545.5643141616697,1545.5643141616697,0.9999769222040017,7.287027457754913e-05
1545.571258819235,1545.571258819235,1.000154455628869,7.289003360050415e-05
1545.5782034768001,1545.5782034768001,1.0000242823428631,7.287546947334915e-05
1545.5851481341792,1545.5851481341792,1.000045859471705,7.288808703301167e-05
1545.5920927916509,1545.5920927916509,1.0000082973932283,7.288556886326684e-05
1545.599037448937,1545.599037448937,0.999825287946518,7.28721210328544e-05
1545.6059821063159,1545.6059821063159,1.000159418477274,7.289928292565885e-05
1545.612926763602,1545.612926763602,0.9999865294616193,7.288641809529358e-05
1545.6198714207944,1545.6198714207944,0.9998962056299316,7.287817905943133e-05
1545.6268160778939,1545.6268160778939,0.9999571324925892,7.286494126293115e-05
1545.6337607349938,1545.6337607349938,1.000009370361197,7.28740657238988e-05
1545.640705392,1545.640705392,1.000018096128334,7.2888037894658e-05
1545.6476500490996,1545.6476500490996,0.9999696843686625,7.287250891216578e-05
1545.6545947059196,1545.6545947059196,1.0000120044497738,7.288217731610929e-05
1545.661539362833,1545.661539362833,1.0002150375233752,7.28862304524687e-05
1545.668484019653,1545.668484019653,1.0000396720993083,7.288474896710108e-05
1545.6754286763803,1545.6754286763803,1.0001238704303492,7.28910563759835e-05
1545.682373333107,1545.682373333107,0.9998673815700313,7.287900910771199e-05
1545.689317989741,1545.689317989741,0.9999472867345072,7.287174816560731e-05
1545.6962626463749,1545.6962626463749,0.9999310629698754,7.287325425165135e-05
1545.7032073029156,1545.7032073029156,1.0000523792850067,7.288237766116034e-05
1545.710151959363,1545.710151959363,1.000015723433536,7.287914770013603e-05
1545.7170966157178,1545.7170966157178,1.0000738363185513,7.288152214675436e-05
1545.7240412721653,1545.7240412721653,0.9999585040876153,7.28859598730751e-05
1545.7309859284264,1545.7309859284264,0.9998294139209076,7.287389984224684e-05
1545.737930584688,1545.737930584688,1.0001433714219226,7.289590187642077e-05
1545.7448752408566,1545.7448752408566,1.000067721748446,7.288195994627214e-05
1545.7518198971175,1545.7518198971175,0.9999690893353892,7.288607372223194e-05
1545.7587645530996,1545.7587645530996,1.0001214863443246,7.288587822518035e-05
1545.7657092091742,1545.7657092091742,1.0000155809058808,7.288579918230855e-05
1545.7726538649704,1545.7726538649704,0.9999019713608439,7.28782042107845e-05
1545.7795985212317,1545.7795985212317,1.000017536653679,7.289102634744285e-05
1545.7865431770272,1545.7865431770272,0.9999254661605477,7.289074026421649e-05
1545.793487832823,1545.793487832823,0.9999185637520689,7.288771969039266e-05
1545.8004324886185,1545.8004324886185,1.0001432609757253,7.289045690985296e-05
1545.8073771439488,1545.8073771439488,0.9999174803326121,7.28776867826653e-05
1545.8143217997442,1545.8143217997442,1.0000029325897812,7.288731338566434e-05
1545.8212664552607,1545.8212664552607,0.9999505624670981,7.288519161890262e-05
1545.82821111087,1545.82821111087,0.9999539492490814,7.288344609203076e-05
1545.8351557662002,1545.8351557662002,0.9999803316921214,7.288261734964482e-05
1545.8421004216232,1545.8421004216232,1.000191717292247,7.289795272558881e-05
1545.8490450769534,1545.8490450769534,1.000114436194144,7.28896198527613e-05
1545.8559897322832,1545.8559897322832,1.0000983786009825,7.288153175996593e-05
1545.862934387427,1545.862934387427,1.0000580754629729,7.288578003773847e-05
1545.8698790425708,1545.8698790425708,0.9999477658600611,7.288274484287509e-05
1545.8768236977146,1545.8768236977146,0.9999956739373388,7.288151007402526e-05
1545.883768352765,1545.883768352765,1.0000081177719793,7.28875839610401e-05
1545.8907130077228,1545.8907130077228,0.9999976155458233,7.287078695834888e-05
1545.8976576625869,1545.8976576625869,0.999780165949754,7.28823963128967e-05
1545.9046023174515,1545.9046023174515,1.0000372506686415,7.288877960875383e-05
1545.9115469722224,1545.9115469722224,1.0000449661590378,7.288117735562709e-05
1545.9184916269937,1545.9184916269937,1.0000768880774746,7.28833598841541e-05
1545.9254362816723,1545.9254362816723,1.0000592224399676,7.288261008523934e-05
1545.9323809362565,1545.9323809362565,0.9997839460942458,7.287101225470505e-05
1545.939325590842,1545.939325590842,1.0002766584598728,7.289358898823451e-05
1545.9462702453334,1545.9462702453334,0.9999908217158534,7.288089387270793e-05
1545.9532148997325,1545.9532148997325,1.0001580533743457,7.28944517386842e-05
1545.9601595540382,1545.9601595540382,0.9998991180205726,7.287775390990278e-05
1545.9671042084365,1545.9671042084365,0.9999426258570263,7.287733016257564e-05
1545.974048862742,1545.974048862742,0.9997994710129365,7.287772276969637e-05
1545.9809935167686,1545.9809935167686,1.0000007990480362,7.288235121079855e-05
1545.987938170981,1545.987938170981,0.999912572930184,7.287617926548073e-05
1545.994882825007,1545.994882825007,1.0002472038853396,7.288596163216137e-05
1546.0018274790332,1546.0018274790332,1.0003035213381688,7.289495366599905e-05
1546.0087721329662,1546.0087721329662,1.000062467498775,7.288795956996386e-05
1546.0157167868995,1546.0157167868995,0.9998788210206421,7.287978243281609e-05
1546.022661440646,1546.022661440646,0.9997507867517097,7.287077550030632e-05
1546.0296060944854,1546.0296060944854,0.9999749171194316,7.287770212097546e-05
1546.0365507480467,1546.0365507480467,0.9999447806837136,7.28641942547394e-05
1546.0434954018863,1546.0434954018863,1.0001037902258232,7.28819351217228e-05
1546.0504400553532,1546.0504400553532,0.9999327021176271,7.287494235665364e-05
