time,time,flux,flux_err
1437.9965616821655,1437.9965616821655,0.9999441430435326,0.0002084078183186244
1438.0048951500337,1438.0048951500337,0.9999538417120292,0.00020818943071534084
1438.0132286182118,1438.0132286182118,0.9999112528953639,0.00020791641488373513
1438.0208676309671,1438.0208676309671,1.0005169730353822,0.00018968071411680243
1438.0278121882413,1438.0278121882413,0.9996000702242828,0.00018948839732127806
1438.0347567457711,1438.0347567457711,1.0002612692538324,0.00018936050346313575
1438.0417013034412,1438.0417013034412,1.0001001733574317,0.00018922395261474148
1438.0486458613902,1438.0486458613902,0.9998604446170042,0.00018907030409072602
1438.0555904194323,1438.0555904194323,1.0002439976882282,0.00018897938545054703
1438.062534977731,1438.062534977731,1.0006438544532483,0.00018889370422607246
1438.0694795361921,1438.0694795361921,0.9995793015971206,0.0001886850398704304
1438.0764240948863,1438.0764240948863,0.999956640167226,0.00018856442871955677
1438.0833686537437,1438.0833686537437,1.000029845727105,0.0001884881180245559
1438.090313212764,1438.090313212764,0.9999956650518061,0.00018838917180299353
1438.0972577719938,1438.0972577719938,1.0002630855054788,0.00018827346532158625
1438.1042023313864,1438.1042023313864,0.9999771384329051,0.00018818093069693356
1438.1111468909419,1438.1111468909419,0.9997692913742771,0.0001880536707341495
1438.1180914506608,1438.1180914506608,0.9995329549984069,0.00018798149819368605
1438.1250360105655,1438.1250360105655,1.000267370987229,0.0001878838832321319
1438.1319805706337,1438.1319805706337,0.9997858181991311,0.0001877183526341754
1438.1389251308178,1438.1389251308178,0.999888629568719,0.00018767842217530623
1438.1458696912118,1438.1458696912118,1.0001334507574773,0.00018753187971274439
1438.1528142517457,1438.1528142517457,1.0002818920653513,0.00018742944943220206
1438.1597588124187,1438.1597588124187,1.000057857009487,0.00018734940613647036
1438.1667033732779,1438.1667033732779,1.0002114502486494,0.0001872585009595427
1438.173647934231,1438.173647934231,0.9995053389818034,0.00018715952840104333
1438.1805924953467,1438.1805924953467,1.000120714723876,0.00018710760804214446
1438.1875370566254,1438.1875370566254,0.9992941420908702,0.0001869608903498736
1438.194481617997,1438.194481617997,1.0005189464083817,0.00018694089480345607
1438.201426179555,1438.201426179555,1.0001904283130267,0.00018688757185695987
1438.2083707412064,1438.2083707412064,0.9995781905940516,0.00018677846715824643
1438.2153153029972,1438.2153153029972,0.9995767165422432,0.00018673459181343634
1438.2222598649041,1438.2222598649041,0.999589295144388,0.0001866380490020482
1438.2292044269284,1438.2292044269284,1.0001438625428078,0.0001865980876967238
1438.2361489891148,1438.2361489891148,0.9999312754709517,0.00018654317330322096
1438.2430935513717,1438.2430935513717,0.9997202891505698,0.00018647814954002832
1438.250038113768,1438.250038113768,1.0002326827294774,0.00018644868482600417
1438.2569826763036,1438.2569826763036,0.9999310227911945,0.00018641938916947082
1438.263927238886,1438.263927238886,1.0001054042780269,0.00018636294400222215
1438.2708718016781,1438.2708718016781,0.9999286955236084,0.00018634427153805605
1438.277816364493,1438.277816364493,1.0005778717108345,0.00018630562356704256
1438.2847609274486,1438.2847609274486,1.0000759950763458,0.00018627397406414974
1438.2917054904733,1438.2917054904733,1.000010496417771,0.00018625829495296672
1438.2986500536613,1438.2986500536613,0.9995754903181506,0.00018618001088918445
1438.3055946168956,1438.3055946168956,0.9997593769642462,0.000186164714501567
1438.3125391802,1438.3125391802,0.9999797990952315,0.00018614203274019473
1438.3194837436442,1438.3194837436442,0.9999458718077483,0.00018611180997002555
1438.3264283071578,1438.3264283071578,1.000601143410584,0.00018617421495871475
1438.3333728707878,1438.3333728707878,0.9996683445174244,0.0001860414331755389
1438.3403174344646,1438.3403174344646,1.0001685598825543,0.00018605042853553255
1438.3472619982813,1438.3472619982813,0.9997617016259855,0.0001859966957049747
1438.3542065621446,1438.3542065621446,0.9997372974400587,0.00018593657763261496
1438.3611511261006,1438.3611511261006,1.0004500625173096,0.00018590630163979222
1438.3680956901267,1438.3680956901267,0.9990143790706043,0.00018588743492462274
1438.3750402542225,1438.3750402542225,1.0003083732994806,0.00018592072883562408
1438.3819848184116,1438.3819848184116,1.0003075982099339,0.00018589801844945178
1438.3889293826703,1438.3889293826703,1.0002533343018385,0.00018585680417964882
1438.3958739469763,1438.3958739469763,0.9998736855353293,0.00018580427638568162
1438.4028185113743,1438.4028185113743,1.0002297968337117,0.00018579983657372962
1438.4097630758665,1438.4097630758665,1.0001336710703101,0.0001857282201123582
1438.4167076403812,1438.4167076403812,0.9997286054566861,0.00018575768134952237
1438.4236522049891,1438.4236522049891,0.9995362464868947,0.00018569208840890243
1438.4305967696441,1438.4305967696441,0.9992625901637983,0.00018571660593127965
1438.4375413343685,1438.4375413343685,1.0002184748573386,0.00018573170621052806
1438.4444858991396,1438.4444858991396,1.0002647567927776,0.00018573570558607635
1438.451430463981,1438.451430463981,0.9998195281117956,0.0001857491095099731
1438.4583750288916,1438.4583750288916,1.0001478893024163,0.00018572464624703165
1438.4653195938722,1438.4653195938722,0.9996587944287526,0.0001857172528726336
1438.4722641588523,1438.4722641588523,1.0011318434604934,0.00018576852387853403
1438.47920872388,1438.47920872388,0.9989735556285053,0.00018578197464954503
1438.4861532890004,1438.4861532890004,0.999817294793732,0.0001856915442941483
1438.4930978541438,1438.4930978541438,1.000026307941021,0.0001856544896309398
1438.5000424193574,1438.5000424193574,0.999831033649761,0.00018570724247123587
1438.5069869845943,1438.5069869845943,0.9994011598590322,0.0001857053381530053
1438.5139315498775,1438.5139315498775,1.000641960511635,0.0001857485988956456
1438.5208761152307,1438.5208761152307,0.9994650401318756,0.00018570614456967315
1438.5278206806074,1438.5278206806074,0.9997365127057171,0.0001857216318333076
1438.5347652460302,1438.5347652460302,1.0008632276149145,0.00018574193943267652
1438.5417098114765,1438.5417098114765,1.0004979027747027,0.00018576121392231286
1438.5486543769928,1438.5486543769928,1.0010505840141315,0.00018579425449203498
1438.5555989424624,1438.5555989424624,0.999509667172253,0.00018575073159367644
1438.562543508025,1438.562543508025,1.0002330881777894,0.0001857508837215466
1438.5694880737042,1438.5694880737042,0.9998320815664824,0.00018569868637558057
1438.5764326392903,1438.5764326392903,0.9999341898949764,0.0001857300457657498
1438.583377204969,1438.583377204969,1.0004882659148406,0.0001857117443578848
1438.590321770672,1438.590321770672,0.999745281472688,0.00018572863972528557
1438.5972663363746,1438.5972663363746,1.0000732626960451,0.00018570254952469828
1438.6042109021466,1438.6042109021466,0.9991131780638256,0.00018570133546870146
1438.6111554679192,1438.6111554679192,0.9984547013144927,0.00018571952439208581
1438.6181000337144,1438.6181000337144,1.000404744126832,0.00018558829332923833
1438.62504459958,1438.62504459958,1.0003793687300488,0.0001857267366570711
1438.6319891654218,1438.6319891654218,0.9994660445243586,0.00018569105365167
1438.6389337312871,1438.6389337312871,0.9998330044802577,0.00018564779062908037
1438.6458782971995,1438.6458782971995,0.9999819779512201,0.00018567732470575125
1438.6528228631116,1438.6528228631116,1.000494785653785,0.0001857348732972628
1438.659767429047,1438.659767429047,0.9998257631884879,0.00018568319113808755
1438.6667119950055,1438.6667119950055,0.999769926661229,0.00018568929508689286
1438.6736565609874,1438.6736565609874,1.0002788613449225,0.0001856915633193896
1438.680601126969,1438.680601126969,1.0000704628149482,0.0001856873140817134
1438.6875456929972,1438.6875456929972,1.0001780776602196,0.00018570169162877465
1438.6944902590024,1438.6944902590024,0.9998078050966683,0.00018570910476429042
1438.701434825054,1438.701434825054,0.9998569000514997,0.00018568321593840704
1438.7083793911058,1438.7083793911058,1.0004803087595842,0.00018570692418489303
1438.7153239571576,1438.7153239571576,1.0002036942250223,0.00018569022083136837
1438.7222685232325,1438.7222685232325,1.000762104905706,0.00018572201723191184
1438.7292130893309,1438.7292130893309,1.000384141125623,0.00018572789247087187
1438.736157655429,1438.736157655429,1.0003209474967107,0.00018569675701432856
1438.7431022215042,1438.7431022215042,1.000478874650843,0.00018571978921230102
1438.7500467876484,1438.7500467876484,1.0000721828861399,0.00018570187625362194
1438.7569913537936,1438.7569913537936,0.9999591774328674,0.00018565450030410836
1438.763935919892,1438.763935919892,0.9992328012373897,0.0001855306600835128
1438.770880485967,1438.770880485967,0.9988368859492411,0.0001854933841573994
1438.777825052112,1438.777825052112,0.9998431643887725,0.00018562042895664982
1438.7847696182566,1438.7847696182566,1.0001794810867524,0.0001856325652463137
1438.7917141844014,1438.7917141844014,1.000247837654655,0.00018567011993967893
1438.798658750546,1438.798658750546,0.9991533115446453,0.00018562174657282845
1438.8056033166908,1438.8056033166908,0.9994030848871231,0.00018562234593992518
1438.8125478828358,1438.8125478828358,1.000351423877546,0.00018565282866978477
1438.819492448981,1438.819492448981,1.0000885368044905,0.00018568015130225151
1438.8264370151253,1438.8264370151253,1.000110515031443,0.00018568370807555158
1438.8333815813635,1438.8333815813635,1.0001977565820412,0.0001855910214824106
1438.8403261475316,1438.8403261475316,0.9993284658848018,0.00018557215504245154
1438.8472707136764,1438.8472707136764,0.9984656305267935,0.00018561037440398696
1438.8542152798213,1438.8542152798213,1.0001977600960246,0.0001856747166252268
1438.8611598459192,1438.8611598459192,0.9990985381139058,0.00018565394300311383
1438.8681044119946,1438.8681044119946,1.0003733793073661,0.00018566228566815982
1438.8750489781394,1438.8750489781394,0.9991501248076275,0.0001856450472661524
1438.8819935442841,1438.8819935442841,0.999594640207825,0.00018569528404715284
1438.888938110429,1438.888938110429,1.000434993526481,0.0001856772660041846
1438.8958826765736,1438.8958826765736,0.9997541756288173,0.00018560309445649184
1438.9028272426253,1438.9028272426253,1.000522474344295,0.00018568799986573228
1438.909771808747,1438.909771808747,0.9995594301410176,0.00018570296365990086
1438.9167163748452,1438.9167163748452,1.0004490505239896,0.00018562663613186752
1438.9236609409204,1438.9236609409204,0.9999807837520592,0.00018570763276491367
1438.9306055069956,1438.9306055069956,0.9995347912299358,0.00018563319658805932
1438.93755007307,1438.93755007307,0.9997741828908161,0.00018564726971704654
1438.9444946391222,1438.9444946391222,0.9990332831594507,0.00018560850836252336
1438.95143920515,1438.95143920515,0.9999529679594085,0.00018561380137686013
1438.958383771202,1438.958383771202,0.9999923498700918,0.00018557025930098344
1438.9653283372072,1438.9653283372072,1.0000289590482296,0.000185669888791616
1438.9722729032123,1438.9722729032123,1.0000653566840962,0.00018569020263619124
1438.9792174692177,1438.9792174692177,1.0000342868322676,0.0001856482593318825
1438.9861620351992,1438.9861620351992,0.9999056005617799,0.00018568047244337766
1438.993106601158,1438.993106601158,1.0005259705746878,0.00018571495907141234
1439.0000511671165,1439.0000511671165,1.0000975755257255,0.00018564811905168215
1439.0069957330752,1439.0069957330752,0.99956351318493,0.0001856551943834784
1439.0139402989869,1439.0139402989869,0.9999057958243572,0.00018565446688469908
1439.0208848648992,1439.0208848648992,1.0005091756238653,0.00018564973310815916
1439.0278294307877,1439.0278294307877,1.0002086571840232,0.000185715058944365
1439.0347739966767,1439.0347739966767,0.9996038638157619,0.000185670500254822
1439.0417185625654,1439.0417185625654,0.9994850528274778,0.00018568406539010339
1439.0486631283839,1439.0486631283839,0.9995652732551301,0.00018562727691989015
1439.0556076942032,1439.0556076942032,1.0005155190641912,0.00018572188611720898
1439.0625522600217,1439.0625522600217,1.0006272719350762,0.00018573473751142813
1439.0694968258174,1439.0694968258174,1.0001206544584453,0.00018567943051981225
1439.0764413915663,1439.0764413915663,1.0002627352447757,0.00018571797468991232
1439.0833859573154,1439.0833859573154,0.9997145422248039,0.00018566383669800952
1439.0903305230647,1439.0903305230647,0.9995264371721528,0.00018566205150536813
1439.0972750887904,1439.0972750887904,0.9996912658512261,0.0001856768905671934
1439.1042196544693,1439.1042196544693,0.999746947337733,0.00018566278690597767
1439.111164220149,1439.111164220149,1.000736552817881,0.00018571587210256088
1439.118108785781,1439.118108785781,0.9994937114301063,0.00018568276219689734
1439.1250533514371,1439.1250533514371,1.000116562363878,0.00018568415149027828
1439.1319979169998,1439.1319979169998,1.0005147528845546,0.00018569023138418825
1439.138942482656,1439.138942482656,1.0003907129673864,0.00018574148454028507
1439.1458870482422,1439.1458870482422,0.9995643744662079,0.00018571903205697414
1439.1528316136882,1439.1528316136882,0.999924976622309,0.00018567216808256656
1439.159776179251,1439.159776179251,0.9996623965284321,0.00018570472781310107
1439.1667207447438,1439.1667207447438,1.0000639085259833,0.00018571490130989094
1439.1736653102134,1439.1736653102134,1.0000590468327633,0.00018566336930339746
1439.1806098756597,1439.1806098756597,1.0002502498466723,0.00018570839852271104
1439.1875544410827,1439.1875544410827,0.9996277730624312,0.0001856180706647781
1439.1944990064826,1439.1944990064826,1.0000271286752458,0.00018566657456030596
1439.2014435718595,1439.2014435718595,1.0005033369770664,0.00018568450157449494
1439.2083881372123,1439.2083881372123,1.000055739561912,0.00018567397856385665
1439.2153327025421,1439.2153327025421,0.9990650119081088,0.0001856682952658247
1439.2222772678258,1439.2222772678258,1.0001563259990351,0.00018565741150710423
1439.229221833109,1439.229221833109,0.999761308062534,0.00018565863255872342
1439.236166398369,1439.236166398369,0.9995976160675385,0.0001856986316141047
1439.243110963583,1439.243110963583,1.0002841721886349,0.00018566286834606407
1439.250055528773,1439.250055528773,0.9995389776383019,0.0001856619893463183
1439.25700009394,1439.25700009394,0.9996007708706547,0.0001856848526052629
1439.2639446590604,1439.2639446590604,0.9996456621847829,0.00018566229059219927
1439.2708892242038,1439.2708892242038,0.9995442016246692,0.00018567852799743296
1439.2778337892778,1439.2778337892778,0.9999929787852204,0.0001856909797577626
1439.2847783543514,1439.2847783543514,1.0007575160265132,0.00018569875297508594
1439.2917229193556,1439.2917229193556,0.9997613073125823,0.0001856781562955957
1439.298667484336,1439.298667484336,0.9997447355050533,0.00018571925898612932
1439.3056120493168,1439.3056120493168,0.9999588236439472,0.00018560466305222033
1439.3125566142976,1439.3125566142976,1.0000307263712909,0.00018567549847124643
1439.319501179162,1439.319501179162,0.9993307307564393,0.00018563708326591722
1439.3264457440725,1439.3264457440725,0.9999760120963384,0.00018561391964684948
1439.3333903089372,1439.3333903089372,0.9998509923820859,0.00018565096168844856
1439.3403348737545,1439.3403348737545,0.9992662693530162,0.00018562847129907468
1439.347279438549,1439.347279438549,1.0002903964095224,0.00018566027475203979
1439.3542240032968,1439.3542240032968,0.9997711811576571,0.00018567576655033203
1439.3611685680214,1439.3611685680214,0.9993022437355531,0.0001855748450274502
1439.368113132723,1439.368113132723,1.00000514287276,0.00018565655161338355
1439.375057697401,1439.375057697401,1.0002783938582187,0.0001856965986819827
1439.3820022620553,1439.3820022620553,0.9997033325332982,0.00018567973767613815
1439.3889468266402,1439.3889468266402,0.999598517195419,0.00018567016976706534
1439.3958913912252,1439.3958913912252,1.0003226737392696,0.00018573216697227756
1439.4028359557637,1439.4028359557637,0.9991782540262664,0.0001856182865707015
1439.4097805203019,1439.4097805203019,0.9998258894164433,0.00018570360149864422
1439.4167250847936,1439.4167250847936,0.999454671560958,0.0001856622345394868
1439.4236696492158,1439.4236696492158,1.0006393891867664,0.0001856665572990076
1439.4306142136143,1439.4306142136143,0.9997624193297062,0.0001856454629427151
1439.4375587780128,1439.4375587780128,1.000496420578778,0.00018566044508239312
1439.444503342388,1439.444503342388,1.0006676247107165,0.00018567730222118176
1439.4514479066936,1439.4514479066936,0.9994857709293935,0.00018568328701164036
1439.458392470976,1439.458392470976,1.0002240393887605,0.00018567627117136676
1439.4653370352114,1439.4653370352114,1.0004722559778674,0.00018567058869290565
1439.4722815994471,1439.4722815994471,1.0002002866869169,0.00018566876602073035
1439.4792261636362,1439.4792261636362,0.9996427276436641,0.0001856550889238344
1439.486170727779,1439.486170727779,0.999475089448784,0.00018561919370633942
1439.4931152918978,1439.4931152918978,1.000492662986032,0.0001856662816010106
1439.5000598559704,1439.5000598559704,1.0003327781238875,0.00018565153305652465
1439.50700442002,1439.50700442002,1.0001354020687374,0.00018568191149530527
1439.5139489840226,1439.5139489840226,0.998956613954858,0.00018559316881268053
1439.5208935480255,1439.5208935480255,0.9997811220410456,0.0001856354787002858
1439.5278381119583,1439.5278381119583,0.9999066924850315,0.00018560581761363802
1439.5347826758682,1439.5347826758682,0.9996206156732764,0.00018560105090993125
1439.5417272397315,1439.5417272397315,0.9996232889836323,0.00018556681646852074
1439.5486718036177,1439.5486718036177,0.9997988282783871,0.00018560562529819276
1439.5556163673878,1439.5556163673878,0.998916853638797,0.00018557774250182202
1439.5625609311344,1439.5625609311344,1.0000473341839995,0.0001855787926416345
1439.5695054948812,1439.5695054948812,0.9991598331086742,0.00018556820782544289
1439.5764500585813,1439.5764500585813,0.9999230374599986,0.0001855691893002318
1439.5833946222347,1439.5833946222347,1.0004001177754085,0.00018559302352063497
1439.590339185865,1439.590339185865,0.9998366614639321,0.00018558366066605335
1439.597283749449,1439.597283749449,0.999877320172029,0.0001855828182689507
1439.6042283130091,1439.6042283130091,0.9999799414461442,0.00018557739377408967
1439.6111728765231,1439.6111728765231,1.0000095559187632,0.00018560701524632345
1439.6181174399903,1439.6181174399903,0.9997539860455846,0.00018561896274662556
1439.6250620034346,1439.6250620034346,0.9997298974664327,0.00018564549040762408
1439.632006566832,1439.632006566832,1.0003776110520373,0.00018562713967235864
1439.638951130206,1439.638951130206,0.9999636663862305,0.00018566011700144443
1439.645895693557,1439.645895693557,0.9998794838951321,0.00018559974059562432
1439.6528402567915,1439.6528402567915,1.0000115802514928,0.00018562668290444983
1439.6597848201188,1439.6597848201188,1.0002612288391584,0.00018565575727732064
1439.6667293832606,1439.6667293832606,0.9993904837096309,0.0001855671156211019
1439.6736739464948,1439.6736739464948,0.9998854913150221,0.00018563768081214242
1439.6806185096361,1439.6806185096361,0.9998494274185807,0.00018559681189010745
1439.687563072754,1439.687563072754,0.9999238141181402,0.00018563752657075613
1439.6945076358022,1439.6945076358022,0.9999893360593768,0.00018563269795318047
1439.7014521988272,1439.7014521988272,0.9999892301270517,0.00018566213018085369
1439.708396761829,1439.708396761829,0.9999033485963034,0.0001856130583253552
1439.7153413247609,1439.7153413247609,1.0001398545744977,0.00018564505668877717
1439.7222858876928,1439.7222858876928,0.9996208174370453,0.00018563572116452523
1439.7292304505777,1439.7292304505777,0.9992858378484518,0.00018560068615217922
1439.7361750134164,1439.7361750134164,0.9997936062197288,0.00018565523413036116
1439.7431195762085,1439.7431195762085,0.9999721123099434,0.00018566072658686086
