time,time,flux,flux_err
1325.3002762318029,1325.3002762318029,1.000001541331086,0.00032466284838607605
1325.3086097567611,1325.3086097567611,0.9998260223967247,0.0003247565374372287
1325.3162488214039,1325.3162488214039,0.9999722827838221,0.0002965136727776763
1325.32319342573,1325.32319342573,1.0003182243376532,0.00029665042629256134
1325.3301380300795,1325.3301380300795,0.9995987349077016,0.00029662438025247404
1325.3370826345456,1325.3370826345456,1.0003645926305933,0.00029674877771346817
1325.3440272390583,1325.3440272390583,1.0002778062561393,0.0002967807212417505
1325.3509718436403,1325.3509718436403,0.9999138708198382,0.00029682004871610075
1325.3579164482926,1325.3579164482926,1.0000158429107011,0.00029688842372267384
1325.364861053038,1325.364861053038,1.0000876066966533,0.00029689632236401347
1325.3718056578768,1325.3718056578768,0.9998581915018935,0.0002968948211338216
1325.3787502626685,1325.3787502626685,0.9998731269444991,0.0002969433270168414
1325.38569486767,1325.38569486767,1.0004161140679142,0.00029704427874199357
1325.3926394726482,1325.3926394726482,0.9996739621507114,0.0002969881498506335
1325.3995840777425,1325.3995840777425,0.99991257351949,0.00029704885611973067
1325.4065286828604,1325.4065286828604,0.999980850601192,0.0002970965324575101
1325.413473288048,1325.413473288048,0.9999913535858216,0.0002970725843336107
1325.4204178933292,1325.4204178933292,0.9999808156148429,0.00029710635557698956
1325.427362498633,1325.427362498633,1.0000838050298588,0.00029715023254165486
1325.43430710403,1325.43430710403,1.0004316950552528,0.00029720891229659794
1325.4412517094047,1325.4412517094047,0.9997642146248242,0.00029711218022491375
1325.448196314918,1325.448196314918,0.9999897101724855,0.000297173871265485
1325.4551409205017,1325.4551409205017,0.9998376062899357,0.0002971496345091003
1325.462085526085,1325.462085526085,0.9999374514520983,0.0002971614712063659
1325.4690301317617,1325.4690301317617,0.9998287979551439,0.0002971764311865352
1325.475974737485,1325.475974737485,1.000138409574273,0.0002972177806160185
1325.4829193432547,1325.4829193432547,1.0002119798282023,0.0002972759237628481
1325.4898639490712,1325.4898639490712,0.9996400122870408,0.00029724074959322895
1325.4968085549576,1325.4968085549576,1.000312076607099,0.00029733791344881057
1325.50375316089,1325.50375316089,1.0000278883600588,0.00029729519282290764
1325.5106977668697,1325.5106977668697,1.0002298795884972,0.0002973583145049616
1325.5176423729185,1325.5176423729185,0.9999508161228977,0.0002973352641139827
1325.5245869789912,1325.5245869789912,0.999785473179762,0.0002973599838793363
1325.531531585087,1325.531531585087,0.9995739729141377,0.0002973675193342237
1325.5384761912526,1325.5384761912526,0.9998869632681187,0.0002974364741473795
1325.5454207974647,1325.5454207974647,1.0000235161888615,0.00029745103428898366
1325.5523654037236,1325.5523654037236,1.0006650919626314,0.00029755394090688603
1325.559310010029,1325.559310010029,0.9999567112544824,0.000297485514291246
1325.5662546163574,1325.5662546163574,1.0001308717233983,0.0002975628974484441
1325.573199222779,1325.573199222779,0.9998490641124121,0.0002975530369529393
1325.5801438291778,1325.5801438291778,0.9997061031819611,0.0002975596857302849
1325.5870884356693,1325.5870884356693,0.9997626110239203,0.0002975913271359294
1325.594033042184,1325.594033042184,1.0005737412819928,0.0002977167127179437
1325.600977648722,1325.600977648722,0.9997366831796622,0.0002976518646728933
1325.60792225533,1325.60792225533,1.00024326807891,0.00029773587562817563
1325.6148668619148,1325.6148668619148,1.0000236133142182,0.0002977216656294222
1325.6218114685694,1325.6218114685694,1.000032666988471,0.00029772384427014865
1325.6287560753403,1325.6287560753403,0.999983387014062,0.0002977241857869327
1325.6357006820415,1325.6357006820415,0.9998250897035404,0.00029773654105455375
1325.6426452888124,1325.6426452888124,0.9999540357993343,0.0002977621423011388
1325.6495898956298,1325.6495898956298,0.9999467440520112,0.0002977657798246137
1325.6565345024708,1325.6565345024708,1.0001575906378943,0.00029779420446844694
1325.6634791093347,1325.6634791093347,0.9998864043548406,0.00029775429481270903
1325.6704237162455,1325.6704237162455,0.9997533639044477,0.0002977460618564693
1325.6773683231793,1325.6773683231793,1.000332373183052,0.0002978247661046987
1325.68431293016,1325.68431293016,0.9997666801844476,0.00029777947045272167
1325.6912575371641,1325.6912575371641,1.0000378653560467,0.00029781556470000024
1325.6982021441677,1325.6982021441677,1.0003831104926408,0.0002979032305693932
1325.705146751265,1325.705146751265,1.000337219083449,0.0002978848448665381
1325.7120913583149,1325.7120913583149,0.999733831175164,0.00029781882703218177
1325.7190359654585,1325.7190359654585,0.9995106052761527,0.000297882828693928
1325.7259805725785,1325.7259805725785,1.0004353979228358,0.000297994499049459
1325.7329251797453,1325.7329251797453,0.9996216307805927,0.0002979201348775967
1325.7398697869357,1325.7398697869357,0.9996402126632337,0.00029797971899831436
1325.7468143941721,1325.7468143941721,1.0003866263087162,0.0002981090340715437
1325.7537590014085,1325.7537590014085,1.0000164692603122,0.00029812176115880004
1325.7607036086456,1325.7607036086456,1.0002190054514686,0.00029820117137599277
1325.7676482159984,1325.7676482159984,1.00000790293054,0.00029821300255239316
1325.7745928232819,1325.7745928232819,1.0000138382238437,0.0002982666564373334
1325.7815374306347,1325.7815374306347,0.9996736048316495,0.00029821928964369717
1325.7884820379882,1325.7884820379882,1.0002466340939151,0.00029837763936634156
1325.795426645364,1325.795426645364,0.9995315201222592,0.00029829469598989885
1325.8023712527636,1325.8023712527636,1.0002564804031375,0.00029844478702294365
1325.8093158601869,1325.8093158601869,1.0001612016008723,0.0002984543132213928
1325.8162604676327,1325.8162604676327,1.0000571512301923,0.0002984914334004668
1325.8232050751026,1325.8232050751026,1.0001629738238713,0.00029849055263350227
1325.8301496825718,1325.8301496825718,1.0000830370909504,0.0002985469525989031
1325.8370942900876,1325.8370942900876,1.000120214229574,0.0002985816140761687
1325.8440388976042,1325.8440388976042,0.9993415969901962,0.0002985208307013915
1325.850983505143,1325.850983505143,1.0002416193232306,0.00029863358032864346
1325.8579281126824,1325.8579281126824,1.0001248777111358,0.00029865227865180286
1325.864872720245,1325.864872720245,0.9996063616943316,0.0002986220161971311
1325.8718173278544,1325.8718173278544,1.0000877581849628,0.00029865499198020135
1325.8787619354403,1325.8787619354403,1.0001373559980395,0.0002986732012043181
1325.885706543049,1325.885706543049,1.0002327591475353,0.0002986775138541059
1325.892651150682,1325.892651150682,0.9999050167051904,0.0002986111920056596
1325.8995957583377,1325.8995957583377,1.0000220010224998,0.0002986885183602601
1325.9065403659931,1325.9065403659931,0.9994438867782925,0.0002986030623179131
1325.9134849736488,1325.9134849736488,1.0008238349672234,0.00029878032700232437
1325.920429581351,1325.920429581351,0.9998140337471332,0.000298676044580217
1325.9273741890304,1325.9273741890304,0.9996045637378946,0.0002986872963254421
1325.9343187967556,1325.9343187967556,0.9995866729042906,0.0002986809591965225
1325.9412634044816,1325.9412634044816,1.0001589428055422,0.0002988041587934632
1325.9482080121838,1325.9482080121838,1.0005256455330545,0.00029883957485245586
1325.955152619956,1325.955152619956,1.000158983166977,0.0002988276310897942
1325.9626527963305,1325.9626527963305,0.9997535495165291,0.00029884079285915515
1325.9704307569941,1325.9704307569941,1.0002282165594873,0.0002989239999675518
1325.9773753647896,1325.9773753647896,0.9997923762652485,0.0002989492313244822
1325.9843199726079,1325.9843199726079,0.999973752251087,0.0002989918261786499
1325.9912645803802,1325.9912645803802,0.999787613630204,0.0002990368100984315
1325.9982091881293,1325.9982091881293,1.0002785900910152,0.00029913161688229607
1326.0051537959478,1326.0051537959478,0.9999444585250405,0.00029919916839179236
1326.012098403767,1326.012098403767,1.0002899924499977,0.00029933052714410993
1326.0190430115854,1326.0190430115854,0.9997237965073043,0.0002993197235228287
1326.0259876194273,1326.0259876194273,0.9999452210027338,0.0002994241242556893
1326.0329322273396,1326.0329322273396,1.0007451545430248,0.00029961330681888834
1326.0398768351577,1326.0398768351577,0.9996885221618615,0.0002995043680221404
1326.0468214429768,1326.0468214429768,0.9999877229932379,0.0002995676326289559
1326.053766050842,1326.053766050842,1.000221512491418,0.000299665367334051
1326.0607106587306,1326.0607106587306,1.0000032475594804,0.0002997195232679669
1326.0676552665493,1326.0676552665493,1.0000149636326203,0.00029976190471170936
1326.074599874484,1326.074599874484,0.9999778068138999,0.00029984993028048734
1326.0815444823031,1326.0815444823031,0.9998344389428157,0.00029986285418421384
1326.0884890902382,1326.0884890902382,0.999796145446177,0.0002999095970796203
1326.0954336980803,1326.0954336980803,0.9996909793574213,0.0002999741316812833
1326.1023783059923,1326.1023783059923,1.0001572812809059,0.00030011175091796034
1326.1093229138808,1326.1093229138808,1.0002425958902568,0.0003001486267638808
1326.116267521746,1326.116267521746,1.000738571235516,0.0003003012749216335
1326.1232121296807,1326.1232121296807,0.9996387116425375,0.0003002007529222102
1326.1301567375697,1326.1301567375697,1.0002486575324478,0.00030034679390200794
1326.1371013454582,1326.1371013454582,0.9992889070652525,0.00030029226076608203
1326.14404595337,1326.14404595337,1.0003508607352842,0.00030050317692915284
1326.150990561282,1326.150990561282,1.0002627756124745,0.00030054631678836047
1326.15793516917,1326.15793516917,0.9999081906204939,0.00030056323325256196
1326.1648797770827,1326.1648797770827,0.9999789141198312,0.00030064057349417996
1326.171824384994,1326.171824384994,0.9998110051842752,0.00030067734647237277
1326.1787689929058,1326.1787689929058,1.0004732625293493,0.0003007855626408518
1326.185713600818,1326.185713600818,1.0000925785814974,0.00030082135145186137
1326.192658208706,1326.192658208706,0.9998315255658066,0.00030085038412310005
1326.1996028166182,1326.1996028166182,0.9999470292046393,0.0003009241857647456
1326.2065474245533,1326.2065474245533,0.9997173991254471,0.00030095489319438746
1326.2134920324422,1326.2134920324422,1.0004776047997832,0.0003011204506700839
1326.2204366403305,1326.2204366403305,1.000186210799296,0.0003011269849791134
1326.2273812482422,1326.2273812482422,0.9997395502825375,0.00030112089272208125
1326.234325856154,1326.234325856154,0.9994755405758611,0.00030115573740302227
1326.2412704640424,1326.2412704640424,1.0006587271239895,0.0003013593922325709
1326.2482150719313,1326.2482150719313,0.9995240857658381,0.0003012988989722014
1326.2551596798662,1326.2551596798662,1.0000503801963372,0.000301406126927263
1326.262104287732,1326.262104287732,0.9997775808002929,0.00030142443866673294
1326.2690488956205,1326.2690488956205,0.9999047112294377,0.00030146344871738397
1326.2759935035317,1326.2759935035317,1.000522287384987,0.00030160526455077623
1326.2829381113743,1326.2829381113743,0.9998269659142738,0.0003015583058044574
1326.2898827193092,1326.2898827193092,1.000060153951791,0.00030165389228844163
1326.296827327128,1326.296827327128,1.0000720720919005,0.0003016989316103945
1326.303771935063,1326.303771935063,1.0002202890349419,0.00030177460039292184
1326.310716542882,1326.310716542882,0.999880693400025,0.0003018234403574432
1326.3176611507704,1326.3176611507704,1.0000086886330486,0.00030190326050200073
1326.3246057586352,1326.3246057586352,0.999820658835975,0.00030193434907347066
1326.3315503664546,1326.3315503664546,1.0000694066670588,0.0003020278363786961
1326.3384949743195,1326.3384949743195,0.9999517237366147,0.0003021039676107572
1326.3454395822084,1326.3454395822084,0.9998298952306799,0.0003021694931315258
1326.3551620331548,1326.3551620331548,1.000181406809947,0.0003023128339152406
1326.3621066409728,1326.3621066409728,1.00019783238456,0.00030242233604013647
1326.369051248792,1326.369051248792,0.9996607033919872,0.0003024436723667119
1326.3759958566104,1326.3759958566104,1.0001788536299032,0.0003025687636086185
1326.3829404644296,1326.3829404644296,1.0001693809287453,0.00030263969202865427
1326.389885072248,1326.389885072248,0.9999741452695765,0.00030272924436831926
1326.3968296800667,1326.3968296800667,0.9997688640683997,0.00030280623966532467
1326.4037742878854,1326.4037742878854,1.0004825961607824,0.0003029665800476482
1326.4107188956577,1326.4107188956577,0.9998646566136481,0.0003029519669261588
1326.4176635034066,1326.4176635034066,0.999511231750413,0.0003029756906277166
1326.4246081112253,1326.4246081112253,1.0002688366840362,0.0003031832275210325
1326.431552718951,1326.431552718951,0.9999769510516373,0.0003031901076059642
1326.438497326746,1326.438497326746,0.9993684264401145,0.00030319593585160674
1326.4454419344718,1326.4454419344718,1.0000351895252513,0.00030334051131848986
1326.452386542244,1326.452386542244,1.0002639566454028,0.00030343414179531084
1326.4593311499698,1326.4593311499698,1.0004162538533414,0.00030350782518478504
1326.466275757695,1326.466275757695,0.9999207891077969,0.0003035302010537074
1326.4732203654207,1326.4732203654207,1.0000543667193014,0.0003036414341307047
1326.4801649731464,1326.4801649731464,1.0000914094886724,0.00030372598445102056
1326.4871095808487,1326.4871095808487,1.0002549067840358,0.0003038134009353296
1326.4940541885276,1326.4940541885276,0.9998273844639141,0.0003038330333087495
1326.50099879623,1326.50099879623,0.9997909720518816,0.0003039142830795426
1326.507943403909,1326.507943403909,1.0001427676287693,0.000304069307958014
1326.5148880115648,1326.5148880115648,0.9995920885379649,0.00030410201097446374
1326.5218326192203,1326.5218326192203,0.9998726900971061,0.0003042127345076075
1326.5287772268764,1326.5287772268764,0.9999426242594286,0.00030429287083267697
1326.5357218345086,1326.5357218345086,1.0002920284948456,0.0003044450250538693
1326.5426664421643,1326.5426664421643,1.0000847601806577,0.00030454373860135857
1326.5496110497504,1326.5496110497504,0.9994960042365382,0.00030459524852268383
1326.5565556573827,1326.5565556573827,1.0003360743671998,0.0003047522852759485
1326.5635002649688,1326.5635002649688,1.0000953306440947,0.0003047903529363738
1326.5704448725778,1326.5704448725778,1.0001761115666947,0.000304850327724591
1326.5773894801405,1326.5773894801405,1.000473808040057,0.00030493161087746264
1326.584334087703,1326.584334087703,0.9998744332285305,0.0003049311172555362
1326.591278695289,1326.591278695289,1.0000868008159909,0.00030502846623671665
1326.5982233028283,1326.5982233028283,0.9996079403593049,0.0003050629597151699
1326.6051679103443,1326.6051679103443,0.999396951744419,0.00030507234989150535
1326.6121125178838,1326.6121125178838,0.9998139652986853,0.0003051811507817465
1326.6190571253996,1326.6190571253996,1.0002156713966706,0.0003052968514308819
1326.6260017328923,1326.6260017328923,1.0001532162392923,0.0003052942666243453
1326.6329463404086,1326.6329463404086,1.0005122411652834,0.0003053918870966856
1326.639890947878,1326.639890947878,1.0000398335742435,0.00030537264370490664
1326.6468355553475,1326.6468355553475,0.9998142463634556,0.0003053938627317221
1326.6537801627935,1326.6537801627935,1.0002319387813223,0.0003054054990882648
1326.66072477024,1326.66072477024,1.000088498663778,0.00030542109842521145
1326.6676693776626,1326.6676693776626,0.9993819586311308,0.0003053256406208091
1326.674613985086,1326.674613985086,1.0000202720283782,0.0003053651409985373
1326.6815585925083,1326.6815585925083,1.0000588264229162,0.00030535765554308674
1326.6893365527765,1326.6893365527765,1.0004636401890468,0.000305458410126978
1326.6968367287784,1326.6968367287784,0.9995299938056679,0.0003053142453866702
1326.7037813361312,1326.7037813361312,1.000212224545147,0.0003053889827217348
1326.7110037277741,1326.7110037277741,1.0001672852786463,0.0003053689890527285
1326.7190594723083,1326.7190594723083,0.9999667405027106,0.00030533997378599836
1326.726004079615,1326.726004079615,0.9999687279671038,0.0003053351636567119
1326.732948686968,1326.732948686968,0.9996624019030682,0.00030530110329850745
1326.7398932942278,1326.7398932942278,1.0001020512245282,0.0003053428344572646
1326.7468379015577,1326.7468379015577,0.9994417765196666,0.00030526010012209395
1326.7537825087938,1326.7537825087938,1.000267876033093,0.0003053733641678551
1326.760727116031,1326.760727116031,0.9993158458230971,0.000305242730750487
1326.7676717232903,1326.7676717232903,1.0006809557881673,0.00030542936983001705
1326.7746163305042,1326.7746163305042,1.0000278088390746,0.0003053658691048162
1326.7815609377408,1326.7815609377408,1.000301905091495,0.00030539748146292606
1326.7885055449772,1326.7885055449772,0.9993806322259629,0.00030531681166246703
1326.7954501522142,1326.7954501522142,1.0000619783671285,0.000305435406381169
1326.8023947593344,1326.8023947593344,1.000286314250886,0.0003055073493409776
1326.8093393665476,1326.8093393665476,0.9994101711522824,0.00030546134640576766
1326.8162839736908,1326.8162839736908,1.000414391266997,0.000305627350626616
1326.8232285808112,1326.8232285808112,0.9999423716573327,0.00030559143907552845
1326.8301731879549,1326.8301731879549,0.9998174095959481,0.00030559991895075
1326.8371177950519,1326.8371177950519,1.0004502370199373,0.0003056780719889608
1326.844062402149,1326.844062402149,0.9998882840397331,0.00030562689466154784
1326.8510070092223,1326.8510070092223,0.9997674805250487,0.0003055880135614671
1326.8579516162958,1326.8579516162958,1.0003211235108413,0.0003057060618156151
1326.8648962233467,1326.8648962233467,0.9998952593088978,0.0003056067180867367
1326.8718408303737,1326.8718408303737,0.999814075790999,0.00030557337888546815
1326.878785437401,1326.878785437401,0.9999484340822627,0.0003055395170227691
1326.8857300444045,1326.8857300444045,1.0000385112606645,0.0003054583613003594
1326.8926746514085,1326.8926746514085,0.9998690280192756,0.0003053578044450214
1326.8996192583656,1326.8996192583656,1.0000825223586767,0.00030530353612597466
1326.906563865346,1326.906563865346,1.0005164330157676,0.00030524504386112144
1326.9135084723034,1326.9135084723034,0.9997370200694808,0.0003050556094348248
1326.9204530792142,1326.9204530792142,0.9998842875886348,0.00030496708209864305
1326.9273976861246,1326.9273976861246,0.9998718537686446,0.0003048640729847416
1326.9343422930124,1326.9343422930124,1.000211194486537,0.0003048024831277035
1326.9412868999227,1326.9412868999227,1.0000290772041,0.0003046769226006133
1326.9482315067635,1326.9482315067635,0.9995736797198461,0.00030453616863110983
1326.9551761136045,1326.9551761136045,1.0001410307656042,0.00030457409263126003
1326.9621207204686,1326.9621207204686,0.9998202530593877,0.00030439811762883126
1326.9690653272864,1326.9690653272864,1.0007271919282599,0.0003044476889768342
1326.9760099341033,1326.9760099341033,0.9996465253198183,0.0003042634467362099
1326.982954540875,1326.982954540875,0.9999832511869411,0.00030423297555351507
1326.9898991476457,1326.9898991476457,1.0002135856196077,0.00030419638824204524
1326.996843754394,1326.996843754394,0.9994402027096025,0.0003040946298829964
1327.0037883611644,1327.0037883611644,1.0001574368239123,0.0003041636266249468
1327.0107329678656,1327.0107329678656,1.0004046450480952,0.00030419740791626563
1327.01767757459,1327.01767757459,0.9997871813643456,0.000304105455292268
1327.0246221812445,1327.0246221812445,1.000024814502624,0.00030417292296634486
1327.031566787899,1327.031566787899,1.0000276981514264,0.00030419174992448486
1327.0385113945536,1327.0385113945536,1.0000013578018165,0.000304191503403157
1327.0454560012085,1327.0454560012085,1.0003117883614592,0.0003042588749183449
1327.0524006078629,1327.0524006078629,0.9995542140305463,0.0003041658406788683
1327.0599007830033,1327.0599007830033,0.9998000957096348,0.00030424969373858837
1327.0676787423868,1327.0676787423868,1.0002383562374848,0.00030432085822775125
