time,time,flux,flux_err
1385.9571802377059,1385.9571802377059,0.9999899214701378,0.00014588217699137824
1385.9655135614696,1385.9655135614696,0.9999563902734522,0.00014588961217398548
1385.9731524413928,1385.9731524413928,0.9998445251856621,0.00013317012229338503
1385.9800968777088,1385.9800968777088,0.9998962054520918,0.00013317207523384994
1385.9870413138397,1385.9870413138397,0.9999412679682511,0.00013317757877269007
1385.9939857497836,1385.9939857497836,1.0000474607691088,0.00013318893754761982
1386.0009301860064,1386.0009301860064,1.0000328252566075,0.00013319207363959878
1386.0078746217646,1386.0078746217646,1.00013260219107,0.00013320034898880353
1386.0148190575223,1386.0148190575223,0.9999584670434534,0.00013318783233994385
1386.0217634932792,1386.0217634932792,1.0000151782790028,0.00013319957983567602
1386.0287079290374,1386.0287079290374,0.9999987955301058,0.0001331947146132002
1386.0356523645162,1386.0356523645162,0.9998565436121896,0.00013318674813914027
1386.0425967999938,1386.0425967999938,0.9998455826278786,0.00013318146537217787
1386.0495412353791,1386.0495412353791,1.0001202677975034,0.0001331974390476022
1386.0564856705785,1386.0564856705785,0.9998656691407044,0.00013317864216556423
1386.0634301057771,1386.0634301057771,0.9998459061288576,0.0001331844573120578
1386.070374540976,1386.070374540976,1.0001364168594198,0.0001331945883813167
1386.0773189758959,1386.0773189758959,1.0001262040525076,0.0001331964879707073
1386.084263410908,1386.084263410908,1.0000114506994076,0.00013318912463217288
1386.0912078457343,1386.0912078457343,0.999905084035662,0.00013318187803630578
1386.098152280468,1386.098152280468,0.9998408540893005,0.0001331757452934481
1386.1050967152944,1386.1050967152944,0.999781110112211,0.00013317176676004802
1386.1120411498407,1386.1120411498407,1.0001741034642158,0.00013319776685232713
1386.118985584202,1386.118985584202,0.9997503619200229,0.00013316504593582112
1386.125930018656,1386.125930018656,0.9999725813323199,0.0001331767272875045
1386.132874453016,1386.132874453016,1.000000083270171,0.00013318546150139254
1386.1398188871906,1386.1398188871906,0.9998971387376561,0.0001331737994625473
1386.1467633213658,1386.1467633213658,0.9999649621669915,0.0001331801130858806
1386.1537077555397,1386.1537077555397,1.0002332059000791,0.00013319788035200198
1386.1606521894348,1386.1606521894348,0.9998353467740417,0.00013316993152762908
1386.1675966233304,1386.1675966233304,1.0000881276801263,0.00013318947015352698
1386.1745410571316,1386.1745410571316,0.9999369267137309,0.0001331750045939697
1386.1814854909335,1386.1814854909335,1.000095179843904,0.0001331862572070074
1386.1884299244564,1386.1884299244564,0.9999465840233238,0.00013317823917033763
1386.1953743578858,1386.1953743578858,1.0001447506121628,0.0001331892924207009
1386.2023187913148,1386.2023187913148,1.0000937500090792,0.00013319404299246896
1386.2092632247447,1386.2092632247447,1.0000443661908685,0.000133189910185171
1386.2162076581742,1386.2162076581742,0.9999610720611036,0.0001331818441526087
1386.2231520913235,1386.2231520913235,1.0001488665803415,0.00013319697015934932
1386.230096524474,1386.230096524474,0.9996938890049515,0.00013316654943481383
1386.2370409574382,1386.2370409574382,0.9998766121327101,0.00013317933336883488
1386.2439853904011,1386.2439853904011,0.9999301627116435,0.0001331791517054618
1386.2509298232721,1386.2509298232721,1.0002326372194656,0.00013319635876058784
1386.2578742560497,1386.2578742560497,0.9999296512768805,0.00013317863160047292
1386.2648186887338,1386.2648186887338,1.0001040477590468,0.0001331865457476716
1386.271763121232,1386.271763121232,0.9998425508366076,0.00013317335631370553
1386.2787075538233,1386.2787075538233,1.0001433541579434,0.0001331819655285256
1386.2856519863215,1386.2856519863215,1.0002442888492684,0.00013319615748473682
1386.2925964185397,1386.2925964185397,0.9998528663065208,0.0001331681968421731
1386.2995408508518,1386.2995408508518,1.0001249173216207,0.00013318974109732514
1386.306485282978,1386.306485282978,0.9998766080847098,0.00013318533413427485
1386.3134297151023,1386.3134297151023,0.9999957079591347,0.00013317821321911513
1386.320374147042,1386.320374147042,0.9999655015742366,0.00013317951830501686
1386.3273185788887,1386.3273185788887,0.9999392312936648,0.0001331731831461942
1386.3342630108268,1386.3342630108268,0.9998735131708958,0.00013316256196395617
1386.3412074424875,1386.3412074424875,0.9999240773618606,0.00013316842475906182
1386.3481518741478,1386.3481518741478,1.0000091444006227,0.00013317333976007293
1386.3550963058074,1386.3550963058074,1.0000903801932894,0.00013317624157958445
1386.362040737281,1386.362040737281,1.0002332598131578,0.00013318462097637699
1386.3695407231498,1386.3695407231498,1.0000849657306632,0.00013317863294321644
1386.3773184862623,1386.3773184862623,0.9999779901599289,0.00013316684671069412
1386.3842629173632,1386.3842629173632,0.9999284019967962,0.00013316309310649303
1386.3912073484646,1386.3912073484646,1.000038880464311,0.00013316499017226096
1386.3981517795662,1386.3981517795662,0.9998829040549607,0.000133157165851622
1386.4050962106662,1386.4050962106662,1.0000954445667691,0.00013317540373950027
1386.4120406413022,1386.4120406413022,0.9999788967154236,0.00013315890794098222
1386.4189850722173,1386.4189850722173,0.9997515490295117,0.00013315109576256107
1386.425929502945,1386.425929502945,1.0000396673678562,0.00013317046221191555
1386.4328739334878,1386.4328739334878,1.000039215861351,0.00013317165952353647
1386.4398183640308,1386.4398183640308,0.9999089899934746,0.00013316052304418338
1386.4467627944794,1386.4467627944794,1.0000133904542605,0.00013316981564264632
1386.4537072248354,1386.4537072248354,1.0002697650623111,0.00013317953704243128
1386.4606516550984,1386.4606516550984,0.9999479543927727,0.00013316057771534922
1386.4675960853613,1386.4675960853613,1.0002983687135412,0.0001331815755905524
1386.4745405155309,1386.4745405155309,1.0000364489220088,0.00013316171657379658
1386.4814849454215,1386.4814849454215,0.9996297134277723,0.00013313996964295466
1386.4884293754053,1386.4884293754053,0.9996798709200269,0.0001331510552737167
1386.4953738052948,1386.4953738052948,1.0001109468833178,0.00013317206897257053
1386.5023182349992,1386.5023182349992,1.0000692869570467,0.00013317396518764465
1386.509262664797,1386.509262664797,1.000020531498126,0.00013316801599413312
1386.5162070943147,1386.5162070943147,1.0001426370782758,0.00013317958582937495
1386.523151523832,1386.523151523832,1.0000171223392713,0.00013316445961138228
1386.5300959533504,1386.5300959533504,0.9998860413371642,0.0001331548599163581
1386.5370403826819,1386.5370403826819,1.000073109545105,0.00013317134865390863
1386.54398481192,1386.54398481192,0.9998726937715517,0.00013315516797440065
1386.550929241066,1386.550929241066,1.0000820380026407,0.00013317049487541007
1386.5578736702114,1386.5578736702114,1.0000192797854734,0.0001331677882754118
1386.565095876414,1386.565095876414,1.00002200692775,0.0001331663120609029
1386.573151413977,1386.573151413977,1.000144282704825,0.0001331730322296859
1386.58009584275,1386.58009584275,0.9999898767684554,0.00013316386650769405
1386.5870402715225,1386.5870402715225,0.9998350547180545,0.00013316200543490083
1386.593984700295,1386.593984700295,1.0001025508976304,0.0001331710109670967
1386.600929128696,1386.600929128696,0.9998200237819287,0.00013315300245363623
1386.6078735573756,1386.6078735573756,1.0000968858028523,0.00013316820042735882
1386.6148179856818,1386.6148179856818,0.9997447428934777,0.00013314800957018585
1386.6217624140827,1386.6217624140827,1.0001530551032114,0.00013317936888803124
1386.6287068422039,1386.6287068422039,1.0000707745815662,0.00013317167167938888
1386.6356512704172,1386.6356512704172,1.0002315664385146,0.0001331824135897047
1386.6425956986318,1386.6425956986318,1.0001309635162223,0.00013317402038121517
1386.6495401265665,1386.6495401265665,1.0002628384266914,0.00013318413653675014
1386.6564845544074,1386.6564845544074,0.9998388398612523,0.0001331600716028623
1386.6634289823423,1386.6634289823423,0.9997875040167914,0.00013315114465312945
1386.6703734099979,1386.6703734099979,1.0000093714037737,0.00013316208501920807
1386.6773178377462,1386.6773178377462,1.000001669404025,0.00013316398915753618
1386.6842622653076,1386.6842622653076,0.9997727842811134,0.00013315290754855577
1386.6912066927769,1386.6912066927769,1.0000506139644207,0.00013317411268150576
1386.6981511202462,1386.6981511202462,1.0001512441831601,0.00013317472136081611
1386.705095547528,1386.705095547528,1.0000745810937954,0.0001331760252040784
1386.712039974811,1386.712039974811,1.00013339694471,0.00013317637940050067
1386.718984402001,1386.718984402001,0.9999056069520244,0.00013316409425776163
1386.7259288290973,1386.7259288290973,0.9998681730734698,0.00013315809900015532
1386.7328732561004,1386.7328732561004,1.0000022544622627,0.00013316289689784737
1386.7398176830106,1386.7398176830106,1.0000440768320944,0.00013316179759118968
1386.746762109828,1386.746762109828,0.999587707047717,0.0001331321120125372
1386.7537065365511,1386.7537065365511,1.0001323561212345,0.00013316773902594695
1386.7606509633686,1386.7606509633686,0.9998930125687053,0.00013315624791830397
1386.7675953898138,1386.7675953898138,1.000107963931376,0.00013316803692051035
1386.7748175933152,1386.7748175933152,1.0001066377401162,0.00013315925030745715
1386.782873127991,1386.782873127991,1.0001347921355777,0.00013316584109198396
1386.789817554436,1386.789817554436,0.9999287534356759,0.00013314931935948327
1386.7967619806939,1386.7967619806939,0.999846764914792,0.00013315196549440903
1386.8037064068585,1386.8037064068585,0.9998604157307316,0.00013314779787043003
1386.8106508328378,1386.8106508328378,1.0000176906484666,0.00013315530354845583
1386.8175952589104,1386.8175952589104,0.9999155749412922,0.00013314710997903311
1386.8245396848881,1386.8245396848881,0.999942207707581,0.0001331550020396085
1386.8314841105882,1386.8314841105882,1.0002250166991742,0.00013316582287725858
1386.838428536474,1386.838428536474,1.0000401144220716,0.00013315243272391306
1386.8453729620799,1386.8453729620799,0.9997278797487187,0.00013314328076477374
1386.8523173876865,1386.8523173876865,0.999896787946571,0.0001331515680960422
1386.8592618132,1386.8592618132,1.0002614488363477,0.0001331697219285233
1386.8662062386204,1386.8662062386204,1.0001899717379938,0.0001331657894844082
1386.8731506639463,1386.8731506639463,0.9998721840910729,0.0001331438788762524
1386.8800950892735,1386.8800950892735,1.0000557195381334,0.0001331601704384682
1386.8870395144145,1386.8870395144145,1.0000313993604903,0.00013315542839870267
1386.8939839395546,1386.8939839395546,0.9998565966480883,0.00013315358681663896
1386.900928364509,1386.900928364509,0.9998997259799898,0.0001331514778137252
1386.9078727893707,1386.9078727893707,1.0000279562485619,0.0001331628400205481
1386.9148172143252,1386.9148172143252,0.9999962678500204,0.0001331640868722885
1386.921761639093,1386.921761639093,1.0000984647825122,0.000133173805120225
1386.9287060637678,1386.9287060637678,1.0000520298071987,0.00013317066616406247
1386.9356504883503,1386.9356504883503,0.9999767514786952,0.00013316576784953743
1386.9425949129316,1386.9425949129316,0.9997889621952118,0.00013315470362041407
1386.9495393374204,1386.9495393374204,1.0001225285084026,0.00013317352670917236
1386.9564837616304,1386.9564837616304,0.9999525596835456,0.0001331659964472523
1386.9634281861188,1386.9634281861188,1.0002115193072685,0.00013318314784623101
1386.9703726103276,1386.9703726103276,0.9999865011074143,0.0001331682892791154
1386.977317034444,1386.977317034444,0.9999470030892944,0.00013316138068548473
1386.9850947893615,1386.9850947893615,0.9999102685828894,0.0001331568701584109
1386.992594767034,1386.992594767034,0.9999554709760197,0.0001331605948553011
1386.999539191057,1386.999539191057,1.0000571567218788,0.00013316795531747796
1387.0064836148013,1387.0064836148013,0.9998386732208662,0.0001331526003886297
1387.0134280384511,1387.0134280384511,1.0000965655506022,0.00013316455234141286
1387.0203724621017,1387.0203724621017,0.9999741540614486,0.00013315312167036926
1387.0273168856597,1387.0273168856597,0.9999994144100832,0.00013316111689825046
1387.034261309124,1387.034261309124,1.000073916165536,0.0001331575762934789
1387.0412057324015,1387.0412057324015,0.9999418395661038,0.00013314912318776847
1387.0481501557729,1387.0481501557729,1.000015246135775,0.00013314777175891062
1387.0550945790512,1387.0550945790512,1.0002008674456693,0.00013316996423711104
1387.0620390021427,1387.0620390021427,1.0000537473491913,0.0001331534643035654
1387.0689834252341,1387.0689834252341,1.0001420467702684,0.00013316019319749043
1387.07592784814,1387.07592784814,0.9999398569863409,0.00013315279227421145
1387.082872271139,1387.082872271139,1.0002583931460571,0.0001331747998787038
1387.0898166938573,1387.0898166938573,0.9997124395131249,0.00013314503327795888
1387.0967611166702,1387.0967611166702,0.9998580422937255,0.00013315531103054714
1387.1037055392032,1387.1037055392032,0.9999801629040656,0.00013316571246441098
1387.1106499618295,1387.1106499618295,1.0001368995981483,0.00013317785425621755
1387.1175943843616,1387.1175943843616,1.000001395118625,0.00013317449583807086
1387.1245388068019,1387.1245388068019,1.0000865996184465,0.0001331714943303526
1387.1314832290564,1387.1314832290564,1.0001801744763545,0.000133187470139958
1387.1384276513088,1387.1384276513088,0.9999568270718564,0.0001331702334640832
1387.1453720734694,1387.1453720734694,0.9999152487650121,0.00013316927723309085
1387.1523164956302,1387.1523164956302,0.9999445465895265,0.000133169295444243
1387.1592609175113,1387.1592609175113,1.0000427791015776,0.000133171412771821
1387.166205339671,1387.166205339671,0.9998917041985216,0.0001331642982120497
1387.1731497614596,1387.1731497614596,1.000056167183773,0.00013317587191606886
1387.1800941832475,1387.1800941832475,1.0002827529222287,0.0001331894706530422
1387.187038604942,1387.187038604942,1.0000822625098098,0.0001331780617181233
1387.1939830263573,1387.1939830263573,0.9999113710418583,0.00013316175852275545
1387.2009274480524,1387.2009274480524,0.9998797943659117,0.00013315862144975052
1387.2078718694681,1387.2078718694681,0.9998748623355285,0.00013315920205544946
1387.2148162907893,1387.2148162907893,0.9999843825074596,0.00013316720713880896
1387.2217607121122,1387.2217607121122,0.9999776230932265,0.00013315993513411076
1387.2287051332485,1387.2287051332485,1.0001508753404318,0.000133172368104263
1387.2356495544773,1387.2356495544773,1.0001481331070294,0.0001331726575291612
1387.2425939754269,1387.2425939754269,1.0000208018071937,0.00013316295458567365
1387.24953839647,1387.24953839647,0.9997364222522436,0.00013314722851919387
1387.2564828173267,1387.2564828173267,1.0000216476725445,0.0001331608173961543
1387.2634272381827,1387.2634272381827,1.0001033048623547,0.00013316833291602095
1387.2703716589463,1387.2703716589463,0.9999339480213738,0.00013314962150744522
1387.2773160795239,1387.2773160795239,0.9998798132148456,0.00013315182837698615
1387.284260500194,1387.284260500194,1.0000714667017252,0.00013316967601311678
1387.2912049205847,1387.2912049205847,1.0001363328358814,0.0001331729646179331
1387.2981493410691,1387.2981493410691,1.000057390526611,0.0001331687275948657
1387.3050937613673,1387.3050937613673,0.9999429569397915,0.00013315162936939327
1387.3128715119992,1387.3128715119992,1.0001046662660689,0.00013316565642756433
1387.3214825930609,1387.3214825930609,0.9999648675881119,0.00013315769278441516
1387.328704789858,1387.328704789858,0.9998920042477634,0.00013315689409277193
1387.3364825403978,1387.3364825403978,0.9998203221036025,0.00013314762696439822
1387.3439825137862,1387.3439825137862,0.9999907965863903,0.00013316569241455183
1387.3512047103973,1387.3512047103973,1.0000854165378092,0.0001331711722435034
1387.3592602373428,1387.3592602373428,1.0000748893180191,0.0001331652739693703
1387.3662046568952,1387.3662046568952,1.0001515539917762,0.0001331755748939011
1387.3731490763553,1387.3731490763553,0.9999330533878876,0.00013315151013341367
1387.3800934958151,1387.3800934958151,1.000056612073731,0.00013316668110441242
1387.3870379152745,1387.3870379152745,0.9999044416762739,0.000133155970214238
1387.3939823347337,1387.3939823347337,0.9999302516811417,0.00013314552772982207
1387.400926753914,1387.400926753914,0.9999158303704304,0.00013315092228229677
1387.407871173095,1387.407871173095,1.0000418409593932,0.00013315548352936337
1387.4148155921807,1387.4148155921807,1.0000314456232429,0.00013316021390807518
1387.4217600111751,1387.4217600111751,1.000131137108444,0.00013316615183682726
1387.4287044300766,1387.4287044300766,0.9999582804294385,0.00013315356586304862
1387.435648848977,1387.435648848977,1.0000237937709489,0.0001331613882442147
1387.4425932676916,1387.4425932676916,0.9999396570661251,0.00013315871556687808
1387.4495376864063,1387.4495376864063,0.9999848010418451,0.00013315636798125582
1387.456482105028,1387.456482105028,1.000142109338828,0.00013316894166821869
1387.4634265235557,1387.4634265235557,0.9998934813970966,0.00013315523573694473
1387.470370941991,1387.470370941991,1.0000545280496516,0.00013316398389560708
1387.4773153604262,1387.4773153604262,0.9998716680316846,0.00013315078737356114
1387.4842597787688,1387.4842597787688,0.999982069684615,0.00013315548728425346
1387.4912041969233,1387.4912041969233,0.9999334545080991,0.0001331507427584121
1387.4981486150796,1387.4981486150796,1.000142554835226,0.00013317094935821227
1387.5050930331427,1387.5050930331427,0.999933098274821,0.0001331582833709436
1387.5120374511118,1387.5120374511118,0.9999869230122117,0.00013315422062022187
1387.518981868988,1387.518981868988,0.9999915491090958,0.00013315914635897598
1387.5259262868644,1387.5259262868644,1.0001533784619645,0.0001331680915703688
1387.532870704555,1387.532870704555,1.000135649677493,0.00013317253027133002
1387.5398151222446,1387.5398151222446,0.9999325138915289,0.00013315032843806582
1387.5467595398418,1387.5467595398418,0.9998344858358758,0.00013315258156911225
1387.553703957346,1387.553703957346,1.00003740955946,0.00013316189254325853
1387.5606483747567,1387.5606483747567,1.0000571153813624,0.0001331645675941058
1387.5675927921668,1387.5675927921668,1.0000077249501398,0.00013316116638651643
1387.5745372094846,1387.5745372094846,0.9999165026289946,0.00013315998570529694
1387.581481626616,1387.581481626616,0.9996652826539945,0.0001331397137133749
1387.5884260437474,1387.5884260437474,1.0002651229206305,0.00013318193851418394
1387.5953704608783,1387.5953704608783,1.0001523776904901,0.00013317725715155483
1387.6023148777304,1387.6023148777304,0.9998948800731704,0.00013314800179919662
1387.609259294676,1387.609259294676,0.9999090554715131,0.00013315103061944624
1387.616203711434,1387.616203711434,1.0000757215225113,0.0001331607170668041
1387.6231481281927,1387.6231481281927,1.0001798655944985,0.0001331638431711495
1387.630092544859,1387.630092544859,0.9998539062589394,0.00013315204033322994
1387.637036961432,1387.637036961432,0.9999850626616436,0.0001331543793638176
1387.6439813779102,1387.6439813779102,0.9999250514225272,0.00013314856922142475
1387.65092579439,1387.65092579439,1.0001838013492077,0.00013316591034915395
1387.657870210683,1387.657870210683,1.0000599891589288,0.0001331723767378232
1387.6648146269767,1387.6648146269767,0.9999048403069388,0.00013315129157455728
1387.6717590431758,1387.6717590431758,0.9998809382508835,0.00013315852869367125
1387.678703459283,1387.678703459283,1.000017418002788,0.00013317233377850183
1387.6856478752973,1387.6856478752973,0.9998519390039562,0.00013315282273053942
1387.6925922913106,1387.6925922913106,1.0001598641557503,0.00013317929965456845
1387.6995367071377,1387.6995367071377,1.0001194003391685,0.00013317362543189003
1387.7064811229654,1387.7064811229654,1.0000559147281192,0.00013317342196935046
1387.7134255387002,1387.7134255387002,0.9999320564584,0.00013315804236795864
