time,time,flux,flux_err
1354.117022557748,1354.117022557748,0.9999653116621882,0.0008717591635981419
1354.125819107535,1354.125819107535,1.0001681697811122,0.0008716186854780473
1354.134152680891,1354.134152680891,1.0001490248745093,0.0008716418397618136
1354.1424862541699,1354.1424862541699,1.0003810130231088,0.000871678109244329
1354.150125362949,1354.150125362949,1.000343449909145,0.0007957364377777505
1354.1570700071352,1354.1570700071352,0.9988886091725284,0.0007952851621107242
1354.1640146512752,1354.1640146512752,1.0000691516079308,0.0007954363799885383
1354.1709592954155,1354.1709592954155,0.9993427148103617,0.0007952523447985616
1354.1779039395556,1354.1779039395556,1.0014857646982802,0.0007955390240438431
1354.1848485835094,1354.1848485835094,1.000084445327373,0.0007953315412282077
1354.1917932274166,1354.1917932274166,1.0009283828043682,0.0007954795487434557
1354.1987378712772,1354.1987378712772,0.9997391458015921,0.0007952389355394103
1354.2056825150914,1354.2056825150914,0.9995091262148392,0.0007949377384956072
1354.2126271587656,1354.2126271587656,0.9993145943629826,0.0007949251670958977
1354.21957180244,1354.21957180244,1.0002094460402848,0.0007951788907857715
1354.2265164460212,1354.2265164460212,1.0004626684127083,0.0007949159631041932
1354.2334610895093,1354.2334610895093,1.0000254164071385,0.0007950100038257071
1354.2404057329509,1354.2404057329509,1.0001578763176644,0.000795324117402047
1354.2473503762997,1354.2473503762997,0.9985874527648843,0.0007948986585984026
1354.2542950196014,1354.2542950196014,1.0012433387991049,0.0007955621289201882
1354.2612396628563,1354.2612396628563,1.0003876972011998,0.0007950831021360837
1354.2681843059722,1354.2681843059722,0.9995919135869711,0.0007950659229936546
1354.2751289491341,1354.2751289491341,0.9998002228409891,0.0007947880652273632
1354.2820735921102,1354.2820735921102,1.0001863866518923,0.0007948502464503668
1354.2890182350861,1354.2890182350861,0.9992396475904075,0.0007950344307410177
1354.295962877922,1354.295962877922,0.9999719285037351,0.0007949038718948687
1354.3029075207585,1354.3029075207585,0.9999130240545832,0.0007947587911827392
1354.3098521634552,1354.3098521634552,1.000701010249008,0.0007950664955375702
1354.3167968061514,1354.3167968061514,1.001032522531656,0.0007949789764930904
1354.3237414487082,1354.3237414487082,0.9994038314248426,0.000794603198100945
1354.3306860912185,1354.3306860912185,0.9988497179863399,0.0007945070557319424
1354.337630733636,1354.337630733636,0.9999692482733966,0.0007947180872464584
1354.3445753760527,1354.3445753760527,1.000070445299685,0.0007947168392420994
1354.35152001833,1354.35152001833,1.0015268233971046,0.0007951435491361358
1354.358464660561,1354.358464660561,0.9993251457581704,0.0007946410260149235
1354.3654093027453,1354.3654093027453,0.999908227538594,0.000794698377419205
1354.3723539447897,1354.3723539447897,1.0006086764103377,0.0007947457701756987
1354.379298586788,1354.379298586788,0.9998222242596919,0.0007947839973384826
1354.3862432287856,1354.3862432287856,0.9990354003827473,0.0007945817178660784
1354.3931878706442,1354.3931878706442,1.0001125866581089,0.0007946088273346079
1354.400132512456,1354.400132512456,0.9999719258553388,0.0007949120865773975
1354.4070771540814,1354.4070771540814,0.9997461084196916,0.0007946427600112911
1354.4140217957538,1354.4140217957538,1.0016647275091177,0.0007951725927410478
1354.4209664373325,1354.4209664373325,1.000190923426818,0.0007949142300580978
1354.4279110788182,1354.4279110788182,0.9992203992775286,0.000794670955831588
1354.4348557202572,1354.4348557202572,0.9981273645519113,0.0007945277824225082
1354.4418003616033,1354.4418003616033,1.0007988739593803,0.0007949442326779845
1354.4487450028562,1354.4487450028562,1.0009193002257342,0.0007948223342250391
1354.455689644063,1354.455689644063,1.0002293152171753,0.0007947606727131222
1354.462634285176,1354.462634285176,0.9998076372594038,0.0007950826462188127
1354.4695789262428,1354.4695789262428,0.999527935590678,0.0007946248996252913
1354.4765235672162,1354.4765235672162,0.999687187395101,0.0007946314884409858
1354.4834682080968,1354.4834682080968,0.999978683692915,0.0007949538907236163
1354.4904128489773,1354.4904128489773,1.0006155015063203,0.0007945904709591156
1354.4973574896712,1354.4973574896712,0.9997278351214259,0.0007946470330788971
1354.504302130319,1354.504302130319,1.000646668494312,0.0007948676169599611
1354.5112467709664,1354.5112467709664,0.9996306735512807,0.0007944768995573375
1354.5181914115674,1354.5181914115674,1.000497733940984,0.0007948309323220157
1354.5251360519824,1354.5251360519824,0.9986144313245424,0.0007942799364367836
1354.5320806923505,1354.5320806923505,1.0000110573824752,0.0007945949831079033
1354.5390253327187,1354.5390253327187,0.9998251138851156,0.0007943936326689731
1354.5459699729477,1354.5459699729477,1.0004275492734584,0.0007946239015399077
1354.5529146130823,1354.5529146130823,1.0002334244231335,0.0007947806180155498
1354.5598592532183,1354.5598592532183,1.0008286474938077,0.0007950796238010968
1354.5668038931667,1354.5668038931667,0.9994642297179963,0.000794444387204886
1354.5737485331624,1354.5737485331624,0.9994504845275468,0.0007943079681996009
1354.5806931730187,1354.5806931730187,1.0005928119288092,0.0007945767053487791
1354.587637812828,1354.587637812828,1.000658184125191,0.0007946686835535049
1354.5945824525443,1354.5945824525443,0.9992494192276175,0.0007942771496102887
1354.6015270921675,1354.6015270921675,0.9999495586551204,0.0007945706105441447
1354.6084717316971,1354.6084717316971,0.9993743280284461,0.0007942900767935593
1354.615416371274,1354.615416371274,1.0003595961631688,0.0007946918227659314
1354.6223610106176,1354.6223610106176,0.9999786766839481,0.0007944666969885661
1354.6293056500544,1354.6293056500544,0.9996235143485668,0.0007944687551240785
1354.6362502893055,1354.6362502893055,1.000034558033632,0.0007945944248014657
1354.6431949285093,1354.6431949285093,1.0014190253930497,0.0007947652688936005
1354.65013956762,1354.65013956762,0.9999123728154092,0.0007945885530455368
1354.6570842066844,1354.6570842066844,0.999338653378639,0.0007943653795782362
1354.6640288457024,1354.6640288457024,0.9993651798565024,0.0007945329195226199
1354.6709734846272,1354.6709734846272,1.0002615501306833,0.0007945998896340567
1354.677918123412,1354.677918123412,0.9997972747816384,0.0007943942666291118
1354.68486276215,1354.68486276215,1.0004552220222134,0.0007948542837867042
1354.6918074008888,1354.6918074008888,1.0003336754176477,0.000794725998175822
1354.6987520394873,1354.6987520394873,0.9993759605290087,0.0007944242853985657
1354.7056966780397,1354.7056966780397,1.0011385804287793,0.0007948250784977594
1354.7126413164522,1354.7126413164522,1.0003239546701028,0.0007947132812517977
1354.719585955004,1354.719585955004,0.9988255603381656,0.0007943437380104696
1354.7265305933236,1354.7265305933236,0.9989531634797049,0.0007941358606607049
1354.7334752314098,1354.7334752314098,1.000757625455711,0.0007944368558061755
1354.7404198696827,1354.7404198696827,0.9997484990792402,0.0007941724513356072
1354.747364507769,1354.747364507769,1.0003983262425888,0.0007945526212460483
1354.754309145809,1354.754309145809,1.0009340704057528,0.0007945611360197956
1354.7612537837554,1354.7612537837554,0.999602875213216,0.0007943011286151597
1354.768198421656,1354.768198421656,1.000751109729114,0.000794874612574906
1354.7751430594628,1354.7751430594628,0.9994578939942358,0.0007942894398324494
1354.782087697177,1354.782087697177,0.999047328785862,0.0007938233488191676
1354.7890323348443,1354.7890323348443,1.0003133911461008,0.0007945522297059955
1354.7959769724648,1354.7959769724648,1.0000794363232246,0.0007944640373311586
1354.8029216099928,1354.8029216099928,0.999581752227338,0.0007942454387151653
1354.8098662474272,1354.8098662474272,0.9999242528796565,0.000794199732627329
1354.8168108848154,1354.8168108848154,1.000536943711095,0.0007944682704988489
1354.8237555221099,1354.8237555221099,0.9999624505850078,0.0007942611256815734
1354.8307001592652,1354.8307001592652,1.0006369590775694,0.0007945140673881974
1354.8376447964208,1354.8376447964208,1.0002281164181874,0.0007941901623757751
1354.8445894335753,1354.8445894335753,0.9987183316956575,0.0007939346179248977
1354.8515340706376,1354.8515340706376,0.9996537653763997,0.0007940246001968286
1354.85847870756,1354.85847870756,1.0010398107381648,0.0007945576557696954
1354.8654233444356,1354.8654233444356,0.9998343692134192,0.0007940339676185692
1354.872367981265,1354.872367981265,0.9995530830915925,0.0007939653060768824
1354.8793126179542,1354.8793126179542,1.000931999552151,0.0007943139806034753
1354.8862572546436,1354.8862572546436,0.9997209359177441,0.000794129913103394
1354.8932018912403,1354.8932018912403,1.0000272237733736,0.0007941969519070424
1354.9001465277436,1354.9001465277436,0.9996003926365924,0.0007936802781429193
1354.9070911641531,1354.9070911641531,1.000006542481115,0.0007941446670488488
1354.9140358005636,1354.9140358005636,1.000345584904101,0.0007941247201660485
1354.9209804368336,1354.9209804368336,0.9999049695742925,0.0007937142348220823
1354.9279250731042,1354.9279250731042,0.9999234828702047,0.0007939637465606088
1354.9354252801609,1354.9354252801609,1.000559559514377,0.0007944135271550628
1354.943203272564,1354.943203272564,1.000023682995634,0.00079426506941587
1354.950147908555,1354.950147908555,0.9990820504418876,0.000793799955303455
1354.957092544546,1354.957092544546,0.9997067388418628,0.0007941961397455993
1354.9640371803039,1354.9640371803039,1.0006194919097822,0.0007943645281899449
1354.9709818161555,1354.9709818161555,0.9995933842256705,0.000794116679355427
1354.977926451867,1354.977926451867,1.000338391541193,0.0007945374867597557
1354.9848710874855,1354.9848710874855,0.999883740300063,0.0007942965185866629
1354.9918157231039,1354.9918157231039,1.0008981557405299,0.0007944368771933925
1354.9987603586292,1354.9987603586292,1.0002365944222043,0.0007942071967525237
1355.0057049941079,1355.0057049941079,0.9996366200020468,0.0007940715948157484
1355.0126496294472,1355.0126496294472,0.9996731471834929,0.0007939717192829196
1355.0195942647395,1355.0195942647395,0.9989607340166021,0.0007940624669843136
1355.0265388999392,1355.0265388999392,0.9985982692291202,0.0007937117977520663
1355.0334835351382,1355.0334835351382,1.0008956124146124,0.0007945486871402136
1355.040428170198,1355.040428170198,1.0018074972247155,0.0007947090756929134
1355.0473728052114,1355.0473728052114,0.9993533355581794,0.0007940061098828824
1355.0543174402242,1355.0543174402242,1.0003723774038806,0.0007943660465102722
1355.0612620750976,1355.0612620750976,0.9998611407675421,0.0007941063636410905
1355.0682067099247,1355.0682067099247,0.9998516670634536,0.0007938556096654595
1355.075151344658,1355.075151344658,1.0002103885489555,0.0007940937351931813
1355.0820959793452,1355.0820959793452,0.9996138574767712,0.0007939345311887081
1355.0890406138926,1355.0890406138926,0.999017508819054,0.0007938531844131063
1355.09598524844,1355.09598524844,1.000970005595654,0.0007943026267455579
1355.1029298828948,1355.1029298828948,1.0008031399623298,0.0007944228952396626
1355.1098745173022,1355.1098745173022,0.9999945399951404,0.000794133881108876
1355.1168191516635,1355.1168191516635,0.9997901134935082,0.000794039510146994
1355.1237637859315,1355.1237637859315,1.0004008813579293,0.000794174610258791
1355.1307084201064,1355.1307084201064,0.9987989884263453,0.0007938499358333111
1355.137653054235,1355.137653054235,1.0007636101163058,0.0007945692553220542
1355.14459768827,1355.14459768827,0.998899814324967,0.0007939551866960025
1355.1515423223052,1355.1515423223052,0.9999521337845525,0.000794050696470073
1355.1584869562007,1355.1584869562007,0.9999628028047359,0.000794029574556159
1355.1654315900498,1355.1654315900498,1.0000659278219586,0.0007944791106151872
1355.1723762238057,1355.1723762238057,1.0008110734053983,0.0007940667470012072
1355.179320857608,1355.179320857608,1.000767035419733,0.0007939383947336693
1355.1862654912707,1355.1862654912707,1.0001415877864832,0.0007937421852617236
1355.1932101247007,1355.1932101247007,0.9978787533963075,0.0007933887968250579
1355.20015475827,1355.20015475827,1.000187912108307,0.0007937084371364813
1355.2070993916998,1355.2070993916998,1.0013362585325147,0.0007940613874617607
1355.2140440250835,1355.2140440250835,0.9998314739066945,0.0007936998877732821
1355.22098865842,1355.22098865842,0.9999177643224714,0.0007937343176139155
1355.2279332916169,1355.2279332916169,0.999770900004681,0.0007941549690381772
1355.2348779248143,1355.2348779248143,1.0001121822728876,0.0007940297084061257
1355.2418225579645,1355.2418225579645,0.9999351455952974,0.0007937995019268416
1355.2487671909287,1355.2487671909287,1.0004887739468842,0.0007940983677446808
1355.2557118239395,1355.2557118239395,0.9995078175306368,0.0007937713680209373
1355.2626564568106,1355.2626564568106,0.9995728866000422,0.0007936391510755631
1355.2696010896816,1355.2696010896816,1.0005433312145684,0.0007941038516417805
1355.276545722413,1355.276545722413,0.9999627452210726,0.0007938053784292095
1355.283490355098,1355.283490355098,1.0009861940524443,0.0007943343265749801
1355.2904349878293,1355.2904349878293,0.9999161473524893,0.0007942710638356171
1355.2973796203275,1355.2973796203275,0.9996522994113899,0.0007942318513757404
1355.3043242528263,1355.3043242528263,0.9994945344535104,0.0007937753440372987
1355.3112688853248,1355.3112688853248,1.0000078362576006,0.0007941448344074922
1355.3182135175903,1355.3182135175903,0.9984474018277958,0.0007935363520808304
1355.3251581499494,1355.3251581499494,1.0002669368659765,0.0007939658990422736
1355.332102782215,1355.332102782215,1.0003666611251822,0.0007942169082422887
1355.340436340794,1355.340436340794,1.0008835072864368,0.0007941164891522819
1355.3473809728737,1355.3473809728737,1.000009514451531,0.0007938884382866376
1355.3543256049065,1355.3543256049065,1.0009281961185408,0.0007941111124677956
1355.3612702367998,1355.3612702367998,0.9997776836205314,0.000793925493260061
1355.3682148687394,1355.3682148687394,0.9995615316696276,0.0007939476683704285
1355.375159500586,1355.375159500586,0.9995055265284132,0.0007937370107209442
1355.382104132293,1355.382104132293,1.000414879883976,0.0007938925727668238
1355.3890487640463,1355.3890487640463,0.999353080999301,0.0007940723932408739
1355.3962711809136,1355.3962711809136,1.0000280281930285,0.0007942381699502446
1355.404326953541,1355.404326953541,1.001015836329011,0.0007945716615556944
1355.411271585015,1355.411271585015,0.9999472053363012,0.0007942248732471033
1355.4182162164893,1355.4182162164893,0.9993473454938442,0.0007939466600696057
1355.4251608478237,1355.4251608478237,0.999498042862729,0.0007938541992531781
1355.432105479158,1355.432105479158,0.9996903541770047,0.0007935662045572755
1355.4390501102596,1355.4390501102596,1.0004851541730893,0.0007939135219019788
1355.4459947414543,1355.4459947414543,0.9995931947073192,0.0007937525101532497
1355.4529393725556,1355.4529393725556,0.9999306614552212,0.0007936691707211311
1355.459884003611,1355.459884003611,1.0005200393169071,0.0007936521217090169
1355.4668286345727,1355.4668286345727,1.000877812625733,0.0007937063094203206
1355.4737732654414,1355.4737732654414,1.0016770066652327,0.0007939812418102565
1355.4807178963104,1355.4807178963104,0.999717945081675,0.0007934800469406842
1355.4876625270856,1355.4876625270856,0.9978422636972837,0.0007929765292528304
1355.4946071577683,1355.4946071577683,0.9991855083882184,0.0007935237738581232
1355.5015517884042,1355.5015517884042,1.0011724559609072,0.0007938469907388005
1355.5084964190398,1355.5084964190398,0.9998882292101456,0.000793710441728092
1355.5154410494895,1355.5154410494895,1.0005945555562106,0.0007941322385404192
1355.5223856799391,1355.5223856799391,0.9988472658202939,0.000793756506559912
1355.5293303103422,1355.5293303103422,1.0000210187799183,0.0007938700100962662
1355.5362749406522,1355.5362749406522,0.9999997858995627,0.0007939026273559924
1355.5432195709623,1355.5432195709623,1.0004584437228465,0.0007939851751052978
1355.5501642011325,1355.5501642011325,1.0002408923301227,0.0007937452658233429
1355.5571088313027,1355.5571088313027,0.9994881480124997,0.0007938163684867076
1355.5640534612867,1355.5640534612867,1.0000052699452886,0.000793956337774758
1355.5709980913173,1355.5709980913173,1.0003449911719868,0.0007943137714512015
1355.5779427212544,1355.5779427212544,1.0002668110931845,0.0007938466952224511
1355.5848873511454,1355.5848873511454,1.000847940775984,0.0007941129231911332
1355.5918319808966,1355.5918319808966,0.9982882920889484,0.0007934623887520711
1355.5987766106944,1355.5987766106944,1.0002565035989555,0.0007939143201591009
1355.605721240352,1355.605721240352,0.9997288110413883,0.0007936830754892968
1355.6126658699172,1355.6126658699172,0.9991933332047112,0.0007936741087466887
1355.6196104995288,1355.6196104995288,1.0009618260109379,0.0007937141091687331
1355.626555129047,1355.626555129047,1.0006876252263635,0.0007937899794236654
1355.6334997584254,1355.6334997584254,1.000441542271976,0.000793856444305474
1355.640444387851,1355.640444387851,0.9998598189417299,0.0007936233048864922
1355.647389017136,1355.647389017136,0.9994104487810592,0.0007934074632319994
1355.6543336463753,1355.6543336463753,1.0013482906690137,0.000793772270455582
1355.6612782755208,1355.6612782755208,0.9985233759932157,0.0007931251464201455
1355.6682229047133,1355.6682229047133,1.000113794438241,0.0007936630153115647
1355.6751675337196,1355.6751675337196,0.9987444321661263,0.000793348985734715
1355.6821121627254,1355.6821121627254,1.0011382350592144,0.0007938776712679589
1355.6890567916384,1355.6890567916384,1.001142455714683,0.0007942180960319956
1355.6960014205051,1355.6960014205051,1.0007452652695217,0.0007939728271022113
1355.7029460492781,1355.7029460492781,0.998265349619699,0.0007935130311352643
1355.7098906780047,1355.7098906780047,0.9996206120262368,0.0007938440330279158
1355.7168353067318,1355.7168353067318,0.9999510916743649,0.0007938886590205137
1355.7237799353184,1355.7237799353184,1.001035653657155,0.0007943014904399044
1355.7307245638592,1355.7307245638592,0.9996344632419862,0.0007939485922433135
1355.7376691923994,1355.7376691923994,0.999247753201554,0.0007938189390648369
1355.745169391074,1355.745169391074,1.000951678937843,0.0007941819406617329
1355.752947374816,1355.752947374816,0.999453136212853,0.0007938171689614316
1355.7598920030766,1355.7598920030766,1.0002702154302567,0.0007940127939530352
1355.7668366313378,1355.7668366313378,0.9988657128155751,0.0007936662088256763
1355.773781259506,1355.773781259506,1.000978027893375,0.0007939383424318692
1355.7807258876269,1355.7807258876269,0.9998158201647375,0.0007937789497093287
1355.7876705157018,1355.7876705157018,1.000560535253491,0.0007939352011335041
1355.7946151436372,1355.7946151436372,0.9998385538010288,0.0007934905618659785
1355.801559771619,1355.801559771619,0.9997814324675428,0.0007933685452280964
1355.8085043994606,1355.8085043994606,0.9993010795824553,0.000793329795384565
1355.815449027256,1355.815449027256,1.0005097868471018,0.0007937676844296998
1355.8223936549116,1355.8223936549116,1.0005902650850513,0.0007934850100345328
1355.8293382826141,1355.8293382826141,0.9997390646160358,0.0007932884037016372
1355.8362829102232,1355.8362829102232,0.999653189368459,0.000793688636047165
1355.8432275377854,1355.8432275377854,1.0006536481315806,0.0007938685082228391
1355.8501721652551,1355.8501721652551,1.0000441025400795,0.0007936801557762198
1355.8571167927246,1355.8571167927246,1.0007851511744337,0.0007938628555587857
1355.864061420054,1355.864061420054,0.9996362129886751,0.0007935435997206205
1355.8710060474307,1355.8710060474307,0.999268353247851,0.0007934910850375344
1355.8779506746205,1355.8779506746205,0.9993611870648568,0.0007936584955771343
1355.884895301811,1355.884895301811,0.999627457445358,0.0007935342577865122
1355.8918399289073,1355.8918399289073,1.0003330895595453,0.0007939293365530091
