time,time,flux,flux_err
1598.0822778327665,1598.0822778327665,1.0004577990435715,0.00047931698616945456
1598.0906113535366,1598.0906113535366,0.999354069935603,0.0004781245663164205
1598.098944874326,1598.098944874326,0.9999559415677357,0.0004774660600050066
1598.1072783951543,1598.1072783951543,0.9999271951784202,0.00047660470725379225
1598.114917455954,1598.114917455954,0.9996791800031705,0.000434388409481652
1598.1218620566797,1598.1218620566797,1.0005291340446323,0.00043383331015727406
1598.128806657451,1598.128806657451,1.0006906909870918,0.0004334116388355339
1598.1357512581994,1598.1357512581994,0.9997490166869308,0.0004325768932564395
1598.1435292111355,1598.1435292111355,0.9992488938655679,0.0004318899970934694
1598.1510293800088,1598.1510293800088,1.0005197578859932,0.00043164032382748025
1598.1579739808508,1598.1579739808508,0.9999715744052452,0.0004313857144595368
1598.1649185817155,1598.1649185817155,0.9993302863304269,0.00043082449476754953
1598.1718631825804,1598.1718631825804,1.0003507784645618,0.0004302037996035627
1598.178807783515,1598.178807783515,0.9999093273404609,0.0004297517257572085
1598.1857523843798,1598.1857523843798,1.0005251045120824,0.0004295437685778317
1598.1926969853614,1598.1926969853614,1.0000950686966974,0.00042917404390253503
1598.1996415863423,1598.1996415863423,0.9994658970391048,0.00042858206334136844
1598.2065861873239,1598.2065861873239,1.000510392414426,0.000428242522344545
1598.2135307883048,1598.2135307883048,0.9997738601317332,0.00042799783170011953
1598.220475389286,1598.220475389286,0.9998319860278908,0.00042763857470059613
1598.2274199902909,1598.2274199902909,1.000379996719739,0.00042729674743625137
1598.234364591365,1598.234364591365,0.9996762788209205,0.0004267815792773959
1598.2413091924166,1598.2413091924166,0.9997627582765822,0.00042649334704456253
1598.2482537934904,1598.2482537934904,0.999962839008167,0.00042619791452906257
1598.2551983945887,1598.2551983945887,0.9998674986964804,0.00042579634545554697
1598.2621429956857,1598.2621429956857,1.0002117088201459,0.00042561054876864184
1598.269087596807,1598.269087596807,1.000353800432577,0.0004251454677806075
1598.2760321979745,1598.2760321979745,1.0000869633568752,0.0004247138166134152
1598.2829767991188,1598.2829767991188,0.9999540657231911,0.00042429633814082475
1598.2899214003096,1598.2899214003096,1.0002686462531751,0.0004239363731114752
1598.2968660014772,1598.2968660014772,0.9996074895701167,0.0004234523187823997
1598.3038106026913,1598.3038106026913,1.0000528614181126,0.0004230977064147319
1598.3107552038819,1598.3107552038819,0.9998124946339015,0.0004227255428092042
1598.3176998051197,1598.3176998051197,0.9999616050017069,0.00042211525308271806
1598.3246444063566,1598.3246444063566,0.9996137143059816,0.0004218698241126511
1598.3315890076406,1598.3315890076406,0.9999395164160937,0.000421321646340291
1598.3385336089013,1598.3385336089013,1.0001176831186105,0.00042099035163256567
1598.3454782101849,1598.3454782101849,1.0006336543510728,0.0004207309038190781
1598.3524228114927,1598.3524228114927,0.9999167208794624,0.00042014519439354675
1598.3593674127994,1598.3593674127994,1.0004601722156308,0.00041984787310750626
1598.3663120141305,1598.3663120141305,0.99974751427783,0.00041948850808545536
1598.3732566154608,1598.3732566154608,0.9994738979737703,0.00041885158341391
1598.3802012168144,1598.3802012168144,1.0001223041492446,0.00041874000037397436
1598.3871458181452,1598.3871458181452,0.9997489838565607,0.00041831867289454416
1598.394090419545,1598.394090419545,1.0005691353080803,0.00041807088957870946
1598.4010350209228,1598.4010350209228,1.0000661924003647,0.0004178512479430124
1598.4079796223227,1598.4079796223227,1.00040585953619,0.00041751781714689736
1598.4149242237231,1598.4149242237231,0.9995706104576488,0.00041709344963055024
1598.4218688251465,1598.4218688251465,0.9992558375673081,0.00041686504595463234
1598.4288134265935,1598.4288134265935,1.000340062857644,0.0004161718638478726
1598.435758028017,1598.435758028017,0.9996704175831779,0.00041612464391210986
1598.4427026294875,1598.4427026294875,1.0003832964218602,0.0004158383718183971
1598.4496472309347,1598.4496472309347,0.9999461473019066,0.0004155536728578248
1598.4565918324279,1598.4565918324279,1.000347096678134,0.0004154660058884553
1598.463536433875,1598.463536433875,1.000013365116476,0.0004151560580527727
1598.4704810353915,1598.4704810353915,0.9996652044805764,0.00041469352850841525
1598.477425636885,1598.477425636885,1.0005039496483203,0.00041478297831615735
1598.4843702384253,1598.4843702384253,0.9998255193624986,0.0004143375905763322
1598.491314839895,1598.491314839895,1.0000096100749911,0.0004143762399362169
1598.498259441459,1598.498259441459,0.9995544424141446,0.0004140889280481473
1598.5052040430216,1598.5052040430216,0.9999777013351331,0.00041396307064721117
1598.5121486445855,1598.5121486445855,0.9999929067858648,0.00041388363358028766
1598.5190932461487,1598.5190932461487,0.9995669438375048,0.00041364444463581646
1598.526037847712,1598.526037847712,1.0005483458573727,0.0004135801049283285
1598.5329824492753,1598.5329824492753,0.9998302587966021,0.00041348226020277215
1598.5399270508387,1598.5399270508387,1.0001869597015307,0.00041328694628402305
1598.5468716524022,1598.5468716524022,1.000188469310655,0.00041309134127741863
1598.5538162540115,1598.5538162540115,1.0003309983411495,0.0004131783714383495
1598.560760855645,1598.560760855645,0.9996121144269878,0.00041272627767978426
1598.5677054572081,1598.5677054572081,0.9998305929537874,0.0004124862111295416
1598.574650058888,1598.574650058888,0.999952313139004,0.0004124723696725839
1598.5815946604748,1598.5815946604748,1.0000004530198237,0.0004125073815986555
1598.5885392621308,1598.5885392621308,1.0003678429803557,0.0004123725745790994
1598.5954838637647,1598.5954838637647,1.0002632289291509,0.00041240735727237276
1598.6024284654204,1598.6024284654204,1.0002233364628983,0.0004122764110729688
1598.609373067054,1598.609373067054,0.9994882575813678,0.00041234833210988776
1598.6163176687337,1598.6163176687337,0.9997481349737057,0.0004119817489236594
1598.623262270413,1598.623262270413,0.9998353647863073,0.00041214770093869594
1598.6302068720702,1598.6302068720702,0.9998142194766757,0.00041202164063246216
1598.6371514737493,1598.6371514737493,1.0000099847838118,0.0004120921665435772
1598.644096075453,1598.644096075453,1.0001575806401086,0.0004120658284483167
1598.6510406771556,1598.6510406771556,1.000290627983166,0.00041199249240546213
1598.6579852788352,1598.6579852788352,1.0004338706912033,0.0004119645332518744
1598.6649298805387,1598.6649298805387,0.9998326426116204,0.0004118824536177818
1598.6718744822415,1598.6718744822415,1.000145557821106,0.000411587270751371
1598.6788190839447,1598.6788190839447,0.9997830597035403,0.0004113984062433544
1598.685763685694,1598.685763685694,1.000067938844556,0.00041126242564884583
1598.6927082873972,1598.6927082873972,0.9999486214529002,0.000411124086887274
1598.6996528891234,1598.6996528891234,0.9996540624675487,0.0004109879902961215
1598.7065974908733,1598.7065974908733,0.9999863516465963,0.00041103219975742255
1598.7135420925993,1598.7135420925993,0.9991024238274517,0.0004107254855074194
1598.720486694349,1598.720486694349,1.000138608760429,0.00041065132938951685
1598.7274312960753,1598.7274312960753,0.9999475307035421,0.00041051649384388715
1598.7343758978245,1598.7343758978245,1.0003562320565833,0.0004103355434013331
1598.7413204995978,1598.7413204995978,0.9999314550796017,0.0004100023796912277
1598.7482651013474,1598.7482651013474,1.0004711715132597,0.00041004614738225105
1598.7552097030964,1598.7552097030964,1.0004903386257702,0.0004099574727084567
1598.76215430487,1598.76215430487,0.9999715209964701,0.0004099469285758895
1598.769098906619,1598.769098906619,0.9997295774606826,0.000409784370775269
1598.7760435084156,1598.7760435084156,0.999597217395873,0.00040965836892208947
1598.7829881101648,1598.7829881101648,0.999352402575673,0.00040974479211442085
1598.789932711961,1598.789932711961,1.0005967052716978,0.00040985280583256636
1598.796877313734,1598.796877313734,1.0000430004424028,0.0004094276392128483
1598.8038219155303,1598.8038219155303,0.9999234246665882,0.000409320458729501
1598.8107665173034,1598.8107665173034,0.9994986316850024,0.00040901131973831545
1598.8177111190757,1598.8177111190757,1.0004638283138572,0.0004092141660075229
1598.8246557208724,1598.8246557208724,1.0001928250545098,0.0004090084373630304
1598.831600322668,1598.831600322668,0.9995374171682107,0.0004089041982975445
1598.8385449244647,1598.8385449244647,1.0002144723290098,0.0004088883363247078
1598.8454895262607,1598.8454895262607,1.0000466928235876,0.0004088966261602973
1598.8524341280565,1598.8524341280565,0.9998801708984331,0.0004086810318266348
1598.859378729853,1598.859378729853,1.000010605056545,0.0004085151303093295
1598.8663233316488,1598.8663233316488,0.9997809883491543,0.00040851535478068836
1598.873267933445,1598.873267933445,1.0002819269456122,0.0004084169660964361
1598.8802125352647,1598.8802125352647,1.0012646185415366,0.00040838442389779254
1598.8871571370605,1598.8871571370605,0.9998459665511772,0.00040828520728977794
1598.8941017388572,1598.8941017388572,0.9997501861057561,0.00040813078286679183
1598.9010463406757,1598.9010463406757,0.9997248115311365,0.0004079006023980856
1598.9079909424727,1598.9079909424727,0.9996642155207797,0.0004078083394375485
1598.914935544292,1598.914935544292,1.0002136014027054,0.000407682140659949
1598.921880146111,1598.921880146111,1.0006952510478897,0.00040767175737792765
1598.9288247479076,1598.9288247479076,0.9998313433733177,0.0004072813709158654
1598.9357693497034,1598.9357693497034,1.000484883110971,0.00040731821628929186
1598.9427139515233,1598.9427139515233,1.000056619613568,0.00040709088002167026
1598.9496585533423,1598.9496585533423,0.999859466791408,0.0004070946431692179
1598.9566031551387,1598.9566031551387,1.0000472234674733,0.0004068130392101861
1598.9635477569582,1598.9635477569582,0.9999551667033766,0.0004067824786623679
1598.9704923587542,1598.9704923587542,0.9996984964447634,0.00040667624989281875
1598.9774369605739,1598.9774369605739,0.9999619816586834,0.0004064035243016223
1598.9843815623929,1598.9843815623929,0.9994247631319098,0.0004063150757681242
1598.9913261641893,1598.9913261641893,1.0003050745888857,0.00040610311226681054
1598.9982707660085,1598.9982707660085,1.0001728991662029,0.00040599466855701093
1599.0052153678046,1599.0052153678046,1.0004131774610354,0.0004056412728680898
1599.0121599696245,1599.0121599696245,1.0000060541836326,0.00040556082433732194
1599.0191045714203,1599.0191045714203,1.0000156110245102,0.0004054094204717271
1599.0260491732167,1599.0260491732167,1.0001299552635632,0.0004051732657996656
1599.0329937750357,1599.0329937750357,0.9996943721399971,0.0004052237463251831
1599.0399383768322,1599.0399383768322,0.9996940869464037,0.00040500890828794697
1599.0468829786282,1599.0468829786282,1.0004105309580766,0.00040502424517071384
1599.0538275804472,1599.0538275804472,1.0000774974262348,0.00040500307971442183
1599.060772182244,1599.060772182244,0.9999135217668254,0.0004045606062655526
1599.06771678404,1599.06771678404,1.0001365997338652,0.00040455307169060114
1599.0746613858357,1599.0746613858357,0.9996186158941679,0.00040434633229083925
1599.0816059876322,1599.0816059876322,0.9998593256367064,0.0004044435764929481
1599.088550589428,1599.088550589428,1.0001953883814534,0.0004042682784071901
1599.0954951912013,1599.0954951912013,0.9993058720685918,0.0004037816027865091
1599.1024397929973,1599.1024397929973,1.0003098946555746,0.00040389093630181696
1599.1093843947933,1599.1093843947933,1.0002866928256853,0.00040367983900811396
1599.1163289965666,1599.1163289965666,1.0008902881628656,0.0004035322489591243
1599.123273598339,1599.123273598339,0.9994798680719083,0.0004031544722537918
1599.1302182001357,1599.1302182001357,1.0001074576745326,0.0004035566758530844
1599.1371628019078,1599.1371628019078,1.0003150934298377,0.0004032968042077245
1599.1441074036813,1599.1441074036813,0.9997787517771408,0.00040340162924403937
1599.1510520054537,1599.1510520054537,0.9999676350569352,0.00040304562776078394
1599.1579966072266,1599.1579966072266,0.9990328904168193,0.00040264909647046057
1599.1649412089996,1599.1649412089996,1.0002429964461,0.00040283912909102595
1599.171885810749,1599.171885810749,1.0001059543575783,0.00040283745866667416
1599.178830412522,1599.178830412522,1.0000708017016176,0.00040254862441431796
1599.1857750142715,1599.1857750142715,1.0001279251400184,0.00040246039753932193
1599.192719616021,1599.192719616021,0.9999185313580792,0.00040249412371574515
1599.1996642177942,1599.1996642177942,1.0004672933542926,0.0004023045935616784
1599.20660881952,1599.20660881952,0.9998975688739714,0.0004024421161984328
1599.2135534212698,1599.2135534212698,0.9999465248610788,0.00040217489508423567
1599.2204980230192,1599.2204980230192,0.9998886998964561,0.00040242476934386864
1599.2274426247454,1599.2274426247454,0.99957570186087,0.0004019136997785072
1599.234387226472,1599.234387226472,1.0005853371058668,0.0004021530037210205
1599.241331828221,1599.241331828221,1.000261721560252,0.0004019175094678247
1599.2482764299248,1599.2482764299248,0.9996185746105045,0.00040180486238068603
1599.255221031674,1599.255221031674,0.9996826720022515,0.0004017297878712942
1599.2621656333772,1599.2621656333772,1.0003247562172572,0.00040174992709644103
1599.2691102350802,1599.2691102350802,1.0001336233567384,0.0004016958711158565
1599.2760548367828,1599.2760548367828,0.9995623940405045,0.0004015142707095326
1599.2829994385097,1599.2829994385097,1.0000697989667968,0.0004014014496288774
1599.2899440402123,1599.2899440402123,0.9999964230219355,0.0004014012476042871
1599.2968886418917,1599.2968886418917,1.0002321098600935,0.00040114554278279836
1599.3038332435951,1599.3038332435951,0.9998352829543284,0.0004012296593990305
1599.3107778452747,1599.3107778452747,1.0001101629628704,0.00040103513027484934
1599.3177224469546,1599.3177224469546,1.0001214431251557,0.000400839295971095
1599.3246670486342,1599.3246670486342,0.9999404492778805,0.0004006711486522539
1599.331611650314,1599.331611650314,0.9995777895837769,0.00040046528812792833
1599.3385562519936,1599.3385562519936,1.000486071290916,0.0004005948831648446
1599.34550085365,1599.34550085365,0.9993029089901315,0.00040054530411358705
1599.3524454553067,1599.3524454553067,1.0006363664564304,0.000400178537863978
1599.3593900569626,1599.3593900569626,0.9999210783283268,0.0003998550765247677
1599.3663346586195,1599.3663346586195,0.999724638985737,0.00039989606285074713
1599.3732792602525,1599.3732792602525,1.0003833199901973,0.000399875676627596
1599.3802238618855,1599.3802238618855,1.0001623093174572,0.0003997737877551235
1599.387168463519,1599.387168463519,0.9998680609920665,0.0003996374452012441
1599.3941130651285,1599.3941130651285,0.9997777079734455,0.00039956495049399133
1599.4010576667856,1599.4010576667856,0.9999721499756378,0.00039946807683567426
1599.4080022683718,1599.4080022683718,1.0001999059618132,0.0003995648108329492
1599.4149468699813,1599.4149468699813,0.9999294327446488,0.0003992182085579579
1599.421891471615,1599.421891471615,1.0000691151913266,0.0003995633922668863
1599.4288360731775,1599.4288360731775,0.9994788367785812,0.00039914229347478284
1599.4357806747416,1599.4357806747416,1.0001140685356185,0.0003994334944284662
1599.442725276421,1599.442725276421,1.000647901573734,0.0003992028521200723
1599.4496698779842,1599.4496698779842,0.9999676210822177,0.0003993131305348299
1599.4566144795479,1599.4566144795479,1.0002638291316985,0.0003990627738057421
1599.4635590811108,1599.4635590811108,0.9996326704738591,0.00039888509099624426
1599.4705036826747,1599.4705036826747,1.000004647292141,0.0003991167648691738
1599.4774482842374,1599.4774482842374,1.0005485285504874,0.0003989651341480653
1599.4843928858004,1599.4843928858004,0.9996256205194272,0.00039875537251012874
1599.4913374872713,1599.4913374872713,0.9995619942331195,0.000398798090010315
1599.4982820888108,1599.4982820888108,1.0000003071985542,0.000399058395155496
1599.5052266903745,1599.5052266903745,0.9998422819807289,0.00039882317481048637
1599.5121712918908,1599.5121712918908,0.9997377606164264,0.00039885098914072974
1599.5191158933842,1599.5191158933842,1.0001344633658564,0.0003986807906314111
1599.5260604949246,1599.5260604949246,1.0003935829810617,0.0003987563857433273
1599.5330050963944,1599.5330050963944,1.0003819189440906,0.0003985635447402324
1599.5399496979117,1599.5399496979117,0.9999733616285003,0.00039855133118296145
1599.5468942994046,1599.5468942994046,0.9998880655400875,0.0003986566658209493
1599.5538389008748,1599.5538389008748,1.0002733365844414,0.00039854905427629884
1599.5607835023452,1599.5607835023452,0.9996527368911308,0.00039866423329070166
1599.5677281038152,1599.5677281038152,0.99993538981448,0.0003985013262823714
1599.5746727052854,1599.5746727052854,1.0000431090526583,0.00039887177312019565
1599.5816173067324,1599.5816173067324,0.9996316296951699,0.00039869721291714664
1599.588561908179,1599.588561908179,0.9996113795450462,0.0003986884237576923
1599.595506509603,1599.595506509603,1.0003787129487014,0.000398734251171254
1599.6024511110495,1599.6024511110495,1.00044835320443,0.000398796463358487
1599.6093957124735,1599.6093957124735,1.0002772256138688,0.00039882060747319467
1599.616340313897,1599.616340313897,1.0008096820623325,0.00039899838848476586
1599.6232849152739,1599.6232849152739,0.9997040119894688,0.00039892035322355396
1599.6302295166977,1599.6302295166977,0.9995683110796044,0.0003987027531976295
1599.6371741180742,1599.6371741180742,1.0000466134007069,0.00039856638996625714
1599.6441187194746,1599.6441187194746,0.9999522768775557,0.0003989822261908281
1599.6510633208286,1599.6510633208286,0.9996911659874795,0.0003987184965493701
1599.6580079222053,1599.6580079222053,0.9998460084714615,0.00039882181925969263
1599.664952523583,1599.664952523583,1.0000663613674015,0.00039879902921523416
1599.6718971249127,1599.6718971249127,1.000004187589292,0.0003990256696688019
1599.6788417262667,1599.6788417262667,1.000535925387266,0.0003988730882313001
1599.6857863275975,1599.6857863275975,1.0006866579380551,0.000398881127468299
1599.6927309289274,1599.6927309289274,0.9996709486009685,0.00039882324029790844
1599.699675530235,1599.699675530235,0.9995895114763336,0.0003986651150554081
1599.7066201315417,1599.7066201315417,1.0003948409936103,0.0003988885718066379
1599.7135647328726,1599.7135647328726,0.9998261259036566,0.0003987629553534688
1599.7205093341565,1599.7205093341565,0.9991722471557416,0.0003986085280642336
1599.7274539354166,1599.7274539354166,0.9999991538694306,0.0003986664070563267
1599.7343985367008,1599.7343985367008,1.0000376823759851,0.0003986892500432184
1599.7413431379614,1599.7413431379614,0.9999517308320363,0.00039880169140716476
1599.7482877392454,1599.7482877392454,0.9998957065587867,0.0003986574992925036
1599.7552323405062,1599.7552323405062,1.000104625393425,0.0003985338863080473
1599.7621769417199,1599.7621769417199,1.0001633454091785,0.00039860027520875567
1599.7691215429572,1599.7691215429572,0.9998423599845904,0.0003983434720536633
1599.7760661441948,1599.7760661441948,1.0001571191373677,0.0003983097145589142
1599.7830107454083,1599.7830107454083,0.9996362810169732,0.00039812645939071856
1599.7899553465995,1599.7899553465995,0.9999095725533278,0.00039829281408261183
1599.796899947813,1599.796899947813,1.0000227818982288,0.00039816271681212
1599.8038445489808,1599.8038445489808,1.0003743099227766,0.00039815931946712136
1599.8107891501484,1599.8107891501484,1.00000307549333,0.000398259332790905
1599.817733751339,1599.817733751339,0.999469963024441,0.0003980174585963175
1599.8246783525067,1599.8246783525067,1.0000965158170119,0.0003980388853724014
1599.8316229536508,1599.8316229536508,1.0003713117563475,0.00039796629555949244
1599.8385675547947,1599.8385675547947,0.9996798030486145,0.0003982850999556917
