time,time,flux,flux_err
1354.1193802833138,1354.1193802833138,1.0000204778396813,5.05613759413265e-05
1354.1281766010463,1354.1281766010463,0.9999639820170465,5.0562848426862993e-05
1354.1358155083649,1354.1358155083649,1.000026458457335,4.6158248664351745e-05
1354.1427599691742,1354.1427599691742,0.9999812559474688,4.615596583748442e-05
1354.149704429797,1354.149704429797,0.9999753271606922,4.616122358500325e-05
1354.1566488902338,1354.1566488902338,0.9999982705930922,4.616203383744072e-05
1354.1635933502978,1354.1635933502978,0.9999773290873011,4.6162294901332096e-05
1354.1705378101758,1354.1705378101758,1.0000535962664248,4.616560402549868e-05
1354.1774822698674,1354.1774822698674,1.000070391642567,4.616534221290831e-05
1354.1844267292797,1354.1844267292797,1.000007274337189,4.616341099035892e-05
1354.1913711885986,1354.1913711885986,0.999995981188005,4.616732288051893e-05
1354.1983156475453,1354.1983156475453,1.0000202429024057,4.6165942630333404e-05
1354.2052601063988,1354.2052601063988,0.9999081753154057,4.616492757776258e-05
1354.2122045648798,1354.2122045648798,1.00002885578041,4.6171015106705324e-05
1354.2191490232672,1354.2191490232672,0.9999789557100034,4.616884016934095e-05
1354.226093481469,1354.226093481469,0.999927884988072,4.6169320960679175e-05
1354.233037939391,1354.233037939391,1.0001205879727624,4.6175237134380557e-05
1354.239982397127,1354.239982397127,1.0000038896191268,4.617285539817676e-05
1354.2469268545833,1354.2469268545833,1.0000033404642361,4.6172907438364865e-05
1354.2538713118533,1354.2538713118533,0.999941028861332,4.6169947613935865e-05
1354.260815768937,1354.260815768937,0.9999239199162895,4.6171093610049564e-05
1354.2677602256488,1354.2677602256488,0.9999929135369381,4.617274374357932e-05
1354.27470468236,1354.27470468236,0.9999230705068426,4.6170973209244e-05
1354.2816491390715,1354.2816491390715,1.0000931574689294,4.61753968087069e-05
1354.288593595224,1354.288593595224,1.0000078508287753,4.617457311041363e-05
1354.2955380513768,1354.2955380513768,1.0001756439262532,4.6178031503248094e-05
1354.3024825072496,1354.3024825072496,1.0000008701175607,4.617495959844624e-05
1354.3094269630296,1354.3094269630296,1.000072452732092,4.6178615762744265e-05
1354.3163714184375,1354.3163714184375,0.9998581781118748,4.617303476826797e-05
1354.3233158737517,1354.3233158737517,0.9999973985706767,4.61777003102943e-05
1354.3302603287866,1354.3302603287866,0.9999423125575758,4.617761494295615e-05
1354.3372047837286,1354.3372047837286,1.000104676334102,4.6182721418687523e-05
1354.3441492382979,1354.3441492382979,0.99989018635221,4.617782139335274e-05
1354.3510936931468,1354.3510936931468,1.0000715172384977,4.618458636147923e-05
1354.3580381472502,1354.3580381472502,0.9998967184818472,4.6181436206731845e-05
1354.364982601447,1354.364982601447,1.000002804223992,4.618511033407909e-05
1354.371927055458,1354.371927055458,0.9999298970573293,4.618403031205299e-05
1354.3788715091887,1354.3788715091887,1.0000330063250877,4.6184161392866076e-05
1354.3858159628269,1354.3858159628269,1.0001454072280402,4.618830401601e-05
1354.3927604162786,1354.3927604162786,0.9999820221807887,4.6187373331963675e-05
1354.3997048695442,1354.3997048695442,1.000089964312543,4.6191704280895476e-05
1354.4066493225303,1354.4066493225303,0.9999565441519703,4.6187271968628645e-05
1354.4135937754231,1354.4135937754231,0.9999314608568461,4.6186395551681844e-05
1354.420538228223,1354.420538228223,0.9999603141435458,4.618954456617585e-05
1354.4274826806507,1354.4274826806507,1.0000088212590006,4.619180108949436e-05
1354.4344271331706,1354.4344271331706,1.0000158694919696,4.6194421721102564e-05
1354.4413715852254,1354.4413715852254,1.0000072242097242,4.619369852497079e-05
1354.4483160372802,1354.4483160372802,1.0000916012001797,4.619666579342766e-05
1354.4552604891487,1354.4552604891487,0.9999397782793394,4.6194307281299566e-05
1354.4622049408313,1354.4622049408313,0.9999986864305763,4.6195307621389225e-05
1354.469149392327,1354.469149392327,1.0000174948953058,4.6196012679089274e-05
1354.4760938437296,1354.4760938437296,0.9999359541510826,4.6195943754990776e-05
1354.4830382948535,1354.4830382948535,0.9998665323397024,4.6194790144807167e-05
1354.4899827459767,1354.4899827459767,1.0000173286139222,4.6193384715273374e-05
1354.4969271968207,1354.4969271968207,1.0000199918298427,4.619755736721744e-05
1354.5038716474787,1354.5038716474787,1.0000404379782508,4.619682441942875e-05
1354.510816098043,1354.510816098043,1.000043328398056,4.6198020212603286e-05
1354.5177605484218,1354.5177605484218,1.0000702008792188,4.6199346072800994e-05
1354.524704998707,1354.524704998707,1.000022119465379,4.619886339683322e-05
1354.5316494488059,1354.5316494488059,1.0000582851226465,4.620179498275715e-05
1354.5385938986258,1354.5385938986258,0.9999678236078988,4.6199243968361114e-05
1354.545538348352,1354.545538348352,1.000030970854035,4.6199621358670634e-05
1354.5524827980785,1354.5524827980785,0.9999645380820581,4.620155854497311e-05
1354.5594272474327,1354.5594272474327,0.9998850474728718,4.619928502445299e-05
1354.566371696786,1354.566371696786,0.9999523044898785,4.620157029057384e-05
1354.573316145954,1354.573316145954,0.9998903570373804,4.620068151504268e-05
1354.5802605949352,1354.5802605949352,0.9999598046458817,4.6200339674039545e-05
1354.5872050438236,1354.5872050438236,1.000217543178356,4.6208469943342625e-05
1354.594149492526,1354.594149492526,1.000356536037824,4.6212314355310565e-05
1354.6010939410414,1354.6010939410414,1.000142908254492,4.6208064937215465e-05
1354.6080383894641,1354.6080383894641,0.9999485599778986,4.6204896593452944e-05
1354.6149828377004,1354.6149828377004,0.9999115727728285,4.620364626448163e-05
1354.6219272858434,1354.6219272858434,0.9999045105496467,4.620473817174613e-05
1354.6288717338005,1354.6288717338005,0.9999760704879364,4.6206472256056267e-05
1354.6358161816647,1354.6358161816647,1.0000007053019735,4.620625055504626e-05
1354.6427606293419,1354.6427606293419,0.9999874192537442,4.620675316006033e-05
1354.6497050770197,1354.6497050770197,1.00003515118203,4.620697534037234e-05
1354.6566495244174,1354.6566495244174,0.9999659814851272,4.62101093097893e-05
1354.6635939716296,1354.6635939716296,1.0001146175131232,4.621274112388017e-05
1354.6705384187487,1354.6705384187487,1.0000295154622445,4.621211149748547e-05
1354.677482865774,1354.677482865774,1.0000201477350255,4.621302047765252e-05
1354.6844273125203,1354.6844273125203,0.9999102418343812,4.6211921676837324e-05
1354.6913717593595,1354.6913717593595,0.9999423853629104,4.621306333301843e-05
1354.6983162059194,1354.6983162059194,0.9999843673468508,4.621465819432268e-05
1354.7052606523864,1354.7052606523864,1.0000422845147878,4.621631937386685e-05
1354.7122050987603,1354.7122050987603,1.0000531504981176,4.621704773276165e-05
1354.7191495448544,1354.7191495448544,1.000016625334811,4.621643736527419e-05
1354.726093990949,1354.726093990949,0.9999806012795125,4.62175122166557e-05
1354.73303843695,1354.73303843695,0.9999898166468013,4.621666904839541e-05
1354.7399828827652,1354.7399828827652,0.9999468465911263,4.621755960753019e-05
1354.7469273283937,1354.7469273283937,0.9999456628889629,4.6216653550275516e-05
1354.753871773929,1354.753871773929,0.9999871145301282,4.621890094745497e-05
1354.7608162193715,1354.7608162193715,1.000037688284967,4.6219454498986555e-05
1354.7677606646273,1354.7677606646273,1.0000903424157976,4.622128735268085e-05
1354.7747051096972,1354.7747051096972,0.9999791651638998,4.6218707269821604e-05
1354.7816495547672,1354.7816495547672,1.0000862322037372,4.622096311132596e-05
1354.788593999837,1354.788593999837,0.9999058898897752,4.621744506621108e-05
1354.7955384445345,1354.7955384445345,1.0000009800731025,4.62195492456468e-05
1354.8024828892317,1354.8024828892317,0.9999025416320635,4.621745676609944e-05
1354.809427333836,1354.809427333836,1.0000242056854862,4.6219290244600204e-05
1354.8163717781608,1354.8163717781608,1.0000003582670467,4.622046989712044e-05
1354.8233162224856,1354.8233162224856,1.0000998429514132,4.6223422744097996e-05
1354.830260666624,1354.830260666624,1.0000226416877156,4.622196746875338e-05
1354.8372051107629,1354.8372051107629,0.9999822116667108,4.622295769395193e-05
1354.8441495547152,1354.8441495547152,0.9999776800421565,4.622364923912458e-05
1354.8510939984812,1354.8510939984812,1.000043648021337,4.6221566765223434e-05
1354.8580384421537,1354.8580384421537,0.9999272282820989,4.622217039610452e-05
1354.8649828858265,1354.8649828858265,0.9999600568875721,4.622331961185328e-05
1354.8719273292204,1354.8719273292204,1.0000350426891995,4.622421313001556e-05
1354.8788717726136,1354.8788717726136,1.0000321856553938,4.622496200643468e-05
1354.885816215821,1354.885816215821,1.0000648147171254,4.622691422121146e-05
1354.892760658935,1354.892760658935,0.999891042414989,4.622356960837491e-05
1354.8997051018628,1354.8997051018628,1.0000190226362544,4.622518500960659e-05
1354.906649544791,1354.906649544791,1.0000447541806632,4.622858072595115e-05
1354.9135939878115,1354.9135939878115,0.9999721044579688,4.622621595970294e-05
1354.9205384300872,1354.9205384300872,1.0000029416409126,4.622537457747644e-05
1354.9274828728292,1354.9274828728292,1.0000492991582595,4.622832936677537e-05
1354.934427315198,1354.934427315198,0.9999000126148443,4.622534276717408e-05
1354.9427606460224,1354.9427606460224,1.000048428597757,4.62257587736255e-05
1354.9497050882983,1354.9497050882983,1.0000109175725882,4.622628035800699e-05
1354.9566495302947,1354.9566495302947,0.999988269041469,4.6228233407268866e-05
1354.9635939722912,1354.9635939722912,0.9999475162583249,4.6226974139045444e-05
1354.9705384141948,1354.9705384141948,0.9999987920120772,4.622674585365655e-05
1354.9774828559116,1354.9774828559116,1.000107218233652,4.6228058809673906e-05
1354.984427297629,1354.984427297629,0.999976800719334,4.622861071442489e-05
1354.9913717391598,1354.9913717391598,1.0000664408316413,4.6227004834846366e-05
1354.9983161805042,1354.9983161805042,0.9998101842595768,4.6224922531933715e-05
1355.0052606218487,1355.0052606218487,1.000053945106187,4.623053677293056e-05
1355.0122050631003,1355.0122050631003,1.0000096387002022,4.622633155548001e-05
1355.0191495041654,1355.0191495041654,0.9999000496314409,4.6227061556137455e-05
1355.0260939451377,1355.0260939451377,1.0001275398000815,4.623168763077168e-05
1355.0330383861096,1355.0330383861096,1.000021525457979,4.622955721508747e-05
1355.0399828268955,1355.0399828268955,1.00007504210114,4.6231975897209247e-05
1355.046927267495,1355.046927267495,0.9999912340067695,4.622881575651299e-05
1355.0538717081877,1355.0538717081877,0.9999359953808913,4.622793222227157e-05
1355.0608161487871,1355.0608161487871,0.9999496175464309,4.623053229028478e-05
1355.0677605892004,1355.0677605892004,0.9999972137631439,4.6230139311892625e-05
1355.0747050292412,1355.0747050292412,0.9999932071473069,4.6232427825763654e-05
1355.0816494695612,1355.0816494695612,0.9999757953213091,4.622991324396689e-05
1355.0885939095085,1355.0885939095085,1.000021609929775,4.62293262376029e-05
1355.0955383495493,1355.0955383495493,0.9999408031239693,4.622859988510023e-05
1355.1024827894973,1355.1024827894973,1.0000360203456709,4.623020935174827e-05
1355.1094272291652,1355.1094272291652,1.0000972499981653,4.6231979556188386e-05
1355.1163716688336,1355.1163716688336,0.9999777325626977,4.6229112740135445e-05
1355.1233161085015,1355.1233161085015,1.0001072969484652,4.623264018114227e-05
1355.1302605478904,1355.1302605478904,0.9999241782666951,4.623015361022718e-05
1355.1372049873728,1355.1372049873728,1.0000434492763068,4.6231959021084495e-05
1355.1441494266678,1355.1441494266678,0.9999726486483794,4.6231599529444046e-05
1355.1510938657777,1355.1510938657777,0.9999632230810352,4.623148324209496e-05
1355.158038304887,1355.158038304887,0.999919484854354,4.623219917939703e-05
1355.1649827438098,1355.1649827438098,1.0000857072988651,4.6235359593249065e-05
1355.17192718264,1355.17192718264,1.0000024397878844,4.6233468030695826e-05
1355.1788716215628,1355.1788716215628,0.9999902166169086,4.623404631689158e-05
1355.185816060207,1355.185816060207,0.9998951181294812,4.6232447447899255e-05
1355.192760498851,1355.192760498851,1.0000551498452146,4.623379508335045e-05
1355.199704937308,1355.199704937308,0.9999254029230868,4.623324348166961e-05
1355.2066493756727,1355.2066493756727,1.0000497555019603,4.6234747479019014e-05
1355.2135938141298,1355.2135938141298,1.0000657708685492,4.6232982560656366e-05
1355.220538252215,1355.220538252215,1.0000475072737305,4.6230957819813504e-05
1355.2274826903001,1355.2274826903001,0.9999213595140743,4.623123538671138e-05
1355.234427128385,1355.234427128385,1.0000577461482216,4.6235445511065654e-05
1355.2413715664702,1355.2413715664702,0.9999940556674758,4.6235538584295035e-05
1355.2483160041822,1355.2483160041822,1.0000127739473423,4.623416687597787e-05
1355.2552604419877,1355.2552604419877,1.0000520643915922,4.623580145277647e-05
1355.2622048797004,1355.2622048797004,0.9999249586739436,4.623426045442665e-05
1355.2691493172265,1355.2691493172265,0.9999254734433188,4.6232514874933304e-05
1355.2760937547525,1355.2760937547525,0.9999318245218177,4.623262998154299e-05
1355.2830381919994,1355.2830381919994,1.0000635464427767,4.623532002128483e-05
1355.2899826293392,1355.2899826293392,1.0000230594882316,4.623484582044757e-05
1355.296927066586,1355.296927066586,0.9999319352758711,4.6231086037991766e-05
1355.3038715037396,1355.3038715037396,1.0000519541799566,4.623337141356825e-05
1355.310815940707,1355.310815940707,1.000071986473417,4.623215541261384e-05
1355.3177603775814,1355.3177603775814,0.999977957926198,4.623170984440903e-05
1355.3247048145488,1355.3247048145488,1.0000420385562423,4.623197870178148e-05
1355.3316492512365,1355.3316492512365,1.0000389897341948,4.6234429656736965e-05
1355.3394270203084,1355.3394270203084,0.9999957064267908,4.623379534911122e-05
1355.3469270118571,1355.3469270118571,1.0000233582842668,4.623351641519105e-05
1355.3538714482656,1355.3538714482656,1.0000046526085882,4.623432656891286e-05
1355.3608158846741,1355.3608158846741,0.9999382144109219,4.6233957299488096e-05
1355.3677603209896,1355.3677603209896,0.9999277231879308,4.6234088783867145e-05
1355.3747047572117,1355.3747047572117,0.9999945939098364,4.6231675706398635e-05
1355.3816491933412,1355.3816491933412,0.9999973569474527,4.623315771539069e-05
1355.388593629191,1355.388593629191,1.0000121277759717,4.6231382503567216e-05
1355.3955380654133,1355.3955380654133,1.0000499939983785,4.623385991996423e-05
1355.403593610891,1355.403593610891,1.000055302579704,4.62322647902781e-05
1355.4108158240774,1355.4108158240774,0.9999145113192714,4.623110681779423e-05
1355.4177602598345,1355.4177602598345,0.9998828791730556,4.622808585279592e-05
1355.4247046952187,1355.4247046952187,0.9998606014979694,4.622935174175521e-05
1355.4316491307889,1355.4316491307889,1.000200855636343,4.622882895930043e-05
1355.4385935661733,1355.4385935661733,1.00009559056586,4.623138364928698e-05
1355.445538001464,1355.445538001464,1.0000397405894366,4.6228017033534114e-05
1355.4524824366617,1355.4524824366617,1.0000500494083575,4.623209191414216e-05
1355.45942687186,1355.45942687186,1.0000299223914149,4.623176044353502e-05
1355.466371307058,1355.466371307058,0.9999593747747035,4.6229386620570466e-05
1355.4733157419764,1355.4733157419764,0.9998562638915711,4.6226819910114494e-05
1355.4802601768017,1355.4802601768017,1.0000254606888213,4.6231084477589195e-05
1355.4872046117198,1355.4872046117198,0.9999157484497877,4.62302145282572e-05
1355.4941490464523,1355.4941490464523,1.000025724246584,4.623294082609034e-05
1355.5010934810912,1355.5010934810912,0.9999650304117196,4.623143416804652e-05
1355.50803791573,1355.50803791573,1.0000400385195356,4.623115065969883e-05
1355.51498235009,1355.51498235009,0.9999972613622641,4.6230949917160674e-05
1355.521926784543,1355.521926784543,1.0000456226585606,4.623221679625852e-05
1355.528871218809,1355.528871218809,1.0000916019899342,4.623102567058718e-05
1355.5358156530756,1355.5358156530756,0.9999696497930357,4.622932098123526e-05
1355.5427600872495,1355.5427600872495,1.0000771911168242,4.622746759241482e-05
1355.5497045213292,1355.5497045213292,0.9999682864770497,4.622943351619322e-05
1355.5566489552234,1355.5566489552234,0.9999882929314154,4.6230660994923844e-05
1355.5635933892106,1355.5635933892106,1.000083792081505,4.6231888509110584e-05
1355.5705378230116,1355.5705378230116,1.0000284492258176,4.6231994878137235e-05
1355.5774822566261,1355.5774822566261,0.9999160517948784,4.6229796516959154e-05
1355.58442669052,1355.58442669052,1.0000880488713202,4.623286466986587e-05
1355.5913711239484,1355.5913711239484,0.9999701767850073,4.6230527106492036e-05
1355.598315557377,1355.598315557377,0.9999485794755156,4.623039207832096e-05
1355.6052599908048,1355.6052599908048,0.9999447420772976,4.62291192474358e-05
1355.6122044242334,1355.6122044242334,1.000014265437442,4.6229854776757954e-05
1355.619148857662,1355.619148857662,0.9999727125552427,4.622859703782657e-05
1355.6260932906243,1355.6260932906243,0.9999778547153746,4.622866471614474e-05
1355.6330377237734,1355.6330377237734,1.0000614964012393,4.6228132573660795e-05
1355.6399821568295,1355.6399821568295,1.000074898497733,4.622954592845268e-05
1355.6469265897917,1355.6469265897917,1.0000579901170294,4.6227716251137525e-05
1355.6538710226616,1355.6538710226616,0.9999404196322594,4.622674076030614e-05
1355.6608154554383,1355.6608154554383,0.9999198331833213,4.622409365166321e-05
1355.667759888121,1355.667759888121,1.000090245135603,4.622381547138795e-05
1355.6747043207115,1355.6747043207115,0.999936023616087,4.622670013544352e-05
1355.6816487533015,1355.6816487533015,0.9999644191488221,4.6226063191712274e-05
1355.6885931857985,1355.6885931857985,1.000013378636176,4.6226279706111734e-05
1355.6955376181095,1355.6955376181095,1.0000393702325667,4.6226964925324566e-05
1355.7024820505133,1355.7024820505133,1.000008356739738,4.622708610129411e-05
1355.7094264827308,1355.7094264827308,0.9999982544690302,4.6225782222538714e-05
1355.7163709148554,1355.7163709148554,1.0000299595693376,4.6222521553529015e-05
1355.7233153468867,1355.7233153468867,0.9999911651713257,4.6222727368840776e-05
1355.7302597789183,1355.7302597789183,0.9999720133434185,4.622408988582141e-05
1355.7372042108564,1355.7372042108564,1.000042833178886,4.6224294996569595e-05
1355.7441486427017,1355.7441486427017,0.9999121228427441,4.622242776092905e-05
1355.7524819607665,1355.7524819607665,1.0000299935452215,4.622421472578242e-05
1355.7594263925187,1355.7594263925187,1.0001088903310467,4.62222285310214e-05
1355.7663708240843,1355.7663708240843,1.0000492617501506,4.622302706503914e-05
1355.773315255557,1355.773315255557,1.0000045175766457,4.6220652537592606e-05
1355.780259687122,1355.780259687122,0.999962585930574,4.622046410613959e-05
1355.7872041184091,1355.7872041184091,0.9999195568010105,4.621778999508697e-05
1355.7941485497884,1355.7941485497884,0.9999935695162192,4.621600604780404e-05
1355.8010929808884,1355.8010929808884,1.000101891445083,4.6221415133986035e-05
1355.8080374119884,1355.8080374119884,0.9999249539295285,4.621627850275415e-05
1355.8149818430884,1355.8149818430884,1.0000196132816304,4.621709209084618e-05
1355.8219262741889,1355.8219262741889,1.0000168275282633,4.6212980128231015e-05
1355.8288707050094,1355.8288707050094,0.9999922795022111,4.621640721390093e-05
1355.835815135923,1355.835815135923,1.0000922868679936,4.621641897045723e-05
1355.8427595665576,1355.8427595665576,1.000098858973447,4.621819805105687e-05
1355.849703997285,1355.849703997285,0.999892548940608,4.621283734750806e-05
1355.8566484279195,1355.8566484279195,0.9999448943576652,4.6213844225689986e-05
1355.8635928585536,1355.8635928585536,0.9999321902487666,4.6214892287440267e-05
1355.8705372889085,1355.8705372889085,0.9999620324164755,4.621394094497046e-05
1355.8774817192639,1355.8774817192639,1.0001592922132159,4.6219545164902695e-05
1355.884426149619,1355.884426149619,0.9999023624500836,4.621455844875629e-05
