time,time,flux,flux_err
1325.2995780068593,1325.2995780068593,1.0007326814377153,0.00043176334929515367
1325.3079111904246,1325.3079111904246,0.9995976739084321,0.00043229254752084846
1325.316244374282,1325.316244374282,1.0001452858856643,0.00043291036818053326
1325.3245775584248,1325.3245775584248,0.9998276920521197,0.00043341976666084174
1325.33221631079,1325.33221631079,0.9999600152408895,0.0003961138571458119
1325.339160631348,1325.339160631348,0.9993714140116616,0.00039640584482413384
1325.346104952087,1325.346104952087,0.9992667694581867,0.0003966886570730341
1325.353049273029,1325.353049273029,1.0002033286930159,0.0003971592751155249
1325.3599935941572,1325.3599935941572,1.0001977895081333,0.0003974414976584234
1325.3669379154667,1325.3669379154667,0.9995916416608971,0.0003976039339489769
1325.373882236985,1325.373882236985,0.9995683225364933,0.00039775299213769976
1325.3808265586727,1325.3808265586727,1.0003423860082346,0.00039812023346228343
1325.3877708805576,1325.3877708805576,1.0000310106817847,0.000398260915658711
1325.3947152026171,1325.3947152026171,0.9998534727463986,0.0003983046127626948
1325.4016595248636,1325.4016595248636,1.0006654984812458,0.0003985274899467762
1325.4086038473015,1325.4086038473015,1.000005289738377,0.00039844597425679436
1325.4155481699029,1325.4155481699029,0.9998339545824095,0.00039859929252139347
1325.4224924926962,1325.4224924926962,0.9999480469892452,0.0003986028769548229
1325.4294368156584,1325.4294368156584,1.0000478616988568,0.00039870911933926055
1325.4363811388007,1325.4363811388007,0.9996881968812991,0.00039863846707843863
1325.4433254621176,1325.4433254621176,0.9999250428467334,0.0003987937954378817
1325.4502697856094,1325.4502697856094,1.0000840095534467,0.00039886939468598994
1325.4572141092758,1325.4572141092758,0.9998617859768599,0.00039893457774536943
1325.4641584330993,1325.4641584330993,1.0005685152114518,0.0003991567814888606
1325.4711027571034,1325.4711027571034,1.0004859314685222,0.0003992221408963039
1325.4780470812643,1325.4780470812643,1.0001709383338562,0.0003993196501455771
1325.4849914056058,1325.4849914056058,0.9996587284141008,0.0003994758929539671
1325.4919357300992,1325.4919357300992,1.0000184770484117,0.0003996194907241042
1325.4988800547608,1325.4988800547608,0.9994865707166962,0.00039971186844112654
1325.5058243795913,1325.5058243795913,0.9997947450495749,0.000399988098565525
1325.5127687045729,1325.5127687045729,1.0003297190512375,0.00040022498007629754
1325.5197130297122,1325.5197130297122,1.0001387084123419,0.0004003920757320157
1325.52665735502,1325.52665735502,1.000188048771642,0.00040057244834204337
1325.5336016804733,1325.5336016804733,1.0001847241646566,0.00040076284062237855
1325.5405460060779,1325.5405460060779,0.9994525424565375,0.0004008521580950022
1325.5474903318516,1325.5474903318516,0.9997646312646964,0.000401022664793909
1325.5544346577703,1325.5544346577703,1.000151230458944,0.0004012048830002158
1325.561378983835,1325.561378983835,0.9997600064110556,0.0004013900476621252
1325.568323310051,1325.568323310051,1.0001457721379705,0.0004016221090299115
1325.575267636418,1325.575267636418,1.0003896166693336,0.0004018352574113713
1325.582211962937,1325.582211962937,1.0007405865698458,0.00040202553738344387
1325.5891562895886,1325.5891562895886,0.9997321327819144,0.0004020019367650361
1325.5961006163986,1325.5961006163986,0.9991156463235378,0.00040199130008494065
1325.603044943342,1325.603044943342,1.0003363921328254,0.0004022615563747067
1325.6099892704253,1325.6099892704253,0.9997261117433668,0.000402296009243393
1325.616933597654,1325.616933597654,0.9997835571982601,0.0004023459474378075
1325.6238779250223,1325.6238779250223,1.0005908089175704,0.0004024997410972763
1325.6308222525245,1325.6308222525245,0.9997340677919141,0.0004023985451574159
1325.6377665801724,1325.6377665801724,1.000091267282142,0.0004025378304930184
1325.644710907948,1325.644710907948,0.9999789692299339,0.0004025766801052776
1325.651655235852,1325.651655235852,1.00016608315892,0.00040258434184246026
1325.6585995639014,1325.6585995639014,1.0000525104766884,0.00040257703030685207
1325.6655438920675,1325.6655438920675,1.0001282271388143,0.00040264446781490505
1325.6724882203725,1325.6724882203725,0.9997885595272621,0.00040252488202798973
1325.6794325488065,1325.6794325488065,1.0001491130572915,0.00040261034485498156
1325.686376877374,1325.686376877374,0.9998215520834,0.0004026478517024703
1325.693321206069,1325.693321206069,1.0000029553505736,0.0004027259863680397
1325.7002655348701,1325.7002655348701,0.9998572179724722,0.0004027116513419649
1325.7072098638096,1325.7072098638096,0.99987068746243,0.0004027376195070748
1325.7141541928777,1325.7141541928777,0.999858531471889,0.00040287361304459636
1325.721098522062,1325.721098522062,1.0002435441100634,0.00040297640394000155
1325.728042851363,1325.728042851363,0.9999037784976041,0.00040304951984980117
1325.734987180792,1325.734987180792,0.999745262829356,0.00040307898069144387
1325.7419315103198,1325.7419315103198,1.0003789446562696,0.0004032716684003089
1325.7488758399872,1325.7488758399872,1.0003483372984172,0.00040337047188712314
1325.7558201697598,1325.7558201697598,1.000478762044297,0.00040346283477707336
1325.7627644996485,1325.7627644996485,0.9999287547839879,0.00040351412580129375
1325.7697088296595,1325.7697088296595,0.9994559693633611,0.00040362948745454414
1325.776653159787,1325.776653159787,0.9996522265047533,0.0004037693900193434
1325.7835974900133,1325.7835974900133,0.9994808007040055,0.0004037980714358334
1325.7905418203504,1325.7905418203504,1.0003374283492155,0.00040404499882412193
1325.7974861507978,1325.7974861507978,0.9999472930335827,0.0004040518332783149
1325.8044304813618,1325.8044304813618,1.0006986006780014,0.00040428849742514425
1325.8113748120304,1325.8113748120304,1.0001843418753047,0.0004042868487175126
1325.8183191427984,1325.8183191427984,0.9998887498652212,0.00040434784072521346
1325.8252634736823,1325.8252634736823,0.9999784379370936,0.0004043860704593703
1325.8322078046654,1325.8322078046654,0.9993179779379634,0.0004043846215343881
1325.8391521357594,1325.8391521357594,1.0006684404308035,0.0004046435871917336
1325.8460964669516,1325.8460964669516,1.0002611077890848,0.00040461468706150917
1325.853040798243,1325.853040798243,0.9995130011146205,0.0004044641662468033
1325.8599851296399,1325.8599851296399,0.9992638640464777,0.00040433625239869075
1325.8669294611293,1325.8669294611293,1.0001979112936614,0.0004044974562633969
1325.873873792712,1325.873873792712,1.0004482573735627,0.00040441593982731264
1325.880818124405,1325.880818124405,0.9998778382692908,0.000404195928745873
1325.8877624561972,1325.8877624561972,0.9998410600684059,0.0004041141712688252
1325.8947067880767,1325.8947067880767,1.0003323801473014,0.0004041017547095932
1325.901651120055,1325.901651120055,1.0002201309153187,0.000403983096234215
1325.9085954521265,1325.9085954521265,0.9999713990420934,0.00040386961960102127
1325.9155397842972,1325.9155397842972,0.9999535155429712,0.00040375914121849486
1325.9224841165546,1325.9224841165546,1.000201012759511,0.000403745655041067
1325.929428448906,1325.929428448906,0.9996442314982202,0.0004036868196518171
1325.9363727813384,1325.9363727813384,0.9998895582944204,0.00040365714354293565
1325.9433171138755,1325.9433171138755,0.9990400847338886,0.0004034546736038971
1325.9502614465005,1325.9502614465005,1.0009632911143136,0.00040371759099274915
1325.9572057792063,1325.9572057792063,1.0002659497817306,0.00040369987626023086
1325.9652612052516,1325.9652612052516,0.9995392581414759,0.00040349919382338343
1325.9724833114553,1325.9724833114553,1.0003633257717675,0.00040360635965880126
1325.9794276444463,1325.9794276444463,1.0001089654041642,0.0004036128146435187
1325.9863719775074,1325.9863719775074,1.0002223284993161,0.00040373662392493805
1325.9933163106614,1325.9933163106614,0.9999032761157054,0.0004036665901862564
1326.0002606438916,1326.0002606438916,0.9996930884863664,0.000403709980772388
1326.0072049772202,1326.0072049772202,1.0003229323166507,0.0004039304152487
1326.0141493106134,1326.0141493106134,0.9997526642024874,0.00040397940505819787
1326.0210936440878,1326.0210936440878,0.9996564087938686,0.00040399290905628786
1326.0280379776498,1326.0280379776498,1.000197705640812,0.00040426008151664113
1326.034982311287,1326.034982311287,1.0002434607289845,0.00040427673004495853
1326.0419266449994,1326.0419266449994,1.000143187672824,0.0004042573247851872
1326.0488709787944,1326.0488709787944,0.9993675717383443,0.00040409892545961647
1326.0558153126642,1326.0558153126642,0.999932194679926,0.0004041749642211396
1326.0627596466104,1326.0627596466104,1.000706251970556,0.00040435189784683286
1326.0697039806375,1326.0697039806375,1.0001356783159747,0.0004043189154832083
1326.0766483147345,1326.0766483147345,1.0001330927336647,0.00040429577830637306
1326.083592648896,1326.083592648896,0.9993456547188246,0.0004040993136792593
1326.090536983139,1326.090536983139,0.9997215807891141,0.0004041898300889394
1326.097481317463,1326.097481317463,0.9998350394622773,0.00040424759819464914
1326.1044256518514,1326.1044256518514,0.999793776362908,0.00040417195285458987
1326.111369986303,1326.111369986303,1.000272077638716,0.00040422083550750406
1326.1183143208314,1326.1183143208314,1.0005176641237712,0.0004043423123422988
1326.1252586554288,1326.1252586554288,1.0004908072695657,0.00040427191734077473
1326.1322029901028,1326.1322029901028,0.9998605444922879,0.0004042144400675109
1326.13914732484,1326.13914732484,0.9998964651400385,0.00040412406048779306
1326.1460916596418,1326.1460916596418,0.9995927455190852,0.00040419131895750064
1326.153035994513,1326.153035994513,1.0001567277528935,0.0004042086266524745
1326.1599803294541,1326.1599803294541,1.0001565078368735,0.0004042617250430272
1326.1669246644592,1326.1669246644592,0.9993383430180677,0.00040412763073831856
1326.1738689995225,1326.1738689995225,1.0002662191488279,0.0004042235246952991
1326.180813334662,1326.180813334662,1.0002514182450057,0.00040429281096707284
1326.1877576698594,1326.1877576698594,1.000040801989682,0.00040420306539964404
1326.1947020051207,1326.1947020051207,1.0000620388579518,0.0004041987529862525
1326.201646340446,1326.201646340446,0.9998362096411,0.00040417674700827643
1326.2085906758236,1326.2085906758236,1.0000642791423435,0.00040419285010922606
1326.215535011277,1326.215535011277,0.9998654331811281,0.0004041727252923584
1326.2224793467828,1326.2224793467828,1.0001638063822496,0.0004042455159973084
1326.2294236823586,1326.2294236823586,0.9996653608017609,0.0004041611895901933
1326.2363680179865,1326.2363680179865,1.0003292967710373,0.00040414281613911703
1326.2433123536725,1326.2433123536725,1.000107456468763,0.0004041683370464291
1326.2502566894232,1326.2502566894232,0.9996496789733513,0.0004040888460050361
1326.2572010252375,1326.2572010252375,1.0000827721354508,0.00040406918863753166
1326.2641453610927,1326.2641453610927,1.0001378539305095,0.00040406324973799745
1326.2710896970177,1326.2710896970177,0.9995444635161765,0.0004039562002310413
1326.2780340329887,1326.2780340329887,0.9996020257366759,0.00040388051708963756
1326.2849783690244,1326.2849783690244,1.0008000123224448,0.0004041333957040871
1326.2919227051123,1326.2919227051123,1.0003327834441698,0.00040404481001892904
1326.2988670412528,1326.2988670412528,0.9996045876239983,0.00040392967321547883
1326.305811377451,1326.305811377451,1.0003791300593066,0.00040396056047652926
1326.3127557137022,1326.3127557137022,0.9998616411975023,0.00040391736417563393
1326.3197000500109,1326.3197000500109,0.9999637043454872,0.0004039471253889775
1326.3266443863665,1326.3266443863665,1.0000880267136054,0.000403940268288586
1326.3335887227747,1326.3335887227747,0.9995859686441408,0.00040392304871011525
1326.340533059241,1326.340533059241,0.9996603898971859,0.00040395560469820796
1326.3485884896054,1326.3485884896054,0.9999359696879463,0.0004041066399010083
1326.3571994669587,1326.3571994669587,1.0007446672223597,0.00040427521155334266
1326.3641438036,1326.3641438036,1.0000811141073913,0.0004042014796161745
1326.3710881402872,1326.3710881402872,0.9999760477479367,0.00040415303533298706
1326.3780324770214,1326.3780324770214,0.999974480637426,0.00040423537206997034
1326.384976813802,1326.384976813802,0.9999270468454767,0.0004042201313387686
1326.3919211506404,1326.3919211506404,0.9995450395086023,0.0004042609137929862
1326.3988654875145,1326.3988654875145,0.9997078828521498,0.0004043296739405868
1326.4058098244461,1326.4058098244461,1.0005609204481778,0.00040439236530851776
1326.412754161431,1326.412754161431,1.000321682948383,0.00040449524303672106
1326.419698498444,1326.419698498444,1.0002017887786592,0.00040454292894395407
1326.42664283551,1326.42664283551,0.9994558256654849,0.0004043829499635579
1326.4335871726278,1326.4335871726278,0.9999992457165365,0.00040456307376529897
1326.440531509781,1326.440531509781,1.0000117881687463,0.00040455681247533764
1326.4474758469867,1326.4474758469867,1.000136635863885,0.00040465134439618514
1326.4544201842327,1326.4544201842327,0.9996094822935792,0.00040457489214808684
1326.4613645215316,1326.4613645215316,1.0001012016975392,0.0004047273866683521
1326.4683088588592,1326.4683088588592,1.000064671538591,0.00040471724648682967
1326.4752531962333,1326.4752531962333,1.0004702584749918,0.00040486147833078396
1326.4821975336604,1326.4821975336604,0.9998055709952574,0.0004047676990165866
1326.4891418711215,1326.4891418711215,1.0002547805888964,0.0004048531139859208
1326.4960862086298,1326.4960862086298,0.9992549287224236,0.0004046779960847329
1326.5030305461785,1326.5030305461785,0.9996550994572075,0.000404834295611096
1326.5099748837627,1326.5099748837627,1.000306505356365,0.00040494879751510693
1326.5169192213987,1326.5169192213987,1.0006954730047533,0.00040501659400577145
1326.523863559064,1326.523863559064,0.999994037192326,0.0004050459387737567
1326.5308078967878,1326.5308078967878,1.0002752490409152,0.00040515947978112855
1326.5377522345284,1326.5377522345284,1.0001229140294705,0.00040525290357863313
1326.5446965723224,1326.5446965723224,0.9998959301358337,0.0004052459703572304
1326.5516409101444,1326.5516409101444,0.9992869558690556,0.0004052996075133425
1326.5585852480194,1326.5585852480194,0.9997599095263453,0.0004053511922112158
1326.5655295859174,1326.5655295859174,0.9998228866172452,0.00040534855247437987
1326.5724739238622,1326.5724739238622,1.0002280140805389,0.0004054029456747229
1326.579418261842,1326.579418261842,0.9996959936127603,0.00040536826372940943
1326.5863625998622,1326.5863625998622,1.0005216405022899,0.00040553944474264626
1326.5933069379178,1326.5933069379178,1.0006116129841611,0.00040554695464981705
1326.6002512760022,1326.6002512760022,1.0000068354089175,0.00040546300108495624
1326.6071956141272,1326.6071956141272,0.9998549485328972,0.0004054826439332328
1326.6141399522876,1326.6141399522876,0.999449356739363,0.0004053856849938306
1326.6210842904936,1326.6210842904936,0.9996643596826882,0.0004054084111927207
1326.6280286287242,1326.6280286287242,1.0005667971709236,0.0004055073384405572
1326.6349729669946,1326.6349729669946,0.9999695578114356,0.00040545183404599414
1326.6419173052946,1326.6419173052946,1.0003213531594093,0.0004055276668267239
1326.648861643629,1326.648861643629,1.0000084818572714,0.0004054142774529429
1326.6558059820045,1326.6558059820045,1.0000085700843722,0.0004053398628444772
1326.6627503204036,1326.6627503204036,0.9994410659873632,0.00040518908550501726
1326.6696946588543,1326.6696946588543,1.000080911859883,0.00040520241384953213
1326.6766389973175,1326.6766389973175,1.0001928944691727,0.0004051371476315203
1326.683583335815,1326.683583335815,0.9995499896884894,0.0004049476968898399
1326.6919165420634,1326.6919165420634,1.0005683071575553,0.00040504048978165323
1326.698860880631,1326.698860880631,0.9993285218484104,0.00040472599442104164
1326.705805219239,1326.705805219239,1.000310350758463,0.00040474415066378495
1326.7135828785097,1326.7135828785097,1.0000036447074379,0.0004046650018113149
1326.7210827642766,1326.7210827642766,1.0001123779511827,0.00040456103769147543
1326.728027102978,1326.728027102978,1.0000832830318083,0.0004044641997692906
1326.7349714417142,1326.7349714417142,1.00006561451174,0.000404408481638456
1326.7419157804738,1326.7419157804738,1.00005119866474,0.0004043450745607405
1326.7488601192683,1326.7488601192683,1.000224746394576,0.00040431071143649377
1326.755804458092,1326.755804458092,1.0002844116810412,0.0004042297333328479
1326.7627487969446,1326.7627487969446,0.9995090655794895,0.00040410408169459165
1326.7696931358323,1326.7696931358323,0.9996998643878371,0.0004040663327297871
1326.7766374747316,1326.7766374747316,0.9997644776893153,0.00040402598605534384
1326.7835818136718,1326.7835818136718,1.0005922607439328,0.0004041321126958745
1326.7905261526414,1326.7905261526414,0.9997032430026305,0.0004040047691145591
1326.7974704916276,1326.7974704916276,0.9994852585366983,0.0004040212171715908
1326.8044148306496,1326.8044148306496,1.000820666953252,0.0004042451230912714
1326.8113591696938,1326.8113591696938,1.0002489147612246,0.00040407776868760963
1326.8183035087795,1326.8183035087795,1.000045495624237,0.0004040983901846781
1326.8252478478769,1326.8252478478769,0.9998557359987696,0.00040400762793432916
1326.8321921870033,1326.8321921870033,0.9997997586027816,0.00040394033195070253
1326.8391365261646,1326.8391365261646,0.9994640996459359,0.0004038670368016506
1326.8460808653374,1326.8460808653374,1.0000941616303707,0.0004039402682917008
1326.8530252045452,1326.8530252045452,1.000424827457158,0.00040393841287677797
1326.8599695437765,1326.8599695437765,0.9999797648724791,0.00040383744936202853
1326.866913883037,1326.866913883037,1.0001984072757337,0.0004037771765561933
1326.8738582223202,1326.8738582223202,1.0002140349706825,0.0004036481071520084
1326.880802561627,1326.880802561627,0.9991593057853164,0.0004033477739138392
1326.887746900963,1326.887746900963,1.0001555879274449,0.00040338166858573595
1326.89469124031,1326.89469124031,0.9995703142468042,0.00040313568727522316
1326.901635579693,1326.901635579693,1.0004224635601384,0.00040306615810548703
1326.9085799190927,1326.9085799190927,0.9997266361945598,0.00040277025232564307
1326.9155242585216,1326.9155242585216,1.0001120730787096,0.0004026872094924752
1326.9224685979684,1326.9224685979684,1.0009843860530823,0.0004026561098018942
1326.9294129374439,1326.9294129374439,0.9997099350329443,0.0004022727810520339
1326.9363572769369,1326.9363572769369,0.9996234854245977,0.00040206370970532877
1326.9433016164528,1326.9433016164528,1.0001579828001186,0.00040201454940283634
1326.9502459559988,1326.9502459559988,0.99996388507812,0.000401765250796983
1326.9571902955613,1326.9571902955613,0.999709945110968,0.000401679988420301
1326.964134635148,1326.964134635148,1.0004124278403346,0.00040160709283963735
1326.9710789747514,1326.9710789747514,0.9992727787704455,0.00040131392214960124
1326.978023314384,1326.978023314384,1.000301018686744,0.000401370084751893
1326.9849676540346,1326.9849676540346,1.0002032777997736,0.00040127649632226215
1326.9919119937022,1326.9919119937022,0.9999219482041095,0.00040121163793651135
1326.9988563333986,1326.9988563333986,1.0006087979594835,0.00040117808493079214
1327.0058006731074,1327.0058006731074,0.9995689928457399,0.00040099350048565096
1327.0127450128389,1327.0127450128389,0.9998227345915065,0.0004010378495423691
1327.019689352594,1327.019689352594,1.0003793844234756,0.0004010780891349026
1327.0266336923664,1327.0266336923664,0.9993532467624007,0.00040093497507083417
1327.0335780321623,1327.0335780321623,1.0003621871817097,0.0004011250281839184
1327.040522371981,1327.040522371981,0.9996739074097947,0.0004009747159305044
1327.047466711806,1327.047466711806,1.0005694137739916,0.0004011131786447098
1327.0544110516598,1327.0544110516598,0.9995597713432826,0.0004009841749163352
1327.0624664859126,1327.0624664859126,1.0004294250052372,0.00040112299447945014
