time,time,flux,flux_err
1325.2999166874997,1325.2999166874997,0.9999130279249436,0.00011091570145718699
1325.3082500904743,1325.3082500904743,1.0001165671517693,0.00011097367503491728
1325.3165834936337,1325.3165834936337,0.9999437190967311,0.00011097179003579513
1325.3242224466765,1325.3242224466765,0.9999508469519489,0.00010133259518495506
1325.3311669495931,1325.3311669495931,1.0000095367661987,0.000101344119969537
1325.3381114526383,1325.3381114526383,1.0001821336707186,0.00010137522741462776
1325.3450559558112,1325.3450559558112,0.9999871134393116,0.00010139187244702494
1325.3520004591005,1325.3520004591005,1.0001228823048667,0.00010141668743659413
1325.3589449625065,1325.3589449625065,0.9998250840816333,0.00010143572285255343
1325.3658894660405,1325.3658894660405,0.9999933841322253,0.00010146908706589367
1325.3728339696904,1325.3728339696904,0.9999855400636022,0.00010149235545947519
1325.3797784734804,1325.3797784734804,0.9999211336814391,0.00010151724382645582
1325.3867229773755,1325.3867229773755,1.0000667072278364,0.00010154212586471001
1325.393667481363,1325.393667481363,0.9999720229295652,0.00010156813087581202
1325.4006119855023,1325.4006119855023,1.0000650738612402,0.00010159626042678584
1325.407556489735,1325.407556489735,1.0000122773886075,0.00010161199042651106
1325.414500994072,1325.414500994072,0.9998545614267857,0.00010162163212270098
1325.4214454985372,1325.4214454985372,1.0001544092922146,0.00010166323895518877
1325.4283900031069,1325.4283900031069,1.0000096671376117,0.00010167376607770714
1325.4353345077816,1325.4353345077816,0.99996579028141,0.0001016980482885888
1325.442279012573,1325.442279012573,0.9999577924435133,0.00010171856499528568
1325.449223517457,1325.449223517457,1.000026568673644,0.00010174359324372929
1325.4561680224579,1325.4561680224579,1.00001668766378,0.00010176807189660986
1325.4631125275632,1325.4631125275632,1.0000378820925069,0.00010177941641123487
1325.4700570327618,1325.4700570327618,0.9999613072401189,0.00010180361880461829
1325.4770015380886,1325.4770015380886,1.0001271614124874,0.000101826245677403
1325.4839460434848,1325.4839460434848,0.9999424010279562,0.00010184441506759735
1325.4908905489865,1325.4908905489865,0.9999051873342584,0.00010186894752143311
1325.4978350546157,1325.4978350546157,0.9999801422534794,0.00010189927416871264
1325.504779560303,1325.504779560303,0.9999203612174086,0.00010192277607992713
1325.511724066096,1325.511724066096,0.9999659438661137,0.00010194336910626652
1325.5186685719925,1325.5186685719925,1.000092082565881,0.00010197447547493237
1325.5256130779828,1325.5256130779828,1.0000861331527073,0.0001019999427754006
1325.5325575840543,1325.5325575840543,0.9999806301266251,0.00010201537503306563
1325.539502090231,1325.539502090231,1.000123859005336,0.00010204596620303523
1325.5464465964892,1325.5464465964892,0.9998651610934935,0.00010204973635962269
1325.5533911028283,1325.5533911028283,0.999976028646002,0.00010208357519220243
1325.560335609273,1325.560335609273,0.9998847446783083,0.00010209926628069557
1325.5672801157987,1325.5672801157987,0.9999629999549224,0.00010212107660388099
1325.5742246224174,1325.5742246224174,1.000207496074578,0.00010215137724388262
1325.5811691291178,1325.5811691291178,1.0001472995125689,0.00010216047488924719
1325.5881136358762,1325.5881136358762,1.0000035177568676,0.00010216887572702719
1325.5950581427746,1325.5950581427746,0.9998129663731087,0.0001021749445843955
1325.6020026497076,1325.6020026497076,0.999987066378276,0.00010218307879195157
1325.6089471567338,1325.6089471567338,0.9999076281468803,0.00010218511530615465
1325.615891663842,1325.615891663842,0.9999953629650354,0.00010219377457661818
1325.6228361710314,1325.6228361710314,0.9999458933173887,0.00010219837506827254
1325.6297806783018,1325.6297806783018,1.000093741781929,0.00010220127247873975
1325.6367251856543,1325.6367251856543,1.0000489805833077,0.00010219491403923775
1325.6436696930646,1325.6436696930646,1.0000203727949295,0.00010218762873045197
1325.650614200557,1325.650614200557,0.9999513779163347,0.00010217919607481594
1325.6575587081184,1325.6575587081184,1.000079423819995,0.00010218463289516859
1325.664503215762,1325.664503215762,0.9999467996020487,0.00010217044655198436
1325.671447723475,1325.671447723475,1.0000825839779093,0.00010216757100603901
1325.6783922312582,1325.6783922312582,0.9999822859616172,0.00010215509818328309
1325.6853367391227,1325.6853367391227,1.0000144002278348,0.00010216473265786731
1325.6922812470336,1325.6922812470336,0.9999497189627748,0.0001021585816248039
1325.6992257550264,1325.6992257550264,1.0000701899624214,0.00010216848764520289
1325.7061702631006,1325.7061702631006,0.9999152048743827,0.00010215818544440458
1325.713114771221,1325.713114771221,0.9999776004809826,0.00010216533087355616
1325.7200592794113,1325.7200592794113,0.999989056459756,0.00010216092706002308
1325.7270037876951,1325.7270037876951,1.0000758914238534,0.00010217931364680602
1325.733948296002,1325.733948296002,1.0000595350259638,0.00010218492447158348
1325.7408928043903,1325.7408928043903,0.9999916665486424,0.00010219157051721532
1325.7478373128365,1325.7478373128365,1.0000374204554798,0.00010219334647747276
1325.7547818213534,1325.7547818213534,0.9997857649403923,0.00010219540283096366
1325.7617263299283,1325.7617263299283,0.9999496223215854,0.00010220678643115212
1325.7686708385377,1325.7686708385377,1.0002481102301304,0.00010222796708087803
1325.7756153472405,1325.7756153472405,1.000165151116353,0.00010223049200192797
1325.7825598559896,1325.7825598559896,0.9999046814788389,0.0001022288864385712
1325.7895043648086,1325.7895043648086,0.9998746067803902,0.00010222977892146213
1325.7964488736743,1325.7964488736743,1.000123676923993,0.0001022457223269955
1325.8033933825868,1325.8033933825868,1.0000789261550274,0.00010224605537691883
1325.810337891569,1325.810337891569,0.999828120357817,0.00010224403469896556
1325.8172824005972,1325.8172824005972,1.0000735248845107,0.00010226067651914776
1325.8242269096843,1325.8242269096843,1.0000476575981039,0.00010225938884382167
1325.8311714188178,1325.8311714188178,0.9997609052374523,0.00010224698248691279
1325.8381159280211,1325.8381159280211,1.0001184937328385,0.00010226411000426859
1325.845060437271,1325.845060437271,1.000065229571974,0.00010225420191461106
1325.8520049465671,1325.8520049465671,0.9998924163332807,0.00010223956258953466
1325.8589494558987,1325.8589494558987,0.9998983043001017,0.00010223543659747627
1325.8658939652998,1325.8658939652998,1.0001833101190987,0.0001022362191603364
1325.8728384747478,1325.8728384747478,0.9998089285677224,0.00010220705726265674
1325.879782984242,1325.879782984242,0.999997461046601,0.00010219626201573603
1325.886727493783,1325.886727493783,0.9999384738972376,0.00010218011446150654
1325.8936720033703,1325.8936720033703,1.0001434756665692,0.00010218500812650278
1325.9006165130163,1325.9006165130163,1.0001448357149985,0.00010217354925545901
1325.9075610226848,1325.9075610226848,1.0000194205232327,0.00010214678443562601
1325.9145055324236,1325.9145055324236,0.999899763489761,0.00010212853328960853
1325.9214500421856,1325.9214500421856,0.999869256068342,0.0001021273106609602
1325.9283945520062,1325.9283945520062,0.9999412384743831,0.00010212223982178023
1325.9353390618612,1325.9353390618612,1.0000078566655008,0.00010211638929277824
1325.9422835717633,1325.9422835717633,1.0000360740477536,0.00010211096090409755
1325.9492280817117,1325.9492280817117,0.9999642589398648,0.00010210031594840821
1325.956172591695,1325.956172591695,1.000057580877861,0.00010209447842124864
1325.9639504429283,1325.9639504429283,1.0000561033348554,0.00010210618263648748
1325.9714505138072,1325.9714505138072,1.0000698367587684,0.00010209195299924886
1325.9783950239184,1325.9783950239184,0.9999621144208923,0.00010208677395879556
1325.985339534076,1325.985339534076,1.000001740887311,0.00010208707739207165
1325.992284044269,1325.992284044269,0.9999960902902629,0.00010208166590716555
1325.9992285545086,1325.9992285545086,0.9999147537442885,0.00010207910569917532
1326.0061730647594,1326.0061730647594,0.999950409491562,0.00010207745977224104
1326.0131175750805,1326.0131175750805,1.0001522885901968,0.00010209314810836264
1326.0200620854127,1326.0200620854127,0.9999433999180528,0.00010208986836493094
1326.027006595792,1326.027006595792,0.9999115107134727,0.000102097178103438
1326.0339511062061,1326.0339511062061,1.0000990863009764,0.0001021121475004683
1326.0408956166432,1326.0408956166432,1.000143609402331,0.00010211348168042922
1326.047840127139,1326.047840127139,0.9998171478094928,0.00010208701297983089
1326.0547846376576,1326.0547846376576,1.0000129463752343,0.00010209834566538297
1326.0617291481994,1326.0617291481994,0.9999869708803718,0.00010209653842938447
1326.0686736587768,1326.0686736587768,1.0000630630100589,0.0001021006122872977
1326.0756181693998,1326.0756181693998,0.999866052278651,0.00010208801701925316
1326.0825626800356,1326.0825626800356,1.0001757802841644,0.00010209859660810776
1326.089507190729,1326.089507190729,0.9999653686818263,0.00010209137378451221
1326.096451701434,1326.096451701434,1.0001134674538337,0.00010209980354738031
1326.1033962121742,1326.1033962121742,0.9999261463119072,0.000102091771614543
1326.110340722937,1326.110340722937,0.999907453934639,0.00010208432202520917
1326.1172852337354,1326.1172852337354,0.9999611603126656,0.00010208445155464466
1326.1242297445565,1326.1242297445565,0.9998777334089487,0.0001020789353149551
1326.131174255425,1326.131174255425,1.0000090125552774,0.00010207642211042921
1326.1381187663276,1326.1381187663276,1.0001315424296107,0.00010207855634211892
1326.145063277231,1326.145063277231,1.00012590332638,0.00010208381115351985
1326.1520077881455,1326.1520077881455,1.0000547911896507,0.00010207720786545908
1326.158952299118,1326.158952299118,0.999832216795282,0.0001020559358947234
1326.1658968101144,1326.1658968101144,1.0001664320815797,0.00010207095056440642
1326.1728413211335,1326.1728413211335,0.9999089574276354,0.00010205697603441705
1326.1797858321647,1326.1797858321647,0.99997649111315,0.00010204984665148401
1326.1867303432423,1326.1867303432423,0.9997501390519824,0.00010203784240807666
1326.1936748543426,1326.1936748543426,1.0002421127006837,0.00010205873241685463
1326.2006193654556,1326.2006193654556,0.9999939198616389,0.00010204216158855327
1326.2075638765914,1326.2075638765914,1.0000453962476832,0.00010203844729157943
1326.2145083877742,1326.2145083877742,0.9999691242109143,0.00010203006450405075
1326.2214528989675,1326.2214528989675,0.9999569530656978,0.00010203172818575548
1326.2283974101617,1326.2283974101617,1.000017737335862,0.00010203008946334667
1326.2353419214023,1326.2353419214023,0.9998721917865655,0.00010202199621299317
1326.242286432654,1326.242286432654,1.0001978455928993,0.00010202621126743688
1326.249230943942,1326.249230943942,0.9998603306833733,0.00010200996520089023
1326.2561754552403,1326.2561754552403,1.000172428018699,0.00010202809068326239
1326.263119966551,1326.263119966551,1.000041438632011,0.00010201612189753976
1326.2700644778963,1326.2700644778963,0.9999178616151218,0.00010200144572162348
1326.2770089892647,1326.2770089892647,0.999961577137711,0.00010200627091831507
1326.2839535006453,1326.2839535006453,0.9999885917608499,0.00010200171061198983
1326.2908980120487,1326.2908980120487,0.9998185733525231,0.00010198824612115827
1326.2978425234755,1326.2978425234755,1.0001864773633766,0.00010199534801015901
1326.3047870349253,1326.3047870349253,1.0000185268660526,0.00010199318254125225
1326.3117315463526,1326.3117315463526,1.000000238130531,0.00010199114803755576
1326.3186760578374,1326.3186760578374,0.999882186226564,0.00010198162334072077
1326.3256205693222,1326.3256205693222,0.9997782725171724,0.00010198720275901646
1326.332565080866,1326.332565080866,1.000086567286394,0.00010199053185230744
1326.3395095923856,1326.3395095923856,1.000096568010243,0.00010199304410796459
1326.3470096648593,1326.3470096648593,0.9999768144966534,0.00010198675842133648
1326.3561764201245,1326.3561764201245,1.0001651152869502,0.00010199950702248064
1326.363120931714,1326.363120931714,0.9999067186953517,0.00010199073346058951
1326.370065443304,1326.370065443304,0.9998642070036909,0.00010198692829225364
1326.3770099549404,1326.3770099549404,1.0000468147448225,0.00010200000318558056
1326.383954466565,1326.383954466565,0.9999858613852373,0.0001020002920362158
1326.3908989782133,1326.3908989782133,0.999999546502116,0.00010199861455951493
1326.397843489873,1326.397843489873,0.9999148935777997,0.00010199253832092018
1326.4047880015557,1326.4047880015557,0.9999795545255502,0.00010200343406981655
1326.411732513239,1326.411732513239,1.0000679153106655,0.00010201127044906958
1326.418677024945,1326.418677024945,0.999969875146111,0.00010200429413632307
1326.4256215366745,1326.4256215366745,1.0000939527504624,0.00010199971976059489
1326.432566048404,1326.432566048404,1.000055303808369,0.00010201110582688966
1326.4395105601334,1326.4395105601334,1.0000069752490428,0.00010200369814766031
1326.446455071898,1326.446455071898,1.0000465660043243,0.00010201348024066496
1326.4533995836741,1326.4533995836741,0.9999206370528849,0.00010201155225944707
1326.4603440954502,1326.4603440954502,0.9999845727470899,0.00010200858965199371
1326.4672886072494,1326.4672886072494,0.9999319404259323,0.00010200493263805371
1326.4742331190605,1326.4742331190605,0.9998973774559772,0.00010200798164418722
1326.4811776308834,1326.4811776308834,1.0000453616491634,0.00010201427032826992
1326.4881221427056,1326.4881221427056,1.0000072492009084,0.00010200807411819925
1326.4950666545403,1326.4950666545403,1.0000594301546304,0.00010201694567398981
1326.5020111663976,1326.5020111663976,0.9999792088823185,0.00010201351446752346
1326.5089556782555,1326.5089556782555,1.0000898658446635,0.00010201925917781947
1326.5159001901243,1326.5159001901243,0.9999090862166214,0.00010201211213977044
1326.522844702017,1326.522844702017,1.0001743889847767,0.00010202427720827772
1326.5297892139095,1326.5297892139095,0.9999998923241951,0.00010202884795651934
1326.5367337258135,1326.5367337258135,0.9998104688870747,0.00010202168847619575
1326.5436782377062,1326.5436782377062,1.000060395028432,0.00010203675188862238
1326.5506227496335,1326.5506227496335,0.9999525042269394,0.00010203282029912237
1326.5575672615607,1326.5575672615607,0.999948296058158,0.00010203487840938868
1326.5645117734998,1326.5645117734998,1.0001303289405286,0.00010204064548063967
1326.5714562854505,1326.5714562854505,1.0000433713108061,0.00010203547033172964
1326.5784007974016,1326.5784007974016,0.99987463195339,0.00010203036101379957
1326.5853453093634,1326.5853453093634,0.999984144912047,0.00010203536272527643
1326.5922898213262,1326.5922898213262,1.0000788837056107,0.0001020301396155413
1326.5992343333116,1326.5992343333116,0.9999477619568768,0.00010202874259963386
1326.6061788452857,1326.6061788452857,1.000061249805977,0.00010203148975262752
1326.613123357283,1326.613123357283,0.9999285683439233,0.00010203151747230138
1326.6200678692799,1326.6200678692799,0.9999583115691335,0.0001020330630148899
1326.6270123812894,1326.6270123812894,1.0000505944664233,0.00010203443982636979
1326.6339568932976,1326.6339568932976,1.000078192053833,0.00010203791577043332
1326.6409014053072,1326.6409014053072,1.0000985763344674,0.00010203014245721705
1326.647845917339,1326.647845917339,0.9998368111453951,0.00010201827183999052
1326.6547904293714,1326.6547904293714,1.0001033708556233,0.00010203284491754506
1326.6617349413923,1326.6617349413923,1.0000499265040403,0.00010202123751461455
1326.6686794534473,1326.6686794534473,0.9997563015923892,0.00010199992558444532
1326.6756239654915,1326.6756239654915,0.9999592634059986,0.0001020091082830662
1326.6825684775235,1326.6825684775235,1.000092964625344,0.00010200248176857087
1326.6906241115214,1326.6906241115214,1.0001802904376,0.00010200350666944063
1326.6978464040708,1326.6978464040708,1.0000293867525885,0.00010199179826125948
1326.704790916138,1326.704790916138,0.9999615648856246,0.00010197330347299922
1326.7122909891707,1326.7122909891707,0.9998289313770071,0.00010197212533355872
1326.720068842686,1326.720068842686,0.9999815463028557,0.00010197020399575704
1326.7270133547531,1326.7270133547531,0.9999818918616337,0.00010195769501519702
1326.733957866855,1326.733957866855,0.999981690492109,0.00010195220796752199
1326.7409023789457,1326.7409023789457,1.000054131616339,0.00010194871632282973
1326.7478468910126,1326.7478468910126,1.0000666832186373,0.0001019558037733076
1326.7547914031377,1326.7547914031377,1.0001906915464318,0.00010195307786647282
1326.761735915205,1326.761735915205,0.9998922643478926,0.00010193106316757893
1326.7686804273185,1326.7686804273185,0.9999515685369389,0.00010192541839923225
1326.7756249394092,1326.7756249394092,0.9999630360258642,0.00010193047807602333
1326.7825694515227,1326.7825694515227,1.000041612702249,0.00010192625280031929
1326.789513963625,1326.789513963625,0.9999087403074842,0.00010192353482396332
1326.796458475727,1326.796458475727,1.0000425064252023,0.00010192723080418099
1326.8034029878406,1326.8034029878406,0.9998634807745418,0.00010192038854362402
1326.8103474999657,1326.8103474999657,1.0000598985782552,0.0001019330031910641
1326.8172920120676,1326.8172920120676,1.0001042167272707,0.00010193343501950333
1326.8242365241815,1326.8242365241815,0.9999765176978214,0.00010191860892942637
1326.831181036307,1326.831181036307,1.00001979922424,0.00010192315330649955
1326.8381255484207,1326.8381255484207,1.0000126951868153,0.00010191849918742895
1326.8450700605342,1326.8450700605342,0.9999716178905803,0.00010192481027442397
1326.8520145726598,1326.8520145726598,1.0000593285947204,0.00010191965571160268
1326.8589590847848,1326.8589590847848,0.9999968295160485,0.00010191518659663635
1326.8659035969108,1326.8659035969108,0.9999615667311577,0.00010190637832076955
1326.8728481090243,1326.8728481090243,1.0000093232784701,0.00010190737842612854
1326.8797926211494,1326.8797926211494,1.0000284207764083,0.00010190278540318418
1326.886737133275,1326.886737133275,0.9999333234816337,0.00010188350329941746
1326.8936816454,1326.8936816454,1.0001172106191545,0.00010188704261348111
1326.9006261575255,1326.9006261575255,0.9998010451084335,0.00010185931634972909
1326.907570669639,1326.907570669639,0.9999633182778052,0.00010185282936721308
1326.9145151817643,1326.9145151817643,1.0001293111553982,0.00010186455860132927
1326.9214596938896,1326.9214596938896,0.9998124307535573,0.00010182584974778236
1326.9284042060149,1326.9284042060149,1.0000873812527993,0.00010184015532979185
1326.935348718129,1326.935348718129,1.0001304389702224,0.00010183094699387659
1326.9422932302539,1326.9422932302539,1.000179525808376,0.0001018118778593143
1326.9492377423678,1326.9492377423678,0.9999077966356147,0.00010179321494669471
1326.9561822544815,1326.9561822544815,0.9999588049587945,0.00010178859663382452
1326.963126766607,1326.963126766607,0.9998287721352412,0.00010177710094763579
1326.9700712787321,1326.9700712787321,0.9999569943310522,0.00010177137431030179
1326.9770157908338,1326.9770157908338,0.9999351586714195,0.00010176034978202011
1326.9839603029482,1326.9839603029482,1.000159051079201,0.00010176540491702681
1326.9909048150498,1326.9909048150498,0.999942167717035,0.00010174344952484297
1326.9978493271756,1326.9978493271756,1.0000042788546313,0.00010174514340954872
1327.0047938392775,1327.0047938392775,1.0002327133182252,0.00010175594232104848
1327.0117383513677,1327.0117383513677,1.0000140173115966,0.00010174066008412482
1327.018682863493,1327.018682863493,0.9999704404884879,0.0001017494645656916
1327.0256273755833,1327.0256273755833,0.9999503926424465,0.00010173425756042462
1327.0325718876857,1327.0325718876857,0.9999449441480227,0.00010173523057410513
1327.0395163997641,1327.0395163997641,0.9999201988801067,0.00010174319140689727
1327.0464609118783,1327.0464609118783,0.9999721439061459,0.00010173879116573982
1327.053405423945,1327.053405423945,1.0000542354517283,0.00010173196565095054
