time,time,flux,flux_err
1325.3016407644388,1325.3016407644388,0.9997433698590733,0.0004325151142448817
1325.309974037785,1325.309974037785,1.000072385012174,0.00043299730915573304
1325.3183073112093,1325.3183073112093,1.000097995721409,0.00043326899078778526
1325.3266405847883,1325.3266405847883,0.9999358085423732,0.0004334956744356872
1325.3342794189552,1325.3342794189552,1.0003646067579948,0.00039605026127483576
1325.3412238137573,1325.3412238137573,1.0000958077045374,0.00039625311212952897
1325.3481682086062,1325.3481682086062,0.9998479117423089,0.00039643860674417155
1325.355112603501,1325.355112603501,1.0004303154155836,0.0003966184081783098
1325.3620569985358,1325.3620569985358,0.9996923722020019,0.00039671707511098914
1325.369001393571,1325.369001393571,1.0001704383988994,0.0003969154872688903
1325.375945788745,1325.375945788745,0.999344862912487,0.0003969157453514617
1325.382890183873,1325.382890183873,1.000282082897345,0.0003971307055243592
1325.3898345792338,1325.3898345792338,1.0000481023123708,0.00039719577195571656
1325.3967789745943,1325.3967789745943,1.0000985119573738,0.00039729670531772697
1325.4037233699553,1325.4037233699553,1.0003767199549138,0.00039740713493911436
1325.4106677654556,1325.4106677654556,0.9993414928449826,0.00039724544354484794
1325.4176121610028,1325.4176121610028,1.0001042285970756,0.0003975331102452356
1325.4245565566428,1325.4245565566428,1.000054522350171,0.00039757714593269397
1325.4315009523295,1325.4315009523295,1.0000804904448437,0.0003976641499451464
1325.4384453481093,1325.4384453481093,1.000198549902193,0.0003977416941133514
1325.4453897439357,1325.4453897439357,0.9999803343870216,0.000397778901718495
1325.452334139855,1325.452334139855,1.000364927175029,0.000397854487624784
1325.4592785358213,1325.4592785358213,0.9996954620111141,0.0003978671247376918
1325.4662229318806,1325.4662229318806,0.9996983338378111,0.00039790659838983113
1325.4731673279864,1325.4731673279864,0.9999611660751153,0.00039800719608122675
1325.4801117241855,1325.4801117241855,1.0000556482744234,0.0003981073096597472
1325.487056120431,1325.487056120431,0.9994933218383517,0.0003981138202398311
1325.4940005167232,1325.4940005167232,0.9999254921303692,0.00039828397245370635
1325.5009449131546,1325.5009449131546,1.0006519420713151,0.00039849840841930896
1325.5078893095401,1325.5078893095401,1.000130457566544,0.0003985041019760171
1325.5148337059718,1325.5148337059718,1.000175463916419,0.00039855809989048675
1325.521778102683,1325.521778102683,0.9999592804708757,0.0003986811328299108
1325.5287224992542,1325.5287224992542,0.999857427363309,0.00039884261684507453
1325.535666896012,1325.535666896012,0.9997560447766312,0.00039888864443849494
1325.542611292723,1325.542611292723,0.9998286393851259,0.0003989975822069216
1325.5495556895744,1325.5495556895744,1.000077654696637,0.0003991145566850535
1325.5565000864249,1325.5565000864249,1.000072433874335,0.0003992893341326834
1325.5634444834154,1325.5634444834154,1.0004461640104079,0.0003994483239672139
1325.5703888804528,1325.5703888804528,0.9996208269040061,0.00039944789225124526
1325.5773332775364,1325.5773332775364,0.9999322352102442,0.0003996034939693327
1325.5842776746667,1325.5842776746667,1.0000706272411317,0.0003996921292702637
1325.591222071843,1325.591222071843,1.0002378456129315,0.0003998399728884527
1325.5981664690669,1325.5981664690669,0.9998152256312981,0.000399862378792013
1325.6051108664299,1325.6051108664299,1.0004154685495348,0.0004000326475655321
1325.6120552637929,1325.6120552637929,0.9999193469020421,0.0004000202763121739
1325.618999661249,1325.618999661249,0.9998812103940959,0.0004000689000794414
1325.625944058752,1325.625944058752,1.0001603629633629,0.00040013058620756904
1325.632888456255,1325.632888456255,0.9993740480367939,0.0004000731406730102
1325.6398328538974,1325.6398328538974,0.9998860719747077,0.00040010229980683674
1325.6467772515862,1325.6467772515862,0.9999394776303898,0.00040011269273423114
1325.6537216492754,1325.6537216492754,0.999610476334204,0.00040002986031682455
1325.6606660471039,1325.6606660471039,1.0004147535885601,0.00040014722198738014
1325.667610444933,1325.667610444933,0.9993045407518688,0.0003999964772752284
1325.674554842808,1325.674554842808,1.000108093416342,0.0004000676661823555
1325.6814992407767,1325.6814992407767,1.0003324016397952,0.00040017968124079833
1325.6884436387918,1325.6884436387918,1.0003979543449817,0.00040016283388408567
1325.6953880368067,1325.6953880368067,1.0000345098777095,0.0004001194976362917
1325.7023324349618,1325.7023324349618,1.000199102593264,0.0004001564700251539
1325.7092768330697,1325.7092768330697,1.0001778879071765,0.00040025978597609403
1325.7162212313174,1325.7162212313174,0.9996100940865805,0.0004002026331565789
1325.7231656296117,1325.7231656296117,0.9998369778731135,0.00040038244493295443
1325.7301100279062,1325.7301100279062,0.9998467556505386,0.00040045347684159225
1325.7370544262935,1325.7370544262935,0.9995363580626305,0.000400435958418779
1325.743998824681,1325.743998824681,1.0001436896023734,0.00040070496355631383
1325.7509432231152,1325.7509432231152,0.9998175073251991,0.0004007105576780464
1325.7578876216892,1325.7578876216892,1.0006551215917963,0.0004009828002334356
1325.764832020263,1325.764832020263,1.000230984871227,0.0004010221672786659
1325.771776418837,1325.771776418837,0.9996777323855852,0.00040103707685630407
1325.7787208175037,1325.7787208175037,1.0002707225043659,0.0004012304311089397
1325.7856652163105,1325.7856652163105,0.9998756762618877,0.0004013065805060295
1325.7926096149308,1325.7926096149308,0.9997314613384901,0.00040136277893874917
1325.799554013784,1325.799554013784,0.9999966943180854,0.00040149226834362893
1325.8064984126374,1325.8064984126374,1.0003824891245698,0.00040169268337261857
1325.8134428114904,1325.8134428114904,1.0000276721413328,0.00040172744770567423
1325.8203872105764,1325.8203872105764,0.9994513010725348,0.0004017384454777
1325.8273316094762,1325.8273316094762,0.9999051047702118,0.00040188618710528646
1325.8342760085156,1325.8342760085156,1.0005594553496358,0.00040204928291535144
1325.841220407602,1325.841220407602,0.9997508292005272,0.00040198806727440446
1325.8481648067343,1325.8481648067343,0.9996587249724094,0.00040200652106639375
1325.8551092059133,1325.8551092059133,1.0000114903519104,0.0004020388379520027
1325.8620536050926,1325.8620536050926,1.0002799697314029,0.0004020329017910723
1325.8689980043187,1325.8689980043187,1.0001522587881673,0.00040200734734267124
1325.8759424036373,1325.8759424036373,0.9998572533918075,0.00040191132606253246
1325.8828868030027,1325.8828868030027,0.9999644220695456,0.00040185070740443314
1325.8898312023216,1325.8898312023216,0.9998865898867415,0.0004018171421555008
1325.8967756017337,1325.8967756017337,1.0003621794162145,0.0004018323057662176
1325.9037200011921,1325.9037200011921,0.9997263546058243,0.00040167211307369786
1325.9106644007438,1325.9106644007438,1.0002250549882172,0.00040174347655200124
1325.917608800249,1325.917608800249,1.0002973557452193,0.00040174923253324355
1325.9245531998008,1325.9245531998008,0.999389716194164,0.000401587306885665
1325.9314975994457,1325.9314975994457,1.0001462347153933,0.0004017506167216527
1325.9384419990904,1325.9384419990904,0.9994434702073797,0.0004016630596225488
1325.9453863987815,1325.9453863987815,1.0001680105082882,0.0004017284990428337
1325.95233079852,1325.95233079852,1.000217645446726,0.00040176893991244664
1325.9592751982577,1325.9592751982577,0.9996980717603339,0.00040176876033238965
1325.9673307020453,1325.9673307020453,0.9999456934480824,0.00040187855309634324
1325.9745528779235,1325.9745528779235,0.9999274182077675,0.00040182564314589637
1325.981497277708,1325.981497277708,0.9996388187237798,0.00040179429568453417
1325.9884416777254,1325.9884416777254,1.0001708858849472,0.00040195658470616985
1325.9953860775563,1325.9953860775563,1.0000594969856857,0.00040204313343004006
1326.0023304775273,1326.0023304775273,1.0002404778617424,0.00040210891416461475
1326.0092748775446,1326.0092748775446,1.0000043354567925,0.0004022423847202146
1326.016219277562,1326.016219277562,1.0002581335072223,0.0004023230578643836
1326.0231636777658,1326.0231636777658,0.9998405034407192,0.00040245197072847803
1326.0301080778295,1326.0301080778295,1.0000571078484044,0.0004025297856532042
1326.0370524779867,1326.0370524779867,1.0000032655763602,0.0004026732120587134
1326.0439968781434,1326.0439968781434,0.9996761396290406,0.0004025634097878341
1326.0509412783474,1326.0509412783474,1.0005472814376515,0.00040277988655189193
1326.0578856785971,1326.0578856785971,0.9999856802137004,0.0004027629721175801
1326.0648300788944,1326.0648300788944,0.9993121466329917,0.00040270731118131474
1326.071774479191,1326.071774479191,0.99993508861427,0.0004028652576785012
1326.0787188794875,1326.0787188794875,1.0001063003553423,0.00040294567358652183
1326.0856632798777,1326.0856632798777,1.0004267312415553,0.00040301191050317085
1326.0926076802211,1326.0926076802211,0.9993033585913856,0.0004028526202728079
1326.0995520806578,1326.0995520806578,1.0002211045303788,0.0004031695594593363
1326.1064964811408,1326.1064964811408,1.0003326786246052,0.0004031264993688788
1326.1134408815767,1326.1134408815767,1.0004264332377621,0.00040319883156385874
1326.12038528206,1326.12038528206,0.9997932186711156,0.0004031506516048675
1326.127329682636,1326.127329682636,1.000162965668506,0.0004032312756222488
1326.134274083166,1326.134274083166,0.9997325419645877,0.00040316043476351833
1326.1412184837416,1326.1412184837416,0.9998881294491676,0.0004032425555412928
1326.1481628843649,1326.1481628843649,1.0001338412463887,0.00040332521987961083
1326.1551072849875,1326.1551072849875,1.000012065031336,0.00040336864135798195
1326.1620516856565,1326.1620516856565,0.9995586938547477,0.0004033488536500234
1326.1689960863262,1326.1689960863262,1.0001535835086837,0.0004034452241253224
1326.1759404870415,1326.1759404870415,0.9999590099348765,0.00040344956117481685
1326.1828848877578,1326.1828848877578,1.000273542054225,0.00040348860416806526
1326.1898292885667,1326.1898292885667,0.999187302977038,0.00040340694537912446
1326.196773689329,1326.196773689329,1.0000022959251218,0.00040347069500975717
1326.2037180901382,1326.2037180901382,1.0003965775021668,0.00040355900916598
1326.210662490947,1326.210662490947,0.9999419818668367,0.0004035011796421858
1326.2176068918027,1326.2176068918027,0.9996471907489217,0.0004035153078441953
1326.2245512926581,1326.2245512926581,1.000180916717899,0.0004035804061625722
1326.2314956935602,1326.2314956935602,0.9997409148323693,0.00040353652610431167
1326.2384400945089,1326.2384400945089,1.0005281155555787,0.00040362577540020174
1326.2453844954573,1326.2453844954573,0.9997309396736659,0.00040350772462862517
1326.2523288964067,1326.2523288964067,1.0001509275540086,0.0004036170511415004
1326.2592732973549,1326.2592732973549,0.9995869583175248,0.0004036109352163459
1326.266217698397,1326.266217698397,1.0001032927408997,0.0004036841245064138
1326.2731620993923,1326.2731620993923,1.0000242391833034,0.00040371524275777825
1326.280106500434,1326.280106500434,1.00016219450892,0.0004037399303103209
1326.2870509015224,1326.2870509015224,0.9998789887910711,0.000403710636846075
1326.293995302564,1326.293995302564,1.000198021546877,0.00040382901292788335
1326.3009397036526,1326.3009397036526,1.0002322162592394,0.00040376944857662344
1326.3078841048339,1326.3078841048339,0.9997608701186046,0.00040375618735926673
1326.3148285060156,1326.3148285060156,0.9998470483679462,0.0004038230034051735
1326.321772907197,1326.321772907197,1.000164942943289,0.000403967165676318
1326.3287173083786,1326.3287173083786,0.9995138477884578,0.00040389571688596426
1326.33566170956,1326.33566170956,1.0000416697918293,0.00040404284272002486
1326.3426061107416,1326.3426061107416,0.9994541674261302,0.0004040073317742759
1326.3506616161126,1326.3506616161126,1.0000642829888704,0.00040414249657335516
1326.3592726735772,1326.3592726735772,0.9999724091263958,0.0004041711088684577
1326.3662170749453,1326.3662170749453,1.000456801937903,0.0004043388667149364
1326.3731614761732,1326.3731614761732,0.9999305267553152,0.0004043292233509738
1326.380105877448,1326.380105877448,0.9996642156453592,0.0004043728545638727
1326.387050278769,1326.387050278769,0.999648385394698,0.0004043716284255733
1326.3939946801368,1326.3939946801368,1.000642622461322,0.0004045978424100544
1326.4009390814117,1326.4009390814117,0.9997099804920758,0.0004044945609610586
1326.4078834827792,1326.4078834827792,1.000174226663485,0.0004046353039235483
1326.4148278841942,1326.4148278841942,0.9992291305916515,0.000404536435472582
1326.4217722855615,1326.4217722855615,1.0002571488266834,0.0004047477197947016
1326.4287166869758,1326.4287166869758,0.9997710634335846,0.0004047436753640288
1326.4356610883435,1326.4356610883435,1.0002361344683959,0.00040491496860163654
1326.4426054898045,1326.4426054898045,1.0003628831864395,0.0004049316154507585
1326.4495498912188,1326.4495498912188,1.0003223412123081,0.00040501513112137694
1326.4564942926797,1326.4564942926797,0.9997699629114807,0.0004050197105488937
1326.463438694141,1326.463438694141,1.0002467606203296,0.0004051715071918834
1326.4703830956016,1326.4703830956016,0.9995061720707199,0.00040509634729567667
1326.4773274970623,1326.4773274970623,1.0000379523056104,0.0004052405952204031
1326.484271898617,1326.484271898617,1.000036902537522,0.0004052357092401114
1326.491216300124,1326.491216300124,1.0000020394475075,0.000405348086209722
1326.4981607016318,1326.4981607016318,1.0000691017669427,0.0004053826305535155
1326.5051051031387,1326.5051051031387,1.0002898187848221,0.00040551228874431444
1326.5120495046933,1326.5120495046933,0.9997710748107185,0.0004055184343008388
1326.518993906247,1326.518993906247,0.9995131199913823,0.0004054696196171421
1326.5259383078478,1326.5259383078478,1.0001161720515548,0.0004056467721274185
1326.532882709402,1326.532882709402,1.0006757507498718,0.000405859825043174
1326.5398271109557,1326.5398271109557,1.0000804011928,0.0004058505028272963
1326.5467715125567,1326.5467715125567,0.9996121712850045,0.0004059014282746149
1326.5537159142036,1326.5537159142036,0.9999712573624879,0.0004060838562906873
1326.560660315758,1326.560660315758,1.0002488415353799,0.00040617949702301216
1326.567604717405,1326.567604717405,0.9999242788665089,0.0004060909703124356
1326.5745491190055,1326.5745491190055,1.0000083318489448,0.00040614919318455317
1326.581493520653,1326.581493520653,0.9998282951179487,0.0004061906590701727
1326.5884379222998,1326.5884379222998,0.9997075373368665,0.0004061917698169355
1326.5953823239474,1326.5953823239474,1.0000153651036068,0.00040636551421697873
1326.6023267255944,1326.6023267255944,1.0002646411532459,0.00040641971145461634
1326.6092711272881,1326.6092711272881,1.0001335745606472,0.000406455375233737
1326.6162155289821,1326.6162155289821,0.9996657198881657,0.0004064606900693113
1326.6231599306288,1326.6231599306288,1.0005351408928767,0.00040653964820309643
1326.6301043323228,1326.6301043323228,0.9996882988612077,0.00040641727554732693
1326.6370487340628,1326.6370487340628,0.9996945337482572,0.00040645539675923285
1326.6439931357104,1326.6439931357104,0.9999213923409453,0.00040644927573119886
1326.6509375374508,1326.6509375374508,1.0004936196934113,0.0004065230808820708
1326.6578819391445,1326.6578819391445,0.999917775175273,0.0004063867509339395
1326.6648263408847,1326.6648263408847,0.9999080378793218,0.00040639220748507957
1326.6717707426246,1326.6717707426246,1.0004501996154138,0.0004064008442752101
1326.6787151442725,1326.6787151442725,1.0000331775341176,0.0004062719850850935
1326.685659546059,1326.685659546059,0.9997620706247028,0.0004061119917311105
1326.6939928281754,1326.6939928281754,0.9998176976009123,0.0004061130980577446
1326.7009372299158,1326.7009372299158,0.9998491440936332,0.0004060758397302685
1326.7078816317025,1326.7078816317025,0.999638483152518,0.0004059797490950386
1326.7156593616314,1326.7156593616314,0.9997726438212411,0.00040599692374625066
1326.7231593154665,1326.7231593154665,1.0000288034408755,0.0004058983108534314
1326.7301037172062,1326.7301037172062,1.00089078141478,0.00040598439135239376
1326.7370481190399,1326.7370481190399,1.0003227430661064,0.0004058170604166792
1326.7439925208737,1326.7439925208737,0.9997572539180126,0.00040568681086453653
1326.7509369226136,1326.7509369226136,0.9995705107192201,0.0004055960577554556
1326.7578813244004,1326.7578813244004,1.0001937675878103,0.00040566939151400627
1326.7648257261408,1326.7648257261408,1.0002239036910692,0.00040564213317705625
1326.7717701279278,1326.7717701279278,1.0002414331923424,0.0004056158775284012
1326.778714529668,1326.778714529668,0.9995101669919997,0.00040544240734952775
1326.785658931455,1326.785658931455,0.9997786573256114,0.0004054954315641651
1326.7926033333351,1326.7926033333351,1.00016061978828,0.00040560538617857015
1326.7995477350753,1326.7995477350753,0.9998509270024508,0.0004055414904859025
1326.8064921368627,1326.8064921368627,0.9999877600432601,0.00040553232616758134
1326.813436538649,1326.813436538649,0.9999426847059745,0.0004055642243132723
1326.8203809404827,1326.8203809404827,1.0005140257489664,0.0004057182561803865
1326.8273253422692,1326.8273253422692,1.0003042518220988,0.0004057339093027068
1326.8342697440098,1326.8342697440098,0.9998599806587414,0.00040558441821627277
1326.8412141458898,1326.8412141458898,0.9999973364688366,0.0004056363238326193
1326.8481585476766,1326.8481585476766,0.9995382874111943,0.0004054893235348405
1326.855102949417,1326.855102949417,0.999778235454858,0.0004055337574141397
1326.862047351297,1326.862047351297,1.0003324315914512,0.00040549129520640133
1326.8689917530842,1326.8689917530842,0.999322507366089,0.0004053432829718261
1326.8759361548243,1326.8759361548243,1.000183156208605,0.0004052733582421091
1326.8828805566577,1326.8828805566577,0.9997130231440806,0.00040508259828070094
1326.8898249584913,1326.8898249584913,1.0007756094012905,0.0004050895508767382
1326.8967693602312,1326.8967693602312,0.9997066569042538,0.0004048719665994319
1326.9037137620653,1326.9037137620653,1.000132799251193,0.0004046588936089561
1326.9106581638985,1326.9106581638985,1.0002673405481128,0.00040462368715333435
1326.9176025656386,1326.9176025656386,1.000566993912567,0.0004045791172184759
1326.9245469674256,1326.9245469674256,0.9994252690724753,0.0004041978455906906
1326.9314913693056,1326.9314913693056,0.9999594318249605,0.00040413822900103565
1326.938435771046,1326.938435771046,1.0003176062592893,0.00040407433876526284
1326.9453801728325,1326.9453801728325,0.9999942095475675,0.00040396543586778517
1326.95232457462,1326.95232457462,0.9998717165291175,0.00040378881451009834
1326.959268976453,1326.959268976453,1.0007394662716034,0.00040381743623176577
1326.9662133782404,1326.9662133782404,0.9996174134778218,0.00040359265093725064
1326.9731577799805,1326.9731577799805,0.9994694139358631,0.0004034303012373803
1326.980102181767,1326.980102181767,1.000022175974266,0.00040341311420753485
1326.987046583508,1326.987046583508,1.0002369325693459,0.0004033852948969678
1326.9939909852947,1326.9939909852947,0.9997213971755501,0.00040317883893880945
1327.0009353871744,1327.0009353871744,1.0001165193178203,0.00040314121684574127
1327.007879788915,1327.007879788915,1.0003606361341026,0.0004031952509215506
1327.0148241907016,1327.0148241907016,0.9998612329129151,0.00040305715590638753
1327.0217685924422,1327.0217685924422,0.9999887760592732,0.00040302876984097964
1327.028712994229,1327.028712994229,1.0002520361597613,0.00040303897007701447
1327.0356573959693,1327.0356573959693,0.9997556275797873,0.0004029572369163118
1327.0426017977559,1327.0426017977559,1.0002038111178042,0.00040300826638279007
1327.0495461994035,1327.0495461994035,1.0002270171033114,0.00040297932101433613
1327.0564906011437,1327.0564906011437,0.9993922246668798,0.00040292810642818656
1327.0645461072131,1327.0645461072131,1.0003423832694764,0.0004030604199392349
