time,time,flux,flux_err
1410.9075183343484,1410.9075183343484,0.9994285058118941,0.0006724445318639275
1410.9158518192314,1410.9158518192314,0.9999747637986903,0.0006724372978881813
1410.9241853041538,1410.9241853041538,0.9997534777690221,0.0006723432733263416
1410.9318243320718,1410.9318243320718,1.0005204199303899,0.0006138859860871178
1410.938768903013,1410.938768903013,1.0001443856334684,0.0006137929100216322
1410.945713473976,1410.945713473976,1.0002437215191442,0.0006138153007875778
1410.9526580450324,1410.9526580450324,1.0005398818981532,0.0006137891133849674
1410.9601581818,1410.9601581818,0.9993490907340059,0.0006134738535044121
1410.971269495709,1410.971269495709,0.9989342935279405,0.0006126252878748045
1410.984603072554,1410.984603072554,1.00068273934584,0.0006138237066832884
1410.991547643867,1410.991547643867,1.0003346210922452,0.0006133622991400068
1411.003492306761,1411.003492306761,1.0008124134512424,0.0006129904701141309
1411.0109924439942,1411.0109924439942,0.9997184228567824,0.0006134950424663956
1411.017937015516,1411.017937015516,0.9992329420403276,0.0006132769016944556
1411.0248815871087,1411.0248815871087,1.0004221991485602,0.0006134528835773762
1411.0318261587236,1411.0318261587236,0.9997187815319968,0.0006128922854264977
1411.0387707304321,1411.0387707304321,1.0001824351314035,0.0006131719140231105
1411.045993085043,1411.045993085043,0.999518591267252,0.0006133173605086693
1411.0540487882886,1411.0540487882886,1.0007971732700838,0.0006130743913605792
1411.0609933600908,1411.0609933600908,0.9994509875179169,0.0006132216297517109
1411.0679379319613,1411.0679379319613,1.000725714026032,0.0006132755273176237
1411.0748825038331,1411.0748825038331,0.999648755683932,0.0006134860133838612
1411.081827075798,1411.081827075798,1.0001940697298044,0.0006129985138323224
1411.088771647762,1411.088771647762,0.9999512193429355,0.0006130558976779291
1411.0957162197506,1411.0957162197506,0.9998401150662456,0.000613388955862934
1411.1026607918081,1411.1026607918081,0.9997794543400861,0.0006132421165520451
1411.1096053638657,1411.1096053638657,1.0004592766260163,0.0006131491755013537
1411.1165499359938,1411.1165499359938,1.0004098111218702,0.0006134299329647614
1411.1234945081205,1411.1234945081205,0.9990574291327056,0.0006129751709387497
1411.1304390802957,1411.1304390802957,1.0002538124323448,0.0006131034248508082
1411.1373836524924,1411.1373836524924,0.9990338095757793,0.0006128155469085643
1411.1443282247365,1411.1443282247365,1.000694203019965,0.0006130052514839449
1411.151272796981,1411.151272796981,0.9996546221501136,0.0006130403365245407
1411.1582173692477,1411.1582173692477,1.000749972187426,0.0006129142098583258
1411.1651619415388,1411.1651619415388,1.0002737225185814,0.0006128207970905261
1411.1721065138759,1411.1721065138759,0.9994739781716329,0.0006125971128552308
1411.1790510862363,1411.1790510862363,1.0006711984859655,0.0006130752831971746
1411.1859956585968,1411.1859956585968,0.9995727090892054,0.0006126402604380531
1411.1929402310031,1411.1929402310031,1.0005685622291665,0.0006129774723784164
1411.199884803434,1411.199884803434,0.9990399872929542,0.0006123940733127103
1411.2068293758641,1411.2068293758641,0.9994193600916972,0.0006128009049491389
1411.213773948341,1411.213773948341,1.000642992384528,0.0006127305465118238
1411.2207185207947,1411.2207185207947,0.9998285489200198,0.0006124769542327792
1411.2276630933177,1411.2276630933177,1.0003381299140386,0.0006127862849514404
1411.2346076657718,1411.2346076657718,1.0003890782297173,0.0006128429493885401
1411.241552238318,1411.241552238318,1.0005947798984711,0.0006129435545286172
1411.248496810865,1411.248496810865,0.999373299152073,0.0006130076062403507
1411.2554413834116,1411.2554413834116,1.0001811802419212,0.0006129945918147808
1411.262385956005,1411.262385956005,0.9994387741932795,0.0006128638254421406
1411.2693305286218,1411.2693305286218,0.9998325627513124,0.0006129742595755189
1411.276275101168,1411.276275101168,1.0004208833427835,0.0006129190317178419
1411.2832196738314,1411.2832196738314,0.9996029769379762,0.0006129192580660185
1411.2901642464244,1411.2901642464244,1.000397757906096,0.0006130071227733889
1411.2971088190407,1411.2971088190407,0.9998019414688073,0.0006130742102880661
1411.3040533917042,1411.3040533917042,0.9994455264419535,0.0006127694036421685
1411.3109979643436,1411.3109979643436,0.9997990523003779,0.0006132592586240572
1411.317942536984,1411.317942536984,1.000669569771443,0.0006132790134366623
1411.324887109647,1411.324887109647,1.0000862476418733,0.000613219348737755
1411.331831682333,1411.331831682333,1.000614975623264,0.000613077098780625
1411.338776254997,1411.338776254997,1.0002974005586147,0.0006129676906692
1411.3457208276825,1411.3457208276825,0.999987703107827,0.0006130641408779889
1411.3526654003695,1411.3526654003695,0.9981857468142621,0.0006126076453325953
1411.3596099730555,1411.3596099730555,1.000461664199707,0.0006130701580595861
1411.3665545457418,1411.3665545457418,1.0000594110075929,0.0006127702345819412
1411.3734991184288,1411.3734991184288,1.0000283760932362,0.0006130134438885729
1411.3804436911612,1411.3804436911612,0.9996980443602974,0.000613007492373738
1411.3873882638477,1411.3873882638477,1.0004733964688661,0.0006129448008641448
1411.3943328365344,1411.3943328365344,1.0010084490199902,0.0006131408945919493
1411.401277409244,1411.401277409244,1.0007293812716507,0.0006129815852047546
1411.4082219819538,1411.4082219819538,0.9985437080042509,0.0006125663010350319
1411.4151665546397,1411.4151665546397,0.9993234396362058,0.0006127552838686987
1411.4221111273498,1411.4221111273498,0.9998740018153723,0.0006127199627182663
1411.429055700036,1411.429055700036,1.000787956056562,0.0006129195001870517
1411.4360002727221,1411.4360002727221,1.0006489074703933,0.0006131177194167347
1411.4429448454089,1411.4429448454089,0.9992975218748059,0.0006124356015455158
1411.4498894181181,1411.4498894181181,0.9994225970082915,0.0006126454639635728
1411.4568339908053,1411.4568339908053,1.0003190988641935,0.0006129335736413827
1411.463778563491,1411.463778563491,1.0001320878166358,0.0006129664423496072
1411.4707231361544,1411.4707231361544,0.9997087040911969,0.000612740334569699
1411.4776677088178,1411.4776677088178,1.0005166627940234,0.0006126532516623633
1411.4846122814804,1411.4846122814804,0.9997565072245015,0.0006128231318282487
1411.4915568541442,1411.4915568541442,1.0009086799998799,0.0006130213105630777
1411.4985014268068,1411.4985014268068,0.9996411138276032,0.0006129123518823305
1411.5054459994235,1411.5054459994235,0.9993249408774126,0.0006130272297870947
1411.5123905720632,1411.5123905720632,0.999794679085477,0.0006124366376075796
1411.519335144726,1411.519335144726,1.0011991182554476,0.000613117966201011
1411.5262797172968,1411.5262797172968,0.9993437789123938,0.0006129172944822329
1411.533224289936,1411.533224289936,0.9996989428416402,0.0006128582591063774
1411.5401688625066,1411.5401688625066,1.0003814156268838,0.0006130524170588744
1411.5471134351462,1411.5471134351462,0.9999717807739673,0.0006128623083737244
1411.5540580076927,1411.5540580076927,0.9998461039363813,0.000612931530937691
1411.56100258024,1411.56100258024,1.0001873529532852,0.000613182625492417
1411.5679471527858,1411.5679471527858,0.9999248765298322,0.0006129876377847013
1411.5748917253334,1411.5748917253334,0.9996179121605084,0.000612759224306011
1411.5818362978794,1411.5818362978794,1.0005267063059213,0.0006131317187057484
1411.588780870426,1411.588780870426,0.9995170108593635,0.0006130442409844364
1411.5957254429036,1411.5957254429036,0.9998573388933384,0.0006130586373752553
1411.602670015403,1411.602670015403,1.000896117179194,0.0006134014587650678
1411.6096145878805,1411.6096145878805,0.9989731180362442,0.0006128449103199055
1411.6165591603572,1411.6165591603572,0.9999957654193834,0.0006131673636316228
1411.6235037328106,1411.6235037328106,1.000404708485903,0.0006132191129149042
1411.630448305241,1411.630448305241,1.000188269797772,0.0006130847656682265
1411.6373928776477,1411.6373928776477,1.0003601657413275,0.0006133517015749216
1411.6443374500552,1411.6443374500552,0.9999279105020389,0.0006130534200011753
1411.6512820224618,1411.6512820224618,1.0001621368586548,0.0006132859055666557
1411.6582265947993,1411.6582265947993,0.9994983932185217,0.0006131159759980711
1411.6651711671827,1411.6651711671827,0.999559717184886,0.0006131753922072909
1411.67211573952,1411.67211573952,1.000328905489652,0.0006133192581708609
1411.679060311834,1411.679060311834,1.000054299160455,0.0006132374295133718
1411.686004884124,1411.686004884124,1.0001477934505743,0.0006132290988649302
1411.6929494564388,1411.6929494564388,1.0006093535102434,0.0006133592828289306
1411.6998940287053,1411.6998940287053,0.9991792129174362,0.0006131868843770272
1411.7068386009498,1411.7068386009498,0.9994107111237083,0.0006131374120022279
1411.7137831731707,1411.7137831731707,1.000517253386516,0.0006133932573126996
1411.7207277453908,1411.7207277453908,1.000155324140478,0.0006133124241917472
1411.7276723175892,1411.7276723175892,0.9994460584133401,0.0006131454465966638
1411.7346168897625,1411.7346168897625,1.0010916066209616,0.0006136300700966622
1411.741561461914,1411.741561461914,0.999978975466593,0.0006132050639606399
1411.7485060340412,1411.7485060340412,0.9992277996772803,0.000613064497658847
1411.7554506061456,1411.7554506061456,1.000095185075133,0.0006132406508635687
1411.762395178227,1411.762395178227,1.000154394026358,0.000613293211945252
1411.7693397503076,1411.7693397503076,1.0001568557958083,0.000613426190356432
1411.7762843223193,1411.7762843223193,0.9993429407347897,0.0006129349030558835
1411.7832288944003,1411.7832288944003,0.999719619377534,0.0006133124499291263
1411.7901734663649,1411.7901734663649,1.0006128097117968,0.000613381159707187
1411.7971180383295,1411.7971180383295,0.9999963515090087,0.0006134792872587259
1411.8040626102936,1411.8040626102936,1.0005837029739029,0.00061351696395567
1411.811007182259,1411.811007182259,1.0003326983231862,0.0006133974195108422
1411.8179517541535,1411.8179517541535,0.9994074206853583,0.0006133009711591222
1411.8248963260717,1411.8248963260717,1.0001667610479381,0.0006134315859870665
1411.8318408979198,1411.8318408979198,0.9997637890516342,0.0006133353560779712
1411.8387854697446,1411.8387854697446,0.9997395511733862,0.0006130300027826968
1411.84573004157,1411.84573004157,0.9996572162205849,0.000613217421829186
1411.8526746133944,1411.8526746133944,0.9994506032013991,0.0006134009765407205
1411.85961918515,1411.85961918515,1.000705277860103,0.0006136555229515968
1411.8665637568813,1411.8665637568813,1.0000664187470938,0.0006134829439939533
1411.8735083286133,1411.8735083286133,1.0008368621370747,0.0006135783379002365
1411.8804529002987,1411.8804529002987,1.0000841455915352,0.0006133406502483047
1411.8873974719836,1411.8873974719836,0.9991542180813606,0.000613438955544422
1411.8943420435996,1411.8943420435996,1.0000005937250807,0.0006135567146584317
1411.9012866152143,1411.9012866152143,1.0010481255769135,0.0006137351148670245
1411.9082311868074,1411.9082311868074,0.9993911924130682,0.0006134362098024484
1411.9151757583988,1411.9151757583988,1.0000347922871469,0.0006132828992232714
1411.9221203299212,1411.9221203299212,0.999872502754146,0.0006136377606553605
1411.9290649014204,1411.9290649014204,0.9987536597932646,0.0006133652898975495
1411.9360094729188,1411.9360094729188,1.0002606396003908,0.0006136502551031668
1411.9429540443484,1411.9429540443484,0.999715090560802,0.0006134298553178299
1411.9498986158237,1411.9498986158237,1.0003882564083733,0.0006136909217241056
1411.9568431872299,1411.9568431872299,0.9997359794874117,0.0006137288162750043
1411.9637877586124,1411.9637877586124,1.0000847076044443,0.0006136535776669965
1411.9707323299017,1411.9707323299017,1.0003359964879484,0.0006136193100408425
1411.977676901261,1411.977676901261,0.9997969304509583,0.0006135495178937052
1411.9846214725271,1411.9846214725271,1.0005917657872097,0.0006137599177834464
1411.9915660437937,1411.9915660437937,1.0004964828372214,0.0006135667824277022
1411.9985106150127,1411.9985106150127,0.999374315875008,0.0006135513609100725
1412.005455186256,1412.005455186256,0.999011753532382,0.0006135413205119766
1412.0123997574058,1412.0123997574058,0.9997976233460543,0.0006134190107526991
1412.019344328555,1412.019344328555,0.9992443742153485,0.0006135086946600618
1412.0262888996822,1412.0262888996822,1.0010403448072451,0.0006137347940187568
1412.0332334707844,1412.0332334707844,1.0001947643125895,0.0006134357881530383
1412.0401780418185,1412.0401780418185,1.001155614657393,0.0006133857371165383
1412.0471226128516,1412.0471226128516,0.9988415354646769,0.0006128796016490894
1412.0540671838614,1412.0540671838614,1.0004555029969953,0.0006134955272725465
1412.061011754802,1412.061011754802,1.0004230735945847,0.0006134910702388905
1412.0679563257652,1412.0679563257652,1.000541067730105,0.0006135841877500519
1412.0749008966593,1412.0749008966593,0.9998929297809097,0.0006135905096860469
1412.0818454675757,1412.0818454675757,0.9995865131893915,0.0006134192941554834
1412.0887900383768,1412.0887900383768,0.9988549662941528,0.0006131445801828213
1412.0957346091768,1412.0957346091768,1.0002775046831824,0.0006135120155233015
1412.1026791799773,1412.1026791799773,1.0003420310260123,0.000613660342243177
1412.1096237507777,1412.1096237507777,0.9989846994501196,0.000613284636397089
1412.1165683214617,1412.1165683214617,1.0007786272260437,0.0006137168085924413
1412.1235128921694,1412.1235128921694,0.9992661911806984,0.0006132350050664448
1412.1304574628066,1412.1304574628066,1.0006845344190851,0.0006137346992850069
1412.1374020334447,1412.1374020334447,1.0006529379126214,0.0006137713552636216
1412.1443466040353,1412.1443466040353,1.0004881102284435,0.0006133268985693791
1412.1512911746263,1412.1512911746263,0.9997551586971701,0.0006133599349084323
1412.158235745124,1412.158235745124,1.0000510879083118,0.000613844961523415
1412.1651803156446,1412.1651803156446,0.9995046275629894,0.0006136368388624674
1412.17212488612,1412.17212488612,1.0000955643583858,0.0006137919857798745
1412.1790694565707,1412.1790694565707,0.9994309956069205,0.0006136664500469187
1412.1860140269525,1412.1860140269525,1.0008102524677909,0.0006141623760808274
1412.1929585973337,1412.1929585973337,0.9990033805104952,0.0006135672851919055
1412.1999031676685,1412.1999031676685,0.9998493792876489,0.0006137614835958139
1412.2068477379805,1412.2068477379805,1.0006455402544183,0.000613947489993857
1412.2137923082448,1412.2137923082448,0.9998519317179204,0.0006137254753229052
1412.220736878464,1412.220736878464,0.9999447252942719,0.0006135139116096173
1412.2276814486818,1412.2276814486818,1.0000210899574025,0.0006136476285568211
1412.2346260188774,1412.2346260188774,1.0000655450352074,0.0006134849962098173
1412.2415705890023,1412.2415705890023,0.9995896668031385,0.000613184498189926
1412.2485151591045,1412.2485151591045,1.0003401197786668,0.0006134013486852471
1412.257126425989,1412.257126425989,1.0004352533381404,0.0006126847368430188
1412.2662932583985,1412.2662932583985,0.9995142126194343,0.0006123337956701366
1412.2765712219953,1412.2765712219953,1.0002626803652976,0.0006132439423071691
1412.2868491854765,1412.2868491854765,1.000778785807197,0.0006130662936440958
1412.2943493209393,1412.2943493209393,0.9998029514232296,0.0006126397737313763
1412.301293890786,1412.301293890786,0.9990820469255297,0.0006130287171202777
1412.3082384606078,1412.3082384606078,1.0004345645117994,0.0006133286932623792
1412.3151830303846,1412.3151830303846,0.9998077324762825,0.0006133618738102065
1412.3221276001366,1412.3221276001366,1.0001521276016663,0.0006134509416828904
1412.3290721697965,1412.3290721697965,0.9998706759145806,0.0006132537093992199
1412.3360167395492,1412.3360167395492,1.0001281347068893,0.0006137995597604658
1412.3429613091855,1412.3429613091855,0.9997133992870649,0.0006134444208040156
1412.3499058787293,1412.3499058787293,0.9998606566810343,0.0006128275716389187
1412.3568504483185,1412.3568504483185,1.0006359569424028,0.0006133983428497153
1412.363795017839,1412.363795017839,0.9997274974252252,0.0006133076441326908
1412.3707395873353,1412.3707395873353,0.9999497608766829,0.0006135454861957168
1412.3776841568322,1412.3776841568322,0.9999408650629189,0.0006137453290788153
1412.3846287262354,1412.3846287262354,0.9997759120811491,0.0006136715206744883
1412.3915732956157,1412.3915732956157,1.0010454611024628,0.0006139744553742661
1412.3985178649725,1412.3985178649725,0.9997344732654317,0.0006135723967244108
1412.4054624343064,1412.4054624343064,1.0000696829351567,0.0006137827305564771
1412.4124070035705,1412.4124070035705,0.9994636120711717,0.0006131571370606164
1412.4193515728107,1412.4193515728107,0.9987532487525449,0.0006132670091475929
1412.4262961420516,1412.4262961420516,1.000731023148847,0.0006139728066103841
1412.433240711222,1412.433240711222,1.0002135905270568,0.0006137950709230911
1412.4401852803696,1412.4401852803696,0.9997439514782313,0.000613638240496782
1412.4471298494238,1412.4471298494238,1.0008626901774342,0.0006138551408204688
1412.4540744184774,1412.4540744184774,0.9997122359568176,0.0006132324396534508
1412.4610189875325,1412.4610189875325,1.000297044156682,0.0006132379993581636
1412.467963556563,1412.467963556563,1.0000108991577281,0.0006131921878704373
1412.4749081255013,1412.4749081255013,0.9992734702962089,0.0006126961460393198
1412.4818526944389,1412.4818526944389,1.0005742044195245,0.0006133797767512025
1412.48879726333,1412.48879726333,1.0000071108900765,0.0006135676686500161
1412.4957418321753,1412.4957418321753,0.9998997875694833,0.0006136094997770102
1412.502686400973,1412.502686400973,0.9998080651964445,0.0006132726059872001
1412.5096309697715,1412.5096309697715,1.0001027165734349,0.0006137917088117563
1412.5165755384762,1412.5165755384762,0.9994219511837696,0.0006134884690915611
1412.523520107205,1412.523520107205,1.0011318534290494,0.0006139006755587844
1412.530464675863,1412.530464675863,1.0003575147188308,0.0006138684935183296
1412.5374092444752,1412.5374092444752,0.9998722436121202,0.000613679319999884
1412.5443538130635,1412.5443538130635,1.0003420517421524,0.0006136539467234591
1412.5512983816293,1412.5512983816293,1.000241554467136,0.0006137427922857174
1412.5582429501014,1412.5582429501014,0.9994140491811716,0.0006134597287179164
1412.5651875185729,1412.5651875185729,0.9998864671747079,0.0006135513159685839
1412.5721320870462,1412.5721320870462,1.0007960704735357,0.0006139165409054115
1412.5790766554708,1412.5790766554708,0.9999055134112742,0.0006136016367837276
1412.5860212238272,1412.5860212238272,1.0005271939814655,0.000613692102176283
1412.5929657921595,1412.5929657921595,1.000208134243532,0.0006137612653590834
1412.5999103604222,1412.5999103604222,1.0002423569034558,0.0006136236578812519
1412.6068549286852,1412.6068549286852,1.0005304732484865,0.0006138630090815962
1412.6137994969242,1412.6137994969242,0.9993730272833524,0.0006133594931138261
1412.620744065094,1412.620744065094,0.9995573909815241,0.0006134267763668095
1412.6276886332166,1412.6276886332166,0.9984185155895279,0.0006127065573183614
1412.6346332013168,1412.6346332013168,1.0004384419581147,0.000613740313461953
1412.6415777693924,1412.6415777693924,1.0012513109277674,0.0006138342146107181
1412.6485223374232,1412.6485223374232,1.000474283714043,0.0006137096108901229
1412.655466905406,1412.655466905406,1.0002178229809011,0.0006136740308355617
1412.6624114733427,1412.6624114733427,0.9990141799023162,0.0006134930386035343
1412.669356041233,1412.669356041233,0.9994376301664278,0.000613552925505637
1412.6763006091228,1412.6763006091228,1.0004184671823464,0.0006134556844737493
1412.683245176967,1412.683245176967,1.0009769759578362,0.0006133291312056522
1412.690189744763,1412.690189744763,0.9989519447425257,0.0006133950955732285
1412.6971343125144,1412.6971343125144,1.000127052016782,0.0006134967873990041
1412.7040788802642,1412.7040788802642,1.000210884939824,0.0006136088148471369
