time,time,flux,flux_err
1517.36457005546,1517.36457005546,1.000856366374815,0.00012477480288349642
1517.374755299856,1517.374755299856,1.0005078985258236,0.0001240883048754361
1517.3830886821172,1517.3830886821172,0.9989936008459547,0.00012352533824033283
1517.3907276162288,1517.3907276162288,0.9994538707325233,0.00011235388056283508
1517.398505440428,1517.398505440428,0.9998239316546156,0.00011177363946467835
1517.4060054855697,1517.4060054855697,0.9990977657688885,0.00011125258234571448
1517.4129499719888,1517.4129499719888,1.0000772425854882,0.00011099556482139898
1517.419894458781,1517.419894458781,1.0000324319024165,0.00011072388838215266
1517.4268389458061,1517.4268389458061,0.9998114068546997,0.0001104572889803647
1517.4337834330636,1517.4337834330636,0.9998764088973477,0.00011022290492397708
1517.4407279206011,1517.4407279206011,0.999836320124998,0.00010998928628743146
1517.4476724084175,1517.4476724084175,0.9999222069198016,0.0001097555000541683
1517.4546168964666,1517.4546168964666,1.0003262178574377,0.0001096004428067565
1517.4615613847022,1517.4615613847022,1.000009397534248,0.00010938587244906117
1517.4685058732175,1517.4685058732175,1.00001288074955,0.00010926457136443046
1517.4754503619188,1517.4754503619188,0.9998803190592873,0.00010909197233079741
1517.4823948508524,1517.4823948508524,1.0004872764557835,0.0001089799605670994
1517.489339339973,1517.489339339973,0.9996145985340986,0.00010878995451076782
1517.4962838293727,1517.4962838293727,1.0005246073192953,0.0001086955966689915
1517.503228318959,1517.503228318959,1.0000621525942108,0.0001085682439460891
1517.5101728087313,1517.5101728087313,0.9999501881796389,0.00010848845245122953
1517.5171172986898,1517.5171172986898,0.9998742988568285,0.00010839115300808371
1517.5240617888346,1517.5240617888346,0.9999084908572451,0.00010828404825575068
1517.531006279259,1517.531006279259,0.9999814443681123,0.00010821129350648368
1517.537950769683,1517.537950769683,0.9999060395731421,0.00010812467945121924
1517.5448952603867,1517.5448952603867,0.9998313735050047,0.00010805570024774833
1517.5518397512765,1517.5518397512765,1.0000892372088985,0.00010799569965017837
1517.5587842423065,1517.5587842423065,1.0000137442964705,0.00010790604779077646
1517.5657287334757,1517.5657287334757,1.0001197003793834,0.00010784840987123422
1517.5726732248309,1517.5726732248309,1.000160485923608,0.00010780684627247773
1517.5796177164193,1517.5796177164193,0.999839183327798,0.00010773487278442917
1517.5865622080078,1517.5865622080078,0.999964043860768,0.00010766826058841199
1517.5935066997822,1517.5935066997822,0.99995559361382,0.00010763467275845756
1517.600451191743,1517.600451191743,1.0001805410775397,0.0001075767119279783
1517.6073956838904,1517.6073956838904,0.9999130875609079,0.00010754412294013955
1517.6143401760842,1517.6143401760842,0.9998771377873803,0.00010747992577679979
1517.621284668418,1517.621284668418,0.999829752597759,0.000107435394054504
1517.628229160891,1517.628229160891,1.0002684014252263,0.0001074135030007892
1517.63517365355,1517.63517365355,0.9998264104013549,0.00010734667368749499
1517.6421181463024,1517.6421181463024,1.0000869662733363,0.0001073084745329985
1517.6490626391019,1517.6490626391019,1.0001898915456962,0.000107287640215911
1517.6560071320869,1517.6560071320869,1.0000577608829222,0.00010725056707713832
1517.6629516251658,1517.6629516251658,0.9998909000763174,0.0001071955518127949
1517.669896118384,1517.669896118384,1.0000356599039402,0.00010717023035888196
1517.6768406116485,1517.6768406116485,0.9998330321744332,0.00010713159168594243
1517.683785105053,1517.683785105053,1.0000884330832212,0.00010710713815923766
1517.690729598597,1517.690729598597,0.9997473418468209,0.00010707372010002926
1517.697674092188,1517.697674092188,0.9999151628995164,0.00010704271510511637
1517.7046185858717,1517.7046185858717,1.0001829566469382,0.00010700766300603455
1517.7115630796488,1517.7115630796488,1.0000069062321313,0.00010696323680193514
1517.7185075735651,1517.7185075735651,1.0004416356704984,0.0001069584960786469
1517.7254520674824,1517.7254520674824,0.9998174421606116,0.00010692072136277417
1517.7323965615851,1517.7323965615851,0.9996275577512375,0.00010686770422306446
1517.7393410557347,1517.7393410557347,1.0003509354087214,0.00010687642353288476
1517.7462855499307,1517.7462855499307,1.0003862833797188,0.0001068450906263181
1517.7532300442194,1517.7532300442194,0.9998112491622869,0.00010679888335700879
1517.7601745386023,1517.7601745386023,0.9997324900875337,0.00010676174230829524
1517.7671190330311,1517.7671190330311,0.9998834071072608,0.00010674082084979932
1517.7740635275532,1517.7740635275532,0.9998607081744023,0.00010674847161959444
1517.7810080221682,1517.7810080221682,0.9998851586394742,0.0001066947327275551
1517.7879525167834,1517.7879525167834,1.0000709833974708,0.0001066819821096048
1517.794897011538,1517.794897011538,1.0000990564207854,0.00010665784276056199
1517.801841506293,1517.801841506293,1.0002600049650245,0.00010665506022097687
1517.8087860011412,1517.8087860011412,1.0000501729672944,0.00010661600319248443
1517.8157304960828,1517.8157304960828,1.0001228950290262,0.00010659745057989037
1517.8226749909304,1517.8226749909304,1.000011379792573,0.00010658202884564155
1517.829619486011,1517.829619486011,0.9995209772824497,0.00010652922124891858
1517.836563981092,1517.836563981092,1.000198067830663,0.0001065516377246684
1517.8435084761727,1517.8435084761727,1.0000101439856734,0.00010652735149339189
1517.8504529713464,1517.8504529713464,1.0000255748827303,0.000106501142531742
1517.8573974665674,1517.8573974665674,0.9999245645414596,0.00010648546550386798
1517.8643419618343,1517.8643419618343,0.999733611063857,0.00010645727986154986
1517.8712864571012,1517.8712864571012,1.000048604990879,0.00010646951603469803
1517.8782309524618,1517.8782309524618,1.0001067952463214,0.0001064386591849769
1517.8851754478685,1517.8851754478685,1.000235687883502,0.00010644161180818807
1517.892119943275,1517.892119943275,1.000084482755095,0.0001064170019869441
1517.8990644387754,1517.8990644387754,0.9999201091546006,0.00010641053751701581
1517.9060089342286,1517.9060089342286,1.000035050853822,0.00010640055218598887
1517.9129534297754,1517.9129534297754,1.0000289319868962,0.00010639045231586073
1517.919897925368,1517.919897925368,0.9997203321983912,0.00010635895584949035
1517.926842420961,1517.926842420961,0.9999222339883673,0.00010637310590735577
1517.9337869166006,1517.9337869166006,1.0001324095970765,0.0001063650824540533
1517.9412869718933,1517.9412869718933,0.9999778823963836,0.00010631883225527496
1517.9490648070823,1517.9490648070823,0.9998157636062558,0.00010634585096510236
1517.9560093028153,1517.9560093028153,0.9997727726323229,0.00010632268237036478
1517.9629537985943,1517.9629537985943,1.0001271554171898,0.00010634209717484833
1517.9698982943275,1517.9698982943275,1.000159080680588,0.00010632681543813723
1517.9768427901531,1517.9768427901531,1.0003556747776945,0.00010632066475861057
1517.9837872859794,1517.9837872859794,0.9999520522917914,0.00010630088894339556
1517.990731781805,1517.990731781805,0.9999562667013743,0.00010628986891446073
1517.9976762776773,1517.9976762776773,1.0003708339992214,0.00010628239361703328
1518.00462077355,1518.00462077355,0.9997775805593709,0.00010628771360178803
1518.0115652694226,1518.0115652694226,0.9998467771318917,0.00010626620604017993
1518.0185097653412,1518.0185097653412,0.9999093337579303,0.00010627301965668004
1518.0254542613068,1518.0254542613068,0.9996629309928193,0.00010628197175957973
1518.032398757226,1518.032398757226,1.000156224318586,0.00010629530344373722
1518.0393432531914,1518.0393432531914,1.0002261991389678,0.00010627473093725683
1518.0462877491573,1518.0462877491573,0.9999329572368418,0.00010629785782997028
1518.053232245123,1518.053232245123,1.0002980088574531,0.00010629931180055997
1518.060176741135,1518.060176741135,1.0001389576337434,0.00010629469869568979
1518.0671212371005,1518.0671212371005,0.9996239353534406,0.00010626841406139848
1518.0740657331125,1518.0740657331125,1.0002077698470153,0.00010626768785409701
1518.0810102291248,1518.0810102291248,0.9997785248021076,0.00010625697796235825
1518.0879547251366,1518.0879547251366,0.9997895627302672,0.00010625901567264753
1518.094899221149,1518.094899221149,1.0001122949125139,0.00010627622049863531
1518.101843717161,1518.101843717161,0.9997888067137122,0.00010624827758930052
1518.10878821322,1518.10878821322,1.000171747959319,0.00010627917152940966
1518.115732709232,1518.115732709232,1.0003156085264948,0.00010627766982103905
1518.1226772052905,1518.1226772052905,0.9997779774634219,0.00010624696496048935
1518.1296217013028,1518.1296217013028,0.9998442010126565,0.00010624220874077354
1518.1365661973614,1518.1365661973614,1.0002245079597212,0.00010625414331827624
1518.1435106934202,1518.1435106934202,1.0003136166772724,0.00010626040208127537
1518.150455189432,1518.150455189432,0.9998954571056332,0.00010622505526999772
1518.1573996854913,1518.1573996854913,0.999765528386732,0.00010625249908398978
1518.1643441815029,1518.1643441815029,0.9998189825300994,0.00010622837269701698
1518.1712886775153,1518.1712886775153,1.0000891564088497,0.00010627391512141807
1518.1782331735742,1518.1782331735742,0.999779956827273,0.0001062635216554629
1518.1851776695862,1518.1851776695862,1.00020623577984,0.00010624999345770589
1518.1921221655982,1518.1921221655982,1.0002558067942766,0.00010621840879049246
1518.1990666616105,1518.1990666616105,1.0000006525363572,0.00010625711170045497
1518.2060111576225,1518.2060111576225,1.000008534848454,0.00010626763577526836
1518.212955653588,1518.212955653588,0.9998069282155994,0.00010625083704238886
1518.2199001495537,1518.2199001495537,1.0000189266050994,0.00010623702995411566
1518.226844645566,1518.226844645566,1.0000295078349768,0.00010625817486195289
1518.2337891415314,1518.2337891415314,0.9998794614243446,0.00010624745981561436
1518.2407336374972,1518.2407336374972,0.9997812033327118,0.00010624540961592317
1518.2476781334626,1518.2476781334626,1.000145234867666,0.00010624444129246021
1518.2546226293819,1518.2546226293819,1.0000945678011275,0.00010627329474229814
1518.2615671253006,1518.2615671253006,1.0002825991316462,0.00010627778935971984
1518.2696227405722,1518.2696227405722,1.000077429033735,0.00010622746755581847
1518.2768450163414,1518.2768450163414,1.0000105768178094,0.0001062754621262381
1518.2837895121668,1518.2837895121668,0.999996359636478,0.00010629193861806291
1518.2907340080396,1518.2907340080396,0.9997027730357049,0.00010625261165504696
1518.2976785039118,1518.2976785039118,0.9996352230256633,0.00010627400787435479
1518.3046229997376,1518.3046229997376,0.9998890551982577,0.00010626275661907159
1518.3124008351128,1518.3124008351128,0.9998874663353032,0.0001062809439233406
1518.3199008905453,1518.3199008905453,0.9998329445238575,0.00010626560598518068
1518.3268453863245,1518.3268453863245,1.0001063285765486,0.0001062930697865052
1518.3337898821042,1518.3337898821042,0.9998875407988284,0.00010628195431486528
1518.340734377883,1518.340734377883,1.0002390709143965,0.00010630469239447924
1518.3476788735697,1518.3476788735697,1.000287193269829,0.00010629531677474741
1518.3546233693492,1518.3546233693492,0.9999953497046089,0.00010630107001530358
1518.3615678650349,1518.3615678650349,0.9998235605497587,0.00010630663148880319
1518.368512360675,1518.368512360675,0.9997665391633561,0.00010629248039090745
1518.3754568563606,1518.3754568563606,0.9995698450472135,0.00010626051534920343
1518.3824013520002,1518.3824013520002,1.0003902549786636,0.0001062955034146729
1518.3893458476866,1518.3893458476866,0.9999241956062003,0.00010629341918226832
1518.396290343233,1518.396290343233,1.0003641777596983,0.0001062871710790849
1518.403234838826,1518.403234838826,1.0001870813722542,0.00010627557563950443
1518.4104571141756,1518.4104571141756,1.0000308375325972,0.00010627945216190607
1518.4185127290286,1518.4185127290286,1.0000705406080703,0.00010626118645882415
1518.4254572245286,1518.4254572245286,0.9994751252953431,0.00010625437129131681
1518.4324017200283,1518.4324017200283,1.000312011798258,0.00010630017449325271
1518.4393462154815,1518.4393462154815,0.9992542827254386,0.00010623934148326858
1518.4462907108887,1518.4462907108887,0.999484357448637,0.00010628692973017816
1518.4532352063418,1518.4532352063418,1.0003209327462304,0.0001063292280905104
1518.461013041158,1518.461013041158,0.9998884781777001,0.00010625890832501362
1518.4685130961716,1518.4685130961716,1.0000546767133773,0.0001062778320038589
1518.4754575914853,1518.4754575914853,1.0003246140892181,0.00010630938562255363
1518.4824020867989,1518.4824020867989,1.0002951178411543,0.00010630511392445757
1518.489346582066,1518.489346582066,0.9998401622500392,0.00010629359129432079
1518.496291077333,1518.496291077333,1.000061219681926,0.00010630118436895238
1518.5032355726003,1518.5032355726003,0.9998087003976643,0.00010625434404047703
1518.5101800677273,1518.5101800677273,1.0001550519854647,0.00010627145029655844
1518.5171245629479,1518.5171245629479,0.9999653217569214,0.0001062596747896286
1518.5240690581218,1518.5240690581218,0.999814102800596,0.00010627228621699425
1518.5310135532027,1518.5310135532027,0.9998667440102939,0.00010627182727396109
1518.5379580482834,1518.5379580482834,1.000049972697187,0.00010627365986178058
1518.544902543364,1518.544902543364,1.0002739445124242,0.00010627816905352209
1518.5518470384454,1518.5518470384454,0.9999920086712905,0.00010626996840743242
1518.558791533386,1518.558791533386,1.0001196164448778,0.00010628622126935428
1518.5657360283742,1518.5657360283742,1.0000183051750249,0.00010626792755535249
1518.5726805233148,1518.5726805233148,0.9996369304145081,0.00010626191206628859
1518.5796250182561,1518.5796250182561,1.000048499413303,0.00010626194594797736
1518.5865695131506,1518.5865695131506,0.9999880136322528,0.00010625132461636937
1518.5935140079987,1518.5935140079987,1.000222513508879,0.00010626249866940097
1518.6004585028004,1518.6004585028004,0.9994757560033728,0.0001062405975670961
1518.6074029976014,1518.6074029976014,1.000117390421389,0.00010626901759460468
1518.6143474924029,1518.6143474924029,1.0002662891279557,0.00010627381731996006
1518.6212919870645,1518.6212919870645,0.9995666219099206,0.0001062519950983184
1518.628236481773,1518.628236481773,0.9996781611881825,0.00010628199712149256
1518.6351809764813,1518.6351809764813,1.0000374075649763,0.00010630076601230867
1518.6421254710967,1518.6421254710967,1.0003549356392962,0.00010630792075063792
1518.6490699657115,1518.6490699657115,1.0001631733512888,0.00010628962518823308
1518.6560144602802,1518.6560144602802,0.9998763329605375,0.00010628091362658997
1518.6629589548024,1518.6629589548024,1.0004123292621392,0.00010631498388644165
1518.6699034492772,1518.6699034492772,0.9994044924617043,0.00010629813035030944
1518.6768479437997,1518.6768479437997,1.0003555851775678,0.00010630876082741971
1518.6837924382748,1518.6837924382748,0.999440103797917,0.00010630756165075567
1518.6907369326575,1518.6907369326575,0.9999685273832164,0.00010632134280246195
1518.6976814270397,1518.6976814270397,1.000287882151238,0.00010633933594797903
1518.7046259213753,1518.7046259213753,1.0000760314442696,0.00010633860920231019
1518.7115704156647,1518.7115704156647,1.0001452751517028,0.00010631944765757085
1518.718514909954,1518.718514909954,0.9997249807750206,0.00010626453203539542
1518.7254594041965,1518.7254594041965,1.0001130062484165,0.00010634614819840674
1518.7324038983922,1518.7324038983922,0.9999816356632957,0.00010631279196203429
1518.739348392542,1518.739348392542,1.0001223958211738,0.00010634566567036694
1518.7462928866912,1518.7462928866912,1.0000350923201184,0.0001063503466223195
1518.753237380748,1518.753237380748,1.0000378687438027,0.000106346628547496
1518.7601818748044,1518.7601818748044,0.9999638776397581,0.0001063327737379546
1518.7671263688603,1518.7671263688603,1.0000822437329302,0.00010633805480404666
1518.7740708628705,1518.7740708628705,0.9997776072730227,0.00010633043377874286
1518.781015356787,1518.781015356787,1.0001071066602476,0.00010635320408932143
1518.7879598507036,1518.7879598507036,0.9999581564162467,0.00010633914106681185
1518.7949043446204,1518.7949043446204,0.9995866968888363,0.00010629630553303359
1518.8018488383973,1518.8018488383973,0.9998457854998902,0.00010633322558366981
1518.8087933322204,1518.8087933322204,1.000642445724697,0.0001063685316970338
1518.815737825998,1518.815737825998,1.0000801681297582,0.00010633008460990106
1518.822682319728,1518.822682319728,1.000664969640432,0.00010632952287259233
1518.829626813412,1518.829626813412,0.9998990442305367,0.00010631371891724238
1518.8365713070496,1518.8365713070496,0.9999130273403877,0.00010631971670247204
1518.8435158006864,1518.8435158006864,0.9998463010223123,0.00010632596463031131
1518.8504602942307,1518.8504602942307,0.9998085013849464,0.00010629261261591238
1518.8574047877748,1518.8574047877748,0.9999278842043504,0.00010633111736082417
1518.864349281319,1518.864349281319,1.0002148090078653,0.00010633397836891999
1518.8712937747696,1518.8712937747696,1.0003687569138553,0.00010634364971815941
1518.878238268174,1518.878238268174,0.9998702945424098,0.00010633713120296567
1518.8851827616252,1518.8851827616252,1.0000578958605348,0.00010631846889326961
1518.8921272549828,1518.8921272549828,1.000018233378822,0.00010632489970113939
1518.899071748248,1518.899071748248,0.9997886598832091,0.00010633181858197816
1518.9060162415124,1518.9060162415124,0.9997901227792705,0.000106322397871569
1518.9129607347772,1518.9129607347772,0.9998352518235007,0.00010633889237735084
1518.9199052279487,1518.9199052279487,0.9999631535320512,0.00010636140798339245
1518.9268497211203,1518.9268497211203,0.9999763272879175,0.00010636181260853098
1518.9337942142454,1518.9337942142454,1.0001987618200434,0.00010636220475418814
1518.9407387072774,1518.9407387072774,1.0003850982014804,0.00010636474792281565
1518.9476832003559,1518.9476832003559,0.9999578790932102,0.00010636543980310255
1518.954627693341,1518.954627693341,1.0000093570755624,0.0001063525440315168
1518.9615721862804,1518.9615721862804,0.9998742526586316,0.0001063440039469883
1518.9685166792187,1518.9685166792187,1.0004482464822189,0.00010638050248719189
1518.9754611720177,1518.9754611720177,0.9998974259988993,0.00010638388854138854
1518.9824056649566,1518.9824056649566,0.9996486823771594,0.00010638295663449625
1518.9893501577558,1518.9893501577558,0.9998478049235591,0.00010637202607133958
1518.9962946505086,1518.9962946505086,0.999648934378075,0.0001063659022710599
1519.0032391432608,1519.0032391432608,1.0000950786466012,0.00010635911661068938
1519.0101836357803,1519.0101836357803,1.0000840499470087,0.0001063875146702797
1519.017128128533,1519.017128128533,0.9999033427359795,0.00010637169663583383
1519.0240726210527,1519.0240726210527,1.0002562667267483,0.00010635858236921167
1519.0310171136184,1519.0310171136184,1.0002088664790114,0.0001063500613949747
1519.0379616061387,1519.0379616061387,1.000115013076719,0.00010636176476219703
1519.044906098565,1519.044906098565,0.9996907919854469,0.00010633165481618512
1519.051850591038,1519.051850591038,1.0003151608630427,0.00010638129023910389
1519.058795083418,1519.058795083418,1.0000906159540455,0.00010635342168876002
1519.0657395757512,1519.0657395757512,1.0001302357388429,0.00010637507519056283
1519.0726840680381,1519.0726840680381,0.9995746088141824,0.00010637001947688793
1519.079628560325,1519.079628560325,0.9997959269086699,0.0001063483274897704
1519.0865730525188,1519.0865730525188,0.9997626254309772,0.00010637540340319644
1519.093517544666,1519.093517544666,1.0002376865808358,0.00010637861707204216
1519.1004620368594,1519.1004620368594,0.9996080678064807,0.0001063805281451272
1519.1074065289135,1519.1074065289135,1.0003070214830845,0.00010639555693838754
1519.1143510209674,1519.1143510209674,1.0003534038247772,0.00010640852005338623
1519.121295512975,1519.121295512975,1.0000712619697558,0.0001064150977397174
