time,time,flux,flux_err
1385.951025923909,1385.951025923909,0.9999790073276559,0.0006861817206733044
1385.9593590956922,1385.9593590956922,1.0000286491267245,0.0006859255011410377
1385.9676922674942,1385.9676922674942,0.9998718439201962,0.0006857386484094017
1385.9760254393252,1385.9760254393252,1.0001874078372575,0.0006858754545479436
1385.9836641802008,1385.9836641802008,1.0010039235667718,0.0006262576579854387
1385.9906084900897,1385.9906084900897,0.9995774663669043,0.0006258571174715549
1385.9975528000136,1385.9975528000136,1.000420073071047,0.0006259552187499696
1386.0044971099503,1386.0044971099503,1.0001827748894825,0.0006260157947692647
1386.0114414199093,1386.0114414199093,1.0008605007533617,0.0006257473119229938
1386.0183857298919,1386.0183857298919,1.0000378517442676,0.0006257473410679416
1386.025330039863,1386.025330039863,0.9991592972785727,0.000625588023938453
1386.0322743498923,1386.0322743498923,1.0000512837009474,0.0006257601153538604
1386.0392186599208,1386.0392186599208,1.000525003476672,0.0006258365901608651
1386.0461629699855,1386.0461629699855,0.9993314681501339,0.0006256664724209702
1386.05310728005,1386.05310728005,0.9998425219075144,0.0006256366660763511
1386.0600515901483,1386.0600515901483,0.9997765855772677,0.0006256608770416168
1386.0669959002475,1386.0669959002475,0.9999371139246745,0.0006256615346735743
1386.0739402103818,1386.0739402103818,0.9999162249562751,0.0006255944462646991
1386.0808845205268,1386.0808845205268,1.0006790944098143,0.0006256987111702536
1386.0878288306958,1386.0878288306958,0.9997467682201913,0.0006255547830868872
1386.094773140865,1386.094773140865,1.0005773374256366,0.0006258882149786729
1386.1017174510685,1386.1017174510685,1.0002056255843077,0.0006258371470110946
1386.1086617612834,1386.1086617612834,0.9998092290853021,0.0006256678139188085
1386.1156060715343,1386.1156060715343,0.9995651887150625,0.0006255851817058971
1386.1225503817845,1386.1225503817845,1.0004788124908224,0.0006256366526804632
1386.1294946920464,1386.1294946920464,0.9995568697751374,0.0006254001993135572
1386.1364390023673,1386.1364390023673,1.000029450766446,0.0006256211651433116
1386.1433833126407,1386.1433833126407,0.9990452191108282,0.0006254593697460601
1386.1503276230064,1386.1503276230064,0.9998106239194092,0.0006255570995084693
1386.1572719333276,1386.1572719333276,1.0011372613910048,0.0006258456255870792
1386.1642162436947,1386.1642162436947,1.0005464662245298,0.000625773268045539
1386.1711605540722,1386.1711605540722,0.9999056591548076,0.0006254994215100368
1386.1781048644743,1386.1781048644743,1.0002259138124856,0.0006255462012399026
1386.1850491748878,1386.1850491748878,0.9991561091991251,0.0006253393939280756
1386.1919934853238,1386.1919934853238,0.9996748720370203,0.0006251731582081497
1386.1989377957839,1386.1989377957839,1.0005293227660466,0.0006254907376172038
1386.205882106256,1386.205882106256,1.0002374965850285,0.0006255483319648119
1386.2128264167272,1386.2128264167272,0.9992398254894175,0.0006252167904437911
1386.219770727233,1386.219770727233,0.9992534120017176,0.0006253118727728127
1386.2267150377636,1386.2267150377636,0.9996331893883685,0.0006254638541223653
1386.2336593482935,1386.2336593482935,1.0001602717020548,0.0006253846417218869
1386.2406036588575,1386.2406036588575,1.000206767541418,0.0006254065317446622
1386.2475479694228,1386.2475479694228,0.9998566428930149,0.0006254490544240393
1386.2544922800225,1386.2544922800225,1.0009647309726883,0.0006257698232957274
1386.261436590633,1386.261436590633,1.0002145387622776,0.0006255689673164432
1386.2683809012447,1386.2683809012447,0.9999172000093569,0.0006256892545479587
1386.275325211903,1386.275325211903,0.999653082157776,0.0006256003585842578
1386.28226952256,1386.28226952256,1.000113237644026,0.0006257566557129174
1386.2892138332295,1386.2892138332295,0.9996657685414849,0.0006255096718496538
1386.2961581439226,1386.2961581439226,0.9993124136328518,0.0006256420270851458
1386.3031024546385,1386.3031024546385,0.9994303167156197,0.0006254216962330322
1386.3100467653658,1386.3100467653658,0.9999452362462387,0.0006256818552845518
1386.3169910761171,1386.3169910761171,1.00119120241767,0.0006259963511761996
1386.3239353868798,1386.3239353868798,1.0000625829783154,0.0006258107208337389
1386.3308796976535,1386.3308796976535,0.9996493382052243,0.0006255084145473179
1386.3378240084396,1386.3378240084396,1.0000779270515774,0.0006257904962401764
1386.3447683192612,1386.3447683192612,1.0007416434247562,0.0006257168607134661
1386.3517126300808,1386.3517126300808,1.0001440277790292,0.000625656824273846
1386.3586569409256,1386.3586569409256,0.9995599312202635,0.0006256959209980232
1386.3667123415257,1386.3667123415257,0.9997626831254072,0.000625613150245657
1386.3739344248636,1386.3739344248636,1.0001993463130643,0.0006257476947767913
1386.3808787357661,1386.3808787357661,0.9997895964423528,0.0006256443441798228
1386.3878230466687,1386.3878230466687,0.9997725229250161,0.0006258322023817359
1386.3947673575706,1386.3947673575706,1.0004602257583435,0.0006258071141562698
1386.401711668531,1386.401711668531,1.0000531860936857,0.000625629783072928
1386.40865597948,1386.40865597948,0.9993424564944411,0.0006257119239414802
1386.4156002904756,1386.4156002904756,1.000259932193257,0.0006257651278419268
1386.4225446014589,1386.4225446014589,1.0005339872449728,0.0006257999198003671
1386.429488912478,1386.429488912478,0.9999180211136356,0.0006257284089757622
1386.4364332234975,1386.4364332234975,0.9995083243414655,0.0006256436796343599
1386.4433775345385,1386.4433775345385,0.9995026924913286,0.0006256916797198083
1386.450321845592,1386.450321845592,1.000422328510607,0.0006256688180382015
1386.4572661566694,1386.4572661566694,0.9998198062168038,0.0006257261407999959
1386.4642104677573,1386.4642104677573,1.0008194413594456,0.0006257744128274085
1386.4711547788695,1386.4711547788695,0.9992159144654259,0.0006254479128254642
1386.4780990899933,1386.4780990899933,1.0007694414557549,0.0006257203379399443
1386.4850434011282,1386.4850434011282,0.9995601831921647,0.0006254724464557069
1386.491987712298,1386.491987712298,1.00023737482493,0.0006257528639920547
1386.4989320234333,1386.4989320234333,0.9996619210151245,0.0006254200853211074
1386.5058763346271,1386.5058763346271,1.000299849166329,0.000625718551435968
1386.5128206458198,1386.5128206458198,0.9998730232054474,0.0006256376481454433
1386.5197649570596,1386.5197649570596,0.9997840181671294,0.0006255344613791908
1386.5267092682766,1386.5267092682766,0.9995840341104894,0.0006256167674969307
1386.5336535795277,1386.5336535795277,1.0004217870768843,0.0006257419218372291
1386.5405978907909,1386.5405978907909,1.0005480836986838,0.0006258430611837023
1386.5475422020666,1386.5475422020666,0.9997872486824644,0.0006254525238759512
1386.5544865133643,1386.5544865133643,0.9993680346764465,0.0006253366198922116
1386.5622641420284,1386.5622641420284,1.000678016378775,0.0006258315338890663
1386.5697639982575,1386.5697639982575,0.9999787890704095,0.0006255912959638015
1386.5767083096023,1386.5767083096023,0.9992849638056496,0.0006256143790485415
1386.5836526209575,1386.5836526209575,0.9999085153196571,0.0006255783741389782
1386.5905969323262,1386.5905969323262,1.000625445881096,0.0006258200259559693
1386.5975412437176,1386.5975412437176,1.0008307460039751,0.0006256320115082695
1386.6044855551202,1386.6044855551202,0.9997904936921724,0.0006255253879856304
1386.6114298665345,1386.6114298665345,0.999264339234686,0.0006255291007435072
1386.6183741779612,1386.6183741779612,1.0003483263879862,0.0006257561860138841
1386.6253184894224,1386.6253184894224,0.9993274829692602,0.0006256842734092246
1386.6322628008713,1386.6322628008713,1.000144651277925,0.0006256421995457261
1386.6392071123325,1386.6392071123325,0.9998945653825,0.0006258257812376521
1386.6461514238406,1386.6461514238406,1.0003169545053452,0.0006256920271048949
1386.653095735359,1386.653095735359,0.9998643508221541,0.0006255801315818239
1386.6600400468674,1386.6600400468674,1.0009656093891048,0.0006259293727520684
1386.6669843584102,1386.6669843584102,0.9999764740025503,0.0006256808257125758
1386.6739286699524,1386.6739286699524,0.999601906362428,0.0006256394593834896
1386.680872981518,1386.680872981518,0.9992746827284547,0.0006256993944959542
1386.6878172931076,1386.6878172931076,1.00083939961915,0.0006259353235646122
1386.6947616046966,1386.6947616046966,0.9999226915598964,0.0006256803901744314
1386.7017059163086,1386.7017059163086,1.0006020581129904,0.0006258558571788983
1386.7086502279212,1386.7086502279212,0.9988765450708289,0.0006256966756013574
1386.715594539569,1386.715594539569,0.9999852077147169,0.0006258280100243151
1386.7225388512156,1386.7225388512156,0.999839611664474,0.0006257044117469997
1386.7294831628865,1386.7294831628865,0.9994671724871725,0.0006256585594525191
1386.7364274745696,1386.7364274745696,1.000120656651089,0.0006257974981245362
1386.743371786263,1386.743371786263,1.0006479771386707,0.0006257200395212053
1386.750316097968,1386.750316097968,0.9999413215650472,0.0006257101313871007
1386.7572604096974,1386.7572604096974,0.9999666811668959,0.0006258346130773114
1386.7642047214383,1386.7642047214383,1.0004745380571127,0.0006258179205349296
1386.7719823505909,1386.7719823505909,0.9999249502736094,0.0006258241124500836
1386.7794822072858,1386.7794822072858,0.9999127990495287,0.0006257716310100828
1386.7864265190728,1386.7864265190728,1.0002313717622564,0.0006258426181716475
1386.7933708308942,1386.7933708308942,1.0003466998749309,0.0006256793673873912
1386.800315142693,1386.800315142693,0.9992250311315487,0.0006255674451305886
1386.8072594545154,1386.8072594545154,1.000588887438391,0.0006259470626632853
1386.8142037663608,1386.8142037663608,0.9992623634379909,0.0006257028109345681
1386.8211480782056,1386.8211480782056,0.9996347289106502,0.0006257885524227147
1386.8280923900859,1386.8280923900859,1.0008222686841137,0.0006260699809865623
1386.8350367019552,1386.8350367019552,0.9998983523422902,0.0006257250111686549
1386.841981013846,1386.841981013846,0.9993781181682575,0.0006255704778314727
1386.8489253257499,1386.8489253257499,0.9997884186486399,0.0006258815317464241
1386.855869637677,1386.855869637677,1.000267364137594,0.0006257769728131369
1386.8628139496152,1386.8628139496152,1.0005092684867996,0.0006259263972126755
1386.8697582615648,1386.8697582615648,1.0003091963139048,0.0006259054152879134
1386.8767025735153,1386.8767025735153,1.0003162264238357,0.0006259027011528133
1386.8836468855004,1386.8836468855004,1.0005913626289682,0.0006261058680864374
1386.8905911974848,1386.8905911974848,0.999067920357564,0.0006255425843760317
1386.897535509493,1386.897535509493,0.9995545528724371,0.0006257484155505076
1386.9044798215134,1386.9044798215134,0.9993733213515913,0.0006259133497689936
1386.911424133533,1386.911424133533,1.000674122691144,0.0006260440056859991
1386.9183684455877,1386.9183684455877,1.0002266964964721,0.0006260080225018374
1386.9253127576544,1386.9253127576544,0.9999196094072469,0.0006259797130875051
1386.9322570697211,1386.9322570697211,0.9994171587335205,0.0006256709776911962
1386.9392013817865,1386.9392013817865,1.000181990485308,0.0006259484533571169
1386.9461456938886,1386.9461456938886,1.000091669384776,0.0006257448213947274
1386.9530900060022,1386.9530900060022,0.9997492505992801,0.0006257918522964347
1386.9600343181262,1386.9600343181262,0.9999326416236067,0.0006258467760879582
1386.9669786302509,1386.9669786302509,1.0005910025243614,0.0006258318942882335
1386.9739229424108,1386.9739229424108,1.0000002067093177,0.0006258670315145229
1386.9822561170072,1386.9822561170072,1.00065121168439,0.0006259352817593018
1386.9892004291776,1386.9892004291776,0.9992704154485523,0.0006256040717100163
1386.9961447413725,1386.9961447413725,1.0003824900411822,0.0006258552924176791
1387.0030890535675,1387.0030890535675,0.999263944033817,0.0006257193302777854
1387.0100333657842,1387.0100333657842,1.0005764086661952,0.000625867057430633
1387.0169776780256,1387.0169776780256,1.0003631501680457,0.0006258971627361974
1387.0239219902792,1387.0239219902792,1.0000620186999682,0.0006259549943316811
1387.03086630252,1387.03086630252,0.9995367423716408,0.0006258549457364238
1387.037810614784,1387.037810614784,1.0001067887541313,0.0006258088618338987
1387.0447549270716,1387.0447549270716,0.9996826358154911,0.000625813864214555
1387.05169923936,1387.05169923936,0.9992161391362753,0.0006256752222983872
1387.0586435516932,1387.0586435516932,0.9998900472601508,0.0006258145894307602
1387.065587863958,1387.065587863958,1.0010340609923887,0.0006261198127002708
1387.072532176316,1387.072532176316,0.9995301575392951,0.0006256134632812309
1387.0794764886732,1387.0794764886732,1.0002141454062474,0.0006257643308330956
1387.08642080103,1387.08642080103,1.0005972947600608,0.0006258324933183816
1387.093365113388,1387.093365113388,1.0003515874993005,0.0006258002632780933
1387.1003094257462,1387.1003094257462,0.9991683216321482,0.0006255720450948302
1387.107253738196,1387.107253738196,1.0002004545508787,0.0006258289058085657
1387.1141980505768,1387.1141980505768,0.9999052499822223,0.0006256886869110669
1387.1211423630043,1387.1211423630043,0.9994871571944703,0.0006254056996594911
1387.1280866754084,1387.1280866754084,1.000820962016946,0.000625927831322396
1387.1350309878821,1387.1350309878821,0.9997136059252864,0.0006257049088517133
1387.1419753003331,1387.1419753003331,1.0000265709759966,0.0006258660484515505
1387.1489196128073,1387.1489196128073,0.9991447627459366,0.0006255488901159721
1387.1558639252808,1387.1558639252808,1.0004106239241846,0.0006260201769579453
1387.1628082378008,1387.1628082378008,1.0003820268260395,0.0006259054166228236
1387.1697525502989,1387.1697525502989,1.0004249310211748,0.0006258971933823757
1387.1766968627962,1387.1766968627962,0.9997441975812787,0.0006259275942795333
1387.183641175339,1387.183641175339,1.0000361283010162,0.000625819848781783
1387.1905854878598,1387.1905854878598,0.9999495620850395,0.000625949730546396
1387.1975298004274,1387.1975298004274,0.999755978955581,0.0006257472427928048
1387.2044741130173,1387.2044741130173,0.9999696933134302,0.0006259074058630664
1387.2114184255843,1387.2114184255843,1.000328926325573,0.0006257217344585467
1387.2183627381746,1387.2183627381746,0.9987987969912222,0.0006256234197443142
1387.2253070507657,1387.2253070507657,1.000494518547406,0.000625877870441451
1387.2322513633785,1387.2322513633785,1.0002424859691126,0.0006259195243501135
1387.2391956760155,1387.2391956760155,0.9999899461001427,0.0006257721908524249
1387.2461399886529,1387.2461399886529,0.999834571049534,0.0006257338147365136
1387.253084301313,1387.253084301313,1.0006692995993403,0.0006258899371475923
1387.260028613949,1387.260028613949,1.000114475551965,0.0006256888140501731
1387.2669729266565,1387.2669729266565,0.9998059050674806,0.0006257731826083866
1387.2739172393171,1387.2739172393171,1.0005165653077799,0.0006259517135992162
1387.280861552023,1387.280861552023,0.9995578015642751,0.0006258080113918748
1387.2878058647298,1387.2878058647298,1.0000242152256849,0.0006257860579700427
1387.2947501774602,1387.2947501774602,0.9993821174323901,0.0006257300902698931
1387.3016944901904,1387.3016944901904,0.9999776160400264,0.0006256840773188614
1387.310305438002,1387.310305438002,1.0003128381511597,0.0006261108175423473
1387.318360840803,1387.318360840803,1.000316921201173,0.0006259662250127729
1387.3253051535567,1387.3253051535567,0.9997799015771562,0.0006257813124706028
1387.3336383289204,1387.3336383289204,1.0000093577885996,0.0006258219499796225
1387.3405826417204,1387.3405826417204,0.9998128295542958,0.000625996964713471
1387.3483602720505,1387.3483602720505,1.0000404258205264,0.0006258030666403806
1387.3558601299083,1387.3558601299083,0.9997277926841127,0.0006257834359052495
1387.3628044427546,1387.3628044427546,0.9997479293350165,0.0006258011679062139
1387.3697487555783,1387.3697487555783,1.0004710492747857,0.000625773017734483
1387.3766930684249,1387.3766930684249,1.0003689809075262,0.0006257264264235548
1387.383637381317,1387.383637381317,1.000642993004693,0.0006257434246051874
1387.3905816941638,1387.3905816941638,0.9990878905653796,0.0006254860010618384
1387.3975260071038,1387.3975260071038,0.9990308971809643,0.0006254052536454926
1387.4044703199731,1387.4044703199731,1.0005638151893506,0.0006258420848132001
1387.4114146328661,1387.4114146328661,0.9995581577783609,0.0006256341314726813
1387.4183589458057,1387.4183589458057,1.0004625045121813,0.0006259161688134725
1387.425303258746,1387.425303258746,1.0010576882567062,0.0006259453765731703
1387.4322475716845,1387.4322475716845,1.0002132430323818,0.0006257783353672372
1387.4391918846245,1387.4391918846245,0.9999362221277384,0.000625834291630305
1387.4461361976346,1387.4461361976346,0.9999750141563852,0.000626015217523468
1387.4530805106203,1387.4530805106203,1.0001559671456084,0.0006259686355048135
1387.4600248235827,1387.4600248235827,0.9989743534387255,0.0006257918175112382
1387.4669691366157,1387.4669691366157,0.9996277877612567,0.0006257274709765015
1387.4739134496024,1387.4739134496024,0.9994378132438528,0.0006257632843936129
1387.480857762635,1387.480857762635,1.0006000282192145,0.0006259423067302251
1387.487802075667,1387.487802075667,1.0005221989619584,0.0006259070477956014
1387.4947463887233,1387.4947463887233,0.999533474669907,0.0006258619013411204
1387.50169070178,1387.50169070178,1.0006448952389673,0.0006259961749710769
1387.5086350148351,1387.5086350148351,1.0003298105942666,0.0006260018841180028
1387.5155793279146,1387.5155793279146,0.9996334892197112,0.0006256263016801995
1387.5225236410174,1387.5225236410174,1.0001978377795493,0.0006258566888584118
1387.529467954097,1387.529467954097,0.9995186192931602,0.0006255947694034695
1387.5364122672222,1387.5364122672222,1.0000441935257343,0.0006257516038415374
1387.5433565803485,1387.5433565803485,0.9992225387276044,0.0006255901562941984
1387.5503008934745,1387.5503008934745,0.9996203067230501,0.0006256201158101629
1387.5572452066237,1387.5572452066237,1.0002298435736634,0.0006256479163722622
1387.564189519772,1387.564189519772,1.0009322263681018,0.0006259687117338476
1387.5711338329218,1387.5711338329218,1.0009933253935823,0.000625797122646195
1387.5780781460946,1387.5780781460946,0.9992894327201185,0.0006255113036956839
1387.5850224592898,1387.5850224592898,1.0002120865571478,0.0006256691206783188
1387.591966772462,1387.591966772462,0.9997063448446829,0.0006256097730962529
1387.5989110857047,1387.5989110857047,1.0002530659372926,0.000625752851674806
1387.6058553989005,1387.6058553989005,0.9994571385893348,0.000625403862271718
1387.6127997120957,1387.6127997120957,0.9995261255354494,0.000625549066158467
1387.6197440253848,1387.6197440253848,0.99974924263729,0.000625443259856077
1387.6266883386274,1387.6266883386274,1.000582857975584,0.0006258120339298145
1387.6336326518697,1387.6336326518697,1.0001883702865866,0.0006257318459585335
1387.6405769651344,1387.6405769651344,1.0004916701045676,0.0006258880312297989
1387.647521278424,1387.647521278424,1.0000212140005644,0.0006256611202209544
1387.6544655917128,1387.6544655917128,0.9999377400616354,0.0006256182831891919
1387.6614099050014,1387.6614099050014,0.9997779410875165,0.0006256267249655876
1387.6683542183132,1387.6683542183132,0.9997028322901007,0.0006255715434562848
1387.675298531626,1387.675298531626,0.9996070197403613,0.0006255895661577794
1387.6822428449616,1387.6822428449616,0.9998026533797562,0.0006257218384412338
1387.6891871582961,1387.6891871582961,1.0006844825698242,0.000625876805154616
1387.6961314716316,1387.6961314716316,1.0000752127212555,0.0006257547672022778
1387.7030757850143,1387.7030757850143,0.9992154375486264,0.0006257120678944047
1387.7100200983732,1387.7100200983732,1.0002358784655867,0.0006257674396122646
1387.7169644117541,1387.7169644117541,0.9994824901559755,0.0006256621697036403
1387.7239087251364,1387.7239087251364,1.000532051827246,0.0006261080533962635
1387.7308530385421,1387.7308530385421,1.0000032386428592,0.0006258000143487592
