time,time,flux,flux_err
1385.9536932168587,1385.9536932168587,1.000127434386129,0.00030604387664144475
1385.9620267272555,1385.9620267272555,0.999826066090232,0.00030603416308203795
1385.9703602375932,1385.9703602375932,1.0001365559386584,0.0003060723494052051
1385.9779992886856,1385.9779992886856,1.000079408945012,0.00027943636461940735
1385.9849438805102,1385.9849438805102,0.9998195164215362,0.00027942776333091693
1385.9918884723572,1385.9918884723572,0.9998680915406981,0.0002794426415319792
1385.9988330641113,1385.9988330641113,1.0001484177323499,0.00027946930529660437
1386.0057776557728,1386.0057776557728,1.0003162189606187,0.00027950310251829665
1386.012722247457,1386.012722247457,0.9997713193846076,0.00027944399860611185
1386.0196668390943,1386.0196668390943,0.9996106974675596,0.0002794428624738331
1386.0266114306398,1386.0266114306398,0.9999910950602203,0.00027950537792871733
1386.0335560221845,1386.0335560221845,0.999981432485618,0.0002795222922605673
1386.0405006137053,1386.0405006137053,1.0000227074865027,0.00027951748885504505
1386.0474452051105,1386.0474452051105,1.0003078696567909,0.00027953405308962613
1386.0543897964928,1386.0543897964928,0.9998804181835463,0.0002794831896487948
1386.0613343878736,1386.0613343878736,1.000042809448908,0.00027951619606016
1386.0682789791626,1386.0682789791626,1.0000290949708632,0.0002794953831152854
1386.0752235704051,1386.0752235704051,1.0000597661813582,0.00027950366505985534
1386.082168161693,1386.082168161693,1.000083834710614,0.0002795045719746835
1386.089112752865,1386.089112752865,0.9998227354921176,0.0002794595746107108
1386.0960573439213,1386.0960573439213,0.9996034401508659,0.0002794492385391428
1386.1030019350233,1386.1030019350233,1.0003148218725815,0.00027952299867962797
1386.1099465260788,1386.1099465260788,1.0001261362667406,0.00027950129725280454
1386.1168911170419,1386.1168911170419,1.0001238413957814,0.0002794898823859374
1386.1238357080044,1386.1238357080044,0.9996609664400695,0.00027946311261533836
1386.1307802988733,1386.1307802988733,1.0006906978080343,0.00027957662979522717
1386.1377248897668,1386.1377248897668,0.9994940650801363,0.0002794165348784101
1386.1446694805668,1386.1446694805668,0.9999719147863804,0.00027949957514541903
1386.1516140713425,1386.1516140713425,1.000062388855452,0.0002795105553123954
1386.1585586620724,1386.1585586620724,0.999890426149516,0.0002794738318089478
1386.1655032527326,1386.1655032527326,0.9998459267153615,0.000279454271503879
1386.172447843322,1386.172447843322,0.9999434394065198,0.0002794982476994423
1386.1793924339124,1386.1793924339124,1.000285379474127,0.0002795520239770912
1386.186337024503,1386.186337024503,0.9999983865643394,0.0002795061313236165
1386.1932816149995,1386.1932816149995,1.0001974341844786,0.0002795218556047531
1386.2002262054496,1386.2002262054496,0.9999865252865865,0.0002794821383201206
1386.207170795854,1386.207170795854,0.9999017084583564,0.00027947813546449313
1386.2141153862344,1386.2141153862344,0.9995200360471497,0.0002794384722351374
1386.2210599765447,1386.2210599765447,1.0003360709880194,0.00027952949740080526
1386.2280045668092,1386.2280045668092,0.9997669873953926,0.0002794735589248306
1386.23494915705,1386.23494915705,0.9995138112063293,0.00027943969401103856
1386.2418937472205,1386.2418937472205,1.0008116943305871,0.0002796132693013972
1386.2488383373689,1386.2488383373689,0.9996730713727577,0.00027945704875344246
1386.2557829274936,1386.2557829274936,1.0006059350716454,0.0002795893128475878
1386.262727517501,1386.262727517501,0.9998535174861491,0.0002794869813678875
1386.2696721075092,1386.2696721075092,1.0001341324443842,0.0002795108306467086
1386.276616697494,1386.276616697494,1.0000847158995854,0.00027950244537303445
1386.2835612873855,1386.2835612873855,0.9993919172491573,0.00027942523871429586
1386.2905058772535,1386.2905058772535,0.9998598977096587,0.00027948651914305484
1386.2974504670758,1386.2974504670758,1.0002947511456453,0.00027953951606127464
1386.3043950568742,1386.3043950568742,1.0001837349293905,0.0002795429059987978
1386.311339646602,1386.311339646602,0.999405584422156,0.00027944363069306677
1386.318284236308,1386.318284236308,1.0002774591904902,0.00027954950805805014
1386.325228825944,1386.325228825944,1.0003076162870195,0.0002795542132370817
1386.3321734155552,1386.3321734155552,1.0002552650552723,0.0002795326404812598
1386.3391180051217,1386.3391180051217,0.9999687327263663,0.0002794887022814779
1386.3460625946175,1386.3460625946175,0.9994166822402833,0.00027941951876178336
1386.3530071841124,1386.3530071841124,0.9998821197657293,0.00027946995797569033
1386.3599517735388,1386.3599517735388,1.00025748689547,0.00027951082334754613
1386.3677297136267,1386.3677297136267,1.0003024027408494,0.0002795231796150008
1386.3752298700892,1386.3752298700892,1.0000542205108176,0.0002795063407958424
1386.3821744593758,1386.3821744593758,0.999634678083304,0.000279442611121517
1386.3891190486156,1386.3891190486156,0.9996816367541044,0.0002794366139890129
1386.396063637809,1386.396063637809,1.0001368956282923,0.0002795059202005012
1386.4030082269549,1386.4030082269549,1.000097221716445,0.00027949555502452476
1386.4099528160552,1386.4099528160552,0.9999377635447375,0.0002794767314473898
1386.4168974051322,1386.4168974051322,1.0003357325956455,0.00027954864520307615
1386.4238419941153,1386.4238419941153,1.0002672640238972,0.0002795228655848891
1386.4307865830988,1386.4307865830988,0.9999859330070417,0.0002795081746683727
1386.4377311720132,1386.4377311720132,0.9998310479400379,0.0002795011578425296
1386.4446757609262,1386.4446757609262,0.9998519695934837,0.0002795080250665665
1386.4516203497703,1386.4516203497703,1.0000041817175542,0.00027954262962901806
1386.458564938498,1386.458564938498,0.9995838882509277,0.00027949695591909015
1386.465509527272,1386.465509527272,1.0002221386146748,0.0002795678210683617
1386.4724541159758,1386.4724541159758,1.0005030469070006,0.00027956072244065915
1386.4793987046337,1386.4793987046337,0.9997218894660271,0.0002794924905278899
1386.486343293245,1386.486343293245,0.999639863305178,0.0002794898728507507
1386.4932878818088,1386.4932878818088,1.000116302843065,0.0002795353311699616
1386.5002324703269,1386.5002324703269,0.9998245104992087,0.0002795247950782036
1386.507177058822,1386.507177058822,1.0003433921009734,0.0002795481977397737
1386.5141216472462,1386.5141216472462,0.999996787708698,0.00027952111542020044
1386.5210662356478,1386.5210662356478,1.000055261857883,0.00027951491525908897
1386.528010824003,1386.528010824003,1.000303628380959,0.0002795266644121775
1386.5349554122881,1386.5349554122881,0.9997910320161949,0.00027946153647467095
1386.541900000549,1386.541900000549,0.9998527131266902,0.00027947683995379333
1386.5488445887652,1386.5488445887652,0.9998068325091086,0.0002794699849964799
1386.555789176934,1386.555789176934,1.0000002115843412,0.0002794976016595932
1386.5632893321163,1386.5632893321163,1.0000465244849719,0.00027953651183755345
1386.5710672707373,1386.5710672707373,1.0001350027174662,0.00027953477744080304
1386.5780118587663,1386.5780118587663,1.0003863420480785,0.0002795566637658914
1386.584956446748,1386.584956446748,0.9997965787771943,0.0002794913912081359
1386.591901034684,1386.591901034684,1.0002493411161524,0.0002795363280861962
1386.598845622597,1386.598845622597,0.999450225480113,0.00027944210684555614
1386.6057902104164,1386.6057902104164,0.9998587522883225,0.0002794793868752823
1386.6127347982354,1386.6127347982354,1.0000200265579724,0.00027951463190595385
1386.619679385962,1386.619679385962,1.0000571554808322,0.0002795177868700685
1386.6266239737354,1386.6266239737354,1.0002761203809032,0.00027954115139470326
1386.6335685613908,1386.6335685613908,1.0000659368557012,0.00027952191552363685
1386.6405131489778,1386.6405131489778,1.0000357089720855,0.00027955316378104557
1386.647457736588,1386.647457736588,0.9997031916064163,0.0002794846244214623
1386.6544023241272,1386.6544023241272,0.9999955355489935,0.0002795187091385922
1386.6613469116212,1386.6613469116212,0.9999520269963389,0.00027951072116749997
1386.6682914990683,1386.6682914990683,1.000018479575228,0.0002795238833309236
1386.6752360864682,1386.6752360864682,1.00004556645619,0.00027950773285379546
1386.6821806738221,1386.6821806738221,1.0003323096791448,0.0002795781737784034
1386.6891252611526,1386.6891252611526,0.9998397237517211,0.00027949373610604896
1386.6960698484136,1386.6960698484136,0.9999546456776403,0.000279516083173798
1386.70301443565,1386.70301443565,1.0001440250549023,0.00027954494183085214
1386.7099590228413,1386.7099590228413,0.9999477006287328,0.0002795205189923783
1386.7169036099626,1386.7169036099626,0.9997869073633643,0.0002795076975626604
1386.7238481970599,1386.7238481970599,0.9999051377275986,0.00027951104241968503
1386.7307927841105,1386.7307927841105,1.0001881509198276,0.00027955257458908944
1386.7377373711158,1386.7377373711158,0.9998405505190704,0.0002794963970951446
1386.7446819580737,1386.7446819580737,1.0003292797007055,0.0002795880667379579
1386.7516265449847,1386.7516265449847,0.9997183075403469,0.0002794799916571911
1386.758571131873,1386.758571131873,0.9996893389749779,0.0002795099976373591
1386.7655157186914,1386.7655157186914,1.0002644858885854,0.0002795689511377483
1386.773015872407,1386.773015872407,1.0002686482589946,0.0002795502104044423
1386.780793809561,1386.780793809561,0.999985889081253,0.0002795342022287147
1386.78773839624,1386.78773839624,1.0002428412416244,0.00027954668380449944
1386.794682982895,1386.794682982895,0.9995811333228138,0.0002794712490107053
1386.8016275695265,1386.8016275695265,1.0001716927526272,0.00027951815184192356
1386.8085721560424,1386.8085721560424,1.000091831463772,0.0002795436542224577
1386.8155167425584,1386.8155167425584,0.9998407608008222,0.000279471719234593
1386.82246132905,1386.82246132905,0.9998106924232657,0.00027951920842078296
1386.8294059154496,1386.8294059154496,0.9999772391982094,0.00027951977344637665
1386.8363505018256,1386.8363505018256,0.9997302239944267,0.0002795078310835383
1386.8432950881543,1386.8432950881543,1.0004943396236787,0.00027959007704846556
1386.8502396744605,1386.8502396744605,1.0003973016926653,0.0002795649472235436
1386.8571842606973,1386.8571842606973,0.9999221927358045,0.00027952439380365696
1386.86412884691,1386.86412884691,0.9997548551967783,0.0002795061305295134
1386.8710734330527,1386.8710734330527,1.0000589262970123,0.00027951083736546675
1386.8780180191725,1386.8780180191725,1.0000639841283372,0.000279528271642527
1386.8849626052463,1386.8849626052463,0.9999735866334134,0.000279521726239956
1386.8919071912953,1386.8919071912953,0.9997992774197859,0.0002795113612161742
1386.8988517772523,1386.8988517772523,0.9997332007454659,0.00027948558488407563
1386.9057963631863,1386.9057963631863,1.0000472239614662,0.0002795510422306183
1386.9127409490964,1386.9127409490964,1.0003690920394899,0.0002796049687306047
1386.919685534936,1386.919685534936,0.9996912360139392,0.0002795046981751157
1386.9266301207306,1386.9266301207306,1.0000496703806658,0.0002795435524887839
1386.9335747065013,1386.9335747065013,0.9999047962770311,0.0002795247003383646
1386.9405192922245,1386.9405192922245,1.0000771252267857,0.0002795148767046898
1386.9474638778788,1386.9474638778788,0.999964583671131,0.0002794910280506149
1386.9544084635331,1386.9544084635331,1.0004801904641316,0.00027956707006083586
1386.961353049094,1386.961353049094,0.9996137153485606,0.00027946701200086155
1386.9682976346548,1386.9682976346548,0.9997188533954965,0.00027946705977399905
1386.9752422201464,1386.9752422201464,1.0001581526283654,0.00027953635982727907
1386.9832979392709,1386.9832979392709,1.0003072970523301,0.000279573137552164
1386.9905203080818,1386.9905203080818,1.0003321967943097,0.0002795253113461953
1386.9974648934335,1386.9974648934335,0.9998955831869379,0.00027949748832499245
1387.0044094787622,1387.0044094787622,0.9998300223779844,0.0002794802276999041
1387.01135406402,1387.01135406402,0.9998477625049602,0.00027951829773446873
1387.0182986492316,1387.0182986492316,0.999562863018585,0.0002794756504134595
1387.0252432344205,1387.0252432344205,1.0000292169263632,0.0002795154631241957
1387.0321878195625,1387.0321878195625,1.0001137903716082,0.0002795306376511893
1387.0391324046338,1387.0391324046338,1.0000183001664258,0.00027949603634330354
1387.0460769897065,1387.0460769897065,1.0002378408705632,0.000279556989497868
1387.0530215746855,1387.0530215746855,0.9999006599550816,0.0002794906206335007
1387.059966159664,1387.059966159664,1.0000080603058294,0.00027950654833777374
1387.0669107445729,1387.0669107445729,1.000058550859523,0.00027950355208342326
1387.073855329436,1387.073855329436,0.9998781135092274,0.00027947241937054037
1387.0807999142753,1387.0807999142753,1.000406897033667,0.00027952357148908294
1387.0877444990438,1387.0877444990438,0.9999531691213972,0.0002794575568234754
1387.0946890838136,1387.0946890838136,0.9998004122166305,0.00027945459679307063
1387.1016336684902,1387.1016336684902,1.0001983360781064,0.00027949445194102126
1387.1085782531425,1387.1085782531425,0.9995660995937943,0.0002794316190883559
1387.1155228377256,1387.1155228377256,0.9999558158839734,0.00027946478653782125
1387.122467422309,1387.122467422309,1.0004284442660372,0.0002795201581547187
1387.1294120068226,1387.1294120068226,1.0000763460102642,0.0002795061435302353
1387.1363565912884,1387.1363565912884,0.9997444538794193,0.0002794568135257444
1387.1433011757322,1387.1433011757322,0.9999217870741177,0.00027949531392483897
1387.150245760153,1387.150245760153,1.000178402172928,0.0002795266460405924
1387.1571903444794,1387.1571903444794,1.000065179215889,0.0002794918689563065
1387.1641349287827,1387.1641349287827,1.0000577903845584,0.00027955623724367667
1387.171079513017,1387.171079513017,0.9998966902225149,0.0002795068521634351
1387.1780240972048,1387.1780240972048,0.9998393152737144,0.00027948842940112603
1387.1849686813912,1387.1849686813912,0.9998166732864451,0.0002794983924720343
1387.1919132655553,1387.1919132655553,1.0002817094486578,0.00027955986942052616
1387.1988578496264,1387.1988578496264,0.9999535426140465,0.0002795107306203889
1387.205802433651,1387.205802433651,1.0000711072307784,0.0002795334694838864
1387.2127470176513,1387.2127470176513,0.9999529869733632,0.0002794698976454373
1387.219691601606,1387.219691601606,0.9998834527937586,0.0002794769908918635
1387.2266361854913,1387.2266361854913,1.0002226581011604,0.0002795088260295603
1387.233580769375,1387.233580769375,0.9999923284644254,0.0002795030283865523
1387.24052535319,1387.24052535319,0.9997414525457102,0.0002794573211735168
1387.2474699369586,1387.2474699369586,0.9999814665877016,0.0002794606846872283
1387.2544145206805,1387.2544145206805,0.9999441247357549,0.00027948901798407306
1387.261359104378,1387.261359104378,1.000434594527162,0.0002795147571142944
1387.2683036880298,1387.2683036880298,0.9999212060244604,0.00027945222128453065
1387.2752482716355,1387.2752482716355,1.0002933716878784,0.0002795206195986403
1387.2821928551705,1387.2821928551705,0.999662078244197,0.00027944934413000273
1387.2891374386825,1387.2891374386825,0.9999329840400619,0.0002794904481704825
1387.2960820221483,1387.2960820221483,1.0002337552025018,0.0002795360556137953
1387.3030266055675,1387.3030266055675,1.0000507224191806,0.00027948543576326857
1387.3110823222923,1387.3110823222923,1.0000116350330415,0.00027948312788688594
1387.319693605614,1387.319693605614,0.9994704706772508,0.0002794306663417945
1387.326638188871,1387.326638188871,1.0001393828092617,0.00027952068279860217
1387.3346939054097,1387.3346939054097,0.9998669705687286,0.00027949952058062413
1387.3419162719401,1387.3419162719401,0.999811057584503,0.0002794559119324177
1387.349416421699,1387.349416421699,1.000492161323451,0.00027957029039129064
1387.3571943548009,1387.3571943548009,1.0003378118480097,0.00027953724334860836
1387.3641389378238,1387.3641389378238,0.9996884160880745,0.00027945980912852055
1387.3710835208237,1387.3710835208237,0.9995828127569956,0.0002794344138786404
1387.3780281037543,1387.3780281037543,1.0001293061454115,0.00027950484197144057
1387.384972686637,1387.384972686637,0.9999616055033262,0.0002794292661541731
1387.3919172695205,1387.3919172695205,1.0001689565303082,0.0002795216727337991
1387.3988618523342,1387.3988618523342,0.9999464573406172,0.0002794750638661847
1387.4058064351248,1387.4058064351248,1.0000377014634902,0.0002795034712188767
1387.4127510178446,1387.4127510178446,1.000154293165695,0.00027949444811727997
1387.4196956005421,1387.4196956005421,1.0002745876998036,0.00027953225846105316
1387.4266401831696,1387.4266401831696,1.0001945557207048,0.00027947198650781987
1387.4335847657733,1387.4335847657733,0.9997269021736322,0.0002794538070099021
1387.4405293483308,1387.4405293483308,0.9991987202111445,0.00027938311928092695
1387.447473930842,1387.447473930842,0.9999974002545109,0.00027948187010939127
1387.4544185132834,1387.4544185132834,1.0000538967202004,0.0002794937102992344
1387.4613630957238,1387.4613630957238,1.0003639553352284,0.00027953394907773117
1387.4683076781184,1387.4683076781184,1.0001876752048884,0.000279496241126967
1387.4752522604665,1387.4752522604665,1.000242294316058,0.00027951312386055897
1387.4821968427448,1387.4821968427448,0.9997277506481084,0.0002794282275270629
1387.4891414249992,1387.4891414249992,1.0002453205413009,0.00027953509438374694
1387.4960860072074,1387.4960860072074,0.9997760694276057,0.00027947133660305684
1387.5030305893463,1387.5030305893463,1.000090640822538,0.00027946617504772363
1387.5099751714838,1387.5099751714838,0.999704064247798,0.00027945364444322446
1387.516919753576,1387.516919753576,1.0000490355153597,0.000279489358634011
1387.5238643355751,1387.5238643355751,1.000049590173959,0.0002794876393002623
1387.5308089175737,1387.5308089175737,0.9997291164307416,0.00027946050048656504
1387.5377534995487,1387.5377534995487,1.0004383230593399,0.000279532841330405
1387.5446980814077,1387.5446980814077,1.0001964753387669,0.0002795540411927737
1387.5516426632673,1387.5516426632673,1.0000781310055387,0.00027951346146957155
1387.5585872451263,1387.5585872451263,0.9995668305328198,0.00027945075516045217
1387.5655318268682,1387.5655318268682,0.9999747469010207,0.0002794972677864965
1387.5724764085878,1387.5724764085878,0.9997499931169471,0.0002794436910909065
1387.5794209902842,1387.5794209902842,0.9998428648716338,0.0002794578500213423
1387.58636557191,1387.58636557191,0.9999456009578408,0.00027950147928519517
1387.5933101535127,1387.5933101535127,0.9998638498499567,0.0002794697756824066
1387.600254735069,1387.600254735069,1.0004686550389341,0.0002795446061794909
1387.6071993165792,1387.6071993165792,1.0004902630929644,0.0002795321195515722
1387.6141438980417,1387.6141438980417,1.0002637635841198,0.0002795093381104738
1387.6210884794586,1387.6210884794586,0.9998539157399451,0.0002794629737088383
1387.628033060806,1387.628033060806,1.0000500976640427,0.0002794780569163696
1387.6349776421991,1387.6349776421991,0.999469056871751,0.00027942643910257927
1387.6419222234751,1387.6419222234751,0.9999166253978764,0.0002794778711614512
1387.6488668047061,1387.6488668047061,0.9999201428764881,0.0002794564560922937
1387.6558113859137,1387.6558113859137,1.0002559059576446,0.00027947371821720655
1387.6627559670503,1387.6627559670503,0.9999675449995875,0.0002794526520895744
1387.6697005481642,1387.6697005481642,0.9996751093042148,0.00027945018023075663
1387.6766451292317,1387.6766451292317,0.9997923363612147,0.00027947057614522526
1387.6835897102762,1387.6835897102762,1.0000007398696948,0.00027945483523493574
1387.69053429125,1387.69053429125,1.0003663003416556,0.0002795227620023156
1387.6974788722007,1387.6974788722007,1.000500331416513,0.0002795461992373239
1387.704423453082,1387.704423453082,1.0006378120782302,0.0002795893959214006
1387.7113680339403,1387.7113680339403,1.0000601256533015,0.00027955512737249863
1387.7183126147506,1387.7183126147506,0.9996652922830567,0.0002794699722777036
