time,time,flux,flux_err
1325.2983186606705,1325.2983186606705,0.9999641048736989,0.000367307463279344
1325.3066519978315,1325.3066519978315,1.000272794318782,0.00036748552413280267
1325.3149853353232,1325.3149853353232,1.0001792242601557,0.000367589449755625
1325.3226242283051,1325.3226242283051,0.9996281986821944,0.0003355978562503425
1325.3295686766928,1325.3295686766928,0.9998497608261292,0.000335787244193339
1325.3365131252904,1325.3365131252904,0.9993316379989304,0.0003359136893208628
1325.343457574086,1325.343457574086,0.9999116735058091,0.00033612730519279587
1325.3504020230791,1325.3504020230791,1.0002574730621254,0.00033638873779367063
1325.3573464723054,1325.3573464723054,1.0000967126246763,0.0003366253891036837
1325.3642909217062,1325.3642909217062,1.0002199847167135,0.0003368626596411425
1325.3712353713279,1325.3712353713279,1.0002364817292444,0.00033706123427660825
1325.3781798211362,1325.3781798211362,1.0004359023573062,0.0003372792341200661
1325.3851242711658,1325.3851242711658,0.9999811900424765,0.0003374834422321493
1325.3920687213697,1325.3920687213697,0.9992652983270054,0.00033759061427681683
1325.399013171748,1325.399013171748,1.0002046623406582,0.0003379148179066952
1325.4059576223249,1325.4059576223249,0.9996874651529408,0.0003380490415612064
1325.4129020731107,1325.4129020731107,0.9999541424706864,0.0003382487970212619
1325.41984652406,1325.41984652406,1.0001385935829248,0.0003384472917289215
1325.426790975195,1325.426790975195,1.0001301863894345,0.00033862339650491557
1325.4337354265167,1325.4337354265167,0.9998497518995281,0.00033870244231037824
1325.4406798780246,1325.4406798780246,1.0007777619462261,0.0003389815149563898
1325.4476243297072,1325.4476243297072,0.9995598274801027,0.0003389693997377086
1325.4545687815523,1325.4545687815523,0.9995755657998874,0.00033909135130481675
1325.4615132335841,1325.4615132335841,1.000393116539446,0.0003393692287696318
1325.4684576857787,1325.4684576857787,0.9996782580104512,0.0003394504317186202
1325.47540213816,1325.47540213816,1.0003786250994282,0.0003396836422634161
1325.482346590692,1325.482346590692,1.0002139764511255,0.00033985672728883515
1325.4892910433994,1325.4892910433994,1.0000041827848074,0.0003399908683980146
1325.4962354962577,1325.4962354962577,0.9998468213859623,0.00034013869657069823
1325.503179949302,1325.503179949302,1.0000536146552066,0.00034033050052225945
1325.5101244025095,1325.5101244025095,0.9995644517009346,0.00034043385933640776
1325.5170688558333,1325.5170688558333,1.0002125648351963,0.00034069184812742653
1325.5240133093553,1325.5240133093553,0.9995474435161029,0.00034073723253267294
1325.530957763005,1325.530957763005,1.0001968960624312,0.00034098778546732015
1325.537902216841,1325.537902216841,0.9999045581494922,0.00034115862494287364
1325.5448466707942,1325.5448466707942,1.0000921099087507,0.00034132822456766547
1325.5517911249094,1325.5517911249094,1.0002689260633657,0.00034151214443268985
1325.5587355791765,1325.5587355791765,1.0000056332528802,0.0003416133727911522
1325.565680033583,1325.565680033583,1.0002978994418537,0.00034180322090642147
1325.572624488141,1325.572624488141,1.0000925196113983,0.0003419253186891147
1325.5795689428505,1325.5795689428505,0.999574958831506,0.00034199588640460607
1325.5865133976874,1325.5865133976874,0.9993888552687762,0.00034208298907123757
1325.5934578526762,1325.5934578526762,1.0001489970338664,0.00034223613479766993
1325.600402307793,1325.600402307793,0.9999633488422832,0.00034227431597383515
1325.6073467630608,1325.6073467630608,0.999739522243833,0.00034241948735542636
1325.6142912184455,1325.6142912184455,0.999765682119568,0.0003423757342391156
1325.6212356739811,1325.6212356739811,1.0002544528193162,0.00034247548550482175
1325.6281801296336,1325.6281801296336,1.000183324364213,0.0003424977437569124
1325.6351245854255,1325.6351245854255,1.0003168376835856,0.00034254189096876515
1325.6420690413454,1325.6420690413454,1.000211908480931,0.0003424858701184919
1325.6490134974051,1325.6490134974051,0.9993857551957326,0.00034248910051247266
1325.6559579535813,1325.6559579535813,0.9999699708453725,0.00034251539142355475
1325.662902409874,1325.662902409874,1.0003754516862653,0.0003425419994280417
1325.6698468663058,1325.6698468663058,1.0000060537963598,0.00034245476061261083
1325.6767913228314,1325.6767913228314,0.9995753245698304,0.00034245319960701337
1325.6837357794964,1325.6837357794964,1.0000160754170184,0.0003425349442453722
1325.6906802362778,1325.6906802362778,1.0001143496645843,0.0003426075633539755
1325.697624693176,1325.697624693176,0.9998744362820566,0.0003426080389990192
1325.7045691502137,1325.7045691502137,1.0000599977428581,0.0003426893531666064
1325.7115136073207,1325.7115136073207,1.0000504406019364,0.0003427086513860071
1325.718458064568,1325.718458064568,1.0000616675380194,0.00034278686820527794
1325.7254025219315,1325.7254025219315,1.0000240813213845,0.0003429054640906529
1325.7323469793996,1325.7323469793996,1.0002535833960908,0.0003429944180301363
1325.7392914369732,1325.7392914369732,0.9995576089087972,0.00034300094215259427
1325.746235894662,1325.746235894662,1.0002306794497282,0.0003431572983484479
1325.7531803524566,1325.7531803524566,1.000259430302898,0.00034326383057458476
1325.7601248103674,1325.7601248103674,0.9996347222710341,0.0003432987961679379
1325.7670692683594,1325.7670692683594,1.000004159050977,0.00034345659682880373
1325.7740137264798,1325.7740137264798,1.000040161996673,0.0003436079852091183
1325.780958184693,1325.780958184693,0.9999984992144292,0.0003436992851961753
1325.787902642988,1325.787902642988,0.999641823854055,0.00034374164206641496
1325.7948471013995,1325.7948471013995,1.0001007922617435,0.00034386305884119713
1325.801791559904,1325.801791559904,1.00064907584492,0.00034398029942926754
1325.8087360185132,1325.8087360185132,0.9995592054740016,0.0003439111354876164
1325.8156804772268,1325.8156804772268,1.000043882478425,0.0003440299736878614
1325.8226249360225,1325.8226249360225,0.9996931724551599,0.0003440350564767189
1325.8295693949226,1325.8295693949226,1.0004026706529718,0.00034421719581769736
1325.8365138539043,1325.8365138539043,0.9995402422999762,0.00034412761766006964
1325.8434583129795,1325.8434583129795,1.0004054435205578,0.00034417978474803686
1325.8504027721585,1325.8504027721585,1.0002011172111274,0.00034418265427588657
1325.8573472314201,1325.8573472314201,1.0004228871036736,0.00034417476615203617
1325.8642916907859,1325.8642916907859,0.9995955909912997,0.00034400550477595366
1325.8712361501985,1325.8712361501985,0.9994983092149526,0.0003438316908003837
1325.8781806097272,1325.8781806097272,0.9990061541343923,0.0003436861138633072
1325.885125069361,1325.885125069361,1.000155892941499,0.000343744056440869
1325.892069529041,1325.892069529041,1.0002961563250394,0.0003436408223218985
1325.8990139888263,1325.8990139888263,1.0005677339025574,0.00034360501971017184
1325.9059584486808,1325.9059584486808,0.9999791807886014,0.0003435119710383352
1325.9129029086173,1325.9129029086173,0.9998795713294321,0.00034339393157210624
1325.919847368658,1325.919847368658,1.0000679034400757,0.00034341626248615107
1325.9267918287694,1325.9267918287694,1.0000777565667176,0.0003433782386330137
1325.9337362889498,1325.9337362889498,0.9997981711366591,0.00034328711901502045
1325.9406807492126,1325.9406807492126,0.9996953898089422,0.0003431891146378705
1325.9476252095562,1325.9476252095562,1.0000518590016818,0.0003432166166964804
1325.9545696699702,1325.9545696699702,1.0004164555576422,0.0003432727754051976
1325.9623474657433,1325.9623474657433,0.9993161137667699,0.0003430994418074339
1325.9698474831755,1325.9698474831755,1.0003823934663594,0.0003432595024226843
1325.9767919438223,1325.9767919438223,0.9997747015288049,0.00034317271830836297
1325.9837364045613,1325.9837364045613,1.000129925971674,0.000343223861745836
1325.9906808653475,1325.9906808653475,1.0005006241996874,0.00034327199494176323
1325.997625326239,1325.997625326239,0.9996626845858658,0.00034322138644045613
1326.0045697871876,1326.0045697871876,0.9999702396072943,0.00034334153230776226
1326.0115142481952,1326.0115142481952,1.0002995581552199,0.0003434703729049754
1326.0184587093074,1326.0184587093074,0.9998782539672391,0.0003435263868256936
1326.025403170443,1326.025403170443,0.9998989127511392,0.00034362743316493463
1326.0323476316596,1326.0323476316596,0.9996616012636613,0.0003436590956462681
1326.0392920929462,1326.0392920929462,1.0001729876927805,0.0003436438285037329
1326.0462365543149,1326.0462365543149,0.9999254755628115,0.0003436734051512103
1326.053181015741,1326.053181015741,0.9999705490353392,0.00034362461887096397
1326.0601254772023,1326.0601254772023,1.0004197983975909,0.00034374222521813653
1326.067069938757,1326.067069938757,0.9998678065190623,0.0003436757354962803
1326.0740144003692,1326.0740144003692,1.0000323435924856,0.00034379336748616856
1326.0809588620293,1326.0809588620293,1.0000346064929446,0.0003438196793944192
1326.0879033237695,1326.0879033237695,0.9992955821022536,0.00034371231183127156
1326.0948477855688,1326.0948477855688,1.00027094420777,0.00034383570771415184
1326.1017922474261,1326.1017922474261,0.9997795760523097,0.00034380859132071
1326.1087367093412,1326.1087367093412,0.9998882787389413,0.0003438484206688502
1326.115681171315,1326.115681171315,1.000444291807826,0.00034389578497567017
1326.122625633358,1326.122625633358,0.999672761366077,0.00034381981114009664
1326.1295700954486,1326.1295700954486,0.9996020963026508,0.0003438302986283434
1326.1365145575965,1326.1365145575965,1.0003744098389904,0.00034393686690810485
1326.143459019803,1326.143459019803,1.0004463936492995,0.0003438964768922513
1326.150403482056,1326.150403482056,0.9998422419332377,0.0003438300116585404
1326.1573479443787,1326.1573479443787,0.9999956716323144,0.0003438913980007786
1326.1642924067485,1326.1642924067485,0.999687088331183,0.0003438526991253481
1326.1712368691756,1326.1712368691756,0.9997524967738963,0.0003438349365477108
1326.1781813316502,1326.1781813316502,1.0002086638783005,0.0003438611461523902
1326.185125794194,1326.185125794194,0.9997598182020345,0.0003437638159059837
1326.1920702567843,1326.1920702567843,1.0002322928823029,0.0003438580956495689
1326.1990147193987,1326.1990147193987,0.9998060409888143,0.00034378027677296465
1326.205959182082,1326.205959182082,1.0003715213504514,0.0003438811984909459
1326.2129036448246,1326.2129036448246,1.00059755695054,0.0003438619342954035
1326.2198481076127,1326.2198481076127,0.9994794237537151,0.0003436984228009779
1326.2267925704361,1326.2267925704361,1.0001711239854598,0.0003437840673786648
1326.2337370333178,1326.2337370333178,1.0000028704498927,0.00034377529361581476
1326.240681496269,1326.240681496269,0.9997822449038335,0.0003437451925316471
1326.2476259592445,1326.2476259592445,0.9998600235268196,0.0003437797493867014
1326.2545704222769,1326.2545704222769,0.999744792538569,0.00034377777181606725
1326.2615148853452,1326.2615148853452,1.0001302529138596,0.0003438295463405153
1326.2684593484828,1326.2684593484828,1.0002959277017995,0.000343837373062228
1326.2754038116552,1326.2754038116552,0.9998666043032571,0.0003437702891044866
1326.2823482748515,1326.2823482748515,1.0000077238332739,0.0003437924379756243
1326.2892927381172,1326.2892927381172,0.9995153031661754,0.00034371716255685134
1326.2962372014179,1326.2962372014179,1.0004612624092921,0.00034388071941029806
1326.303181664765,1326.303181664765,1.0004150656099557,0.00034389900604400275
1326.310126128159,1326.310126128159,0.9999619864624206,0.00034384059233174056
1326.3170705915647,1326.3170705915647,0.9997835938320877,0.0003438387211099877
1326.324015055063,1326.324015055063,0.9997733398487488,0.0003438544614324099
1326.330959518574,1326.330959518574,0.9996392976349087,0.00034391812214874476
1326.3379039821423,1326.3379039821423,1.0005832161115102,0.00034407026939923147
1326.3454040028228,1326.3454040028228,0.9993601517184795,0.0003439701425126221
1326.3545706948391,1326.3545706948391,1.0003875638395763,0.0003442136456231303
1326.3615151585473,1326.3615151585473,0.9997467734169294,0.000344190787326002
1326.3684596223022,1326.3684596223022,1.0005612368414643,0.0003443819025231135
1326.3754040860567,1326.3754040860567,1.0003652469312379,0.00034439792744365576
1326.38234854987,1326.38234854987,0.9999356052963411,0.00034441146145474327
1326.3892930137295,1326.3892930137295,0.999809488672256,0.0003444138430338149
1326.3962374776122,1326.3962374776122,0.9997706110590437,0.0003445463492444334
1326.4031819415413,1326.4031819415413,0.9999898507589112,0.0003446081774768593
1326.4101264055062,1326.4101264055062,1.0002734249464997,0.0003447214629545061
1326.417070869517,1326.417070869517,0.9996412131851804,0.00034469214182732984
1326.4240153335625,1326.4240153335625,0.999820004360599,0.00034476073410755637
1326.4309597976198,1326.4309597976198,1.0000200032919495,0.00034489274254026015
1326.4379042617354,1326.4379042617354,0.9999740366868413,0.0003449072782556105
1326.4448487258862,1326.4448487258862,0.9996786480366794,0.0003449379225296497
1326.45179319006,1326.45179319006,1.0005634370838326,0.00034508679601087574
1326.4587376542804,1326.4587376542804,0.9997925959004096,0.0003450286739309874
1326.465682118524,1326.465682118524,0.9998393362937064,0.0003451038868724083
1326.4726265828144,1326.4726265828144,1.0004010557983114,0.00034519903511775714
1326.4795710471515,1326.4795710471515,1.0000695455920134,0.00034525658673961317
1326.486515511488,1326.486515511488,1.0005285017349865,0.00034537994414364737
1326.49345997586,1326.49345997586,0.9996527909431572,0.00034533382039945504
1326.500404440278,1326.500404440278,0.9998384437825983,0.00034541565688542985
1326.5073489047313,1326.5073489047313,1.0001777344938478,0.00034547583158245506
1326.514293369208,1326.514293369208,0.9997977204744444,0.0003455392652285489
1326.5212378337196,1326.5212378337196,0.9999386082028373,0.0003456414960036837
1326.5281822982543,1326.5281822982543,0.9997937655695045,0.00034567802866143323
1326.5351267628353,1326.5351267628353,0.9994209905504932,0.0003457283754317183
1326.5420712274633,1326.5420712274633,1.0001639528010373,0.0003458573560639619
1326.5490156920912,1326.5490156920912,1.0005933679665078,0.0003461032165683406
1326.5559601567306,1326.5559601567306,0.9996205571996594,0.0003459650521892673
1326.5629046214283,1326.5629046214283,1.0002863991379547,0.0003461223187856311
1326.5698490861494,1326.5698490861494,0.9999734000167585,0.0003461236666186402
1326.5767935509057,1326.5767935509057,1.0007480430902729,0.0003462242804762075
1326.5837380156845,1326.5837380156845,0.9998004017339136,0.0003461549800380196
1326.5906824804756,1326.5906824804756,0.9999522908300811,0.00034623222740633354
1326.5976269453245,1326.5976269453245,0.9999868616405563,0.0003462536896403415
1326.6045714101854,1326.6045714101854,0.999580757301328,0.00034622638907893735
1326.611515875081,1326.611515875081,0.999751033952875,0.00034636115781197264
1326.6184603399997,1326.6184603399997,1.0001129747972195,0.0003464341245543708
1326.6254048049304,1326.6254048049304,0.9997497948295976,0.0003463722006635662
1326.6323492699073,1326.6323492699073,1.000542568143968,0.0003464949133182508
1326.6392937349078,1326.6392937349078,0.9997963548709565,0.0003463873459235385
1326.6462381999315,1326.6462381999315,1.0003709636837157,0.00034645015148692765
1326.6531826649903,1326.6531826649903,1.0002631316968273,0.00034633629919553595
1326.6601271300606,1326.6601271300606,0.9994277087197141,0.0003462005395645559
1326.6670715951539,1326.6670715951539,1.0002104155600269,0.00034626873348111997
1326.6740160602944,1326.6740160602944,0.9997288719738521,0.00034615843848335634
1326.6809605254343,1326.6809605254343,0.9997355600682638,0.0003460524698386855
1326.6890161050312,1326.6890161050312,0.9999237538005836,0.00034599469215706676
1326.6962383488378,1326.6962383488378,1.000174253054014,0.0003459796222803883
1326.7031828140712,1326.7031828140712,1.0003354221726684,0.000345970784401769
1326.7106828365563,1326.7106828365563,0.9999505519996458,0.00034581786569940696
1326.718460637661,1326.718460637661,1.0002173354486028,0.0003458095809523928
1326.7254051029643,1326.7254051029643,1.0000993768172768,0.0003457385450366589
1326.7323495682906,1326.7323495682906,0.9998898917908337,0.0003457124954786867
1326.7392940336522,1326.7392940336522,0.9996201700824627,0.000345641005741633
1326.7462384990013,1326.7462384990013,1.0001832843666565,0.00034562016375880186
1326.7531829643976,1326.7531829643976,0.9998920600282446,0.00034560208536445284
1326.7601274298056,1326.7601274298056,1.0004148655275074,0.0003456432117130045
1326.7670718952481,1326.7670718952481,0.9996091041500883,0.0003455662144123539
1326.7740163607027,1326.7740163607027,0.9997288445783893,0.00034556902389821473
1326.7809608262037,1326.7809608262037,1.0004826204747723,0.00034566494325494245
1326.7879052917046,1326.7879052917046,0.999832252063535,0.0003455758816319966
1326.7948497572056,1326.7948497572056,0.9995179579835953,0.0003455339629517394
1326.8017942227536,1326.8017942227536,1.0001805920798155,0.00034564704266900454
1326.8087386883126,1326.8087386883126,1.0004365300378173,0.0003457268945220412
1326.8156831539063,1326.8156831539063,0.9994791993633749,0.00034563823604709805
1326.8226276195007,1326.8226276195007,1.0004847245543682,0.00034577353496829147
1326.8295720851297,1326.8295720851297,1.000097246841611,0.00034573493711688745
1326.8365165507823,1326.8365165507823,1.0000627171910457,0.0003457521363852171
1326.8434610164345,1326.8434610164345,0.9999599388804665,0.00034565013020030055
1326.85040548211,1326.85040548211,0.9995753448156168,0.00034567245868647486
1326.8573499478089,1326.8573499478089,1.0002258210066712,0.0003457189998251445
1326.8642944135313,1326.8642944135313,1.000174293725226,0.00034562585332974824
1326.871238879277,1326.871238879277,0.9998018476838719,0.0003455213124061075
1326.8781833450219,1326.8781833450219,0.9998879894564704,0.0003454441122007364
1326.8851278108145,1326.8851278108145,0.9999621148241996,0.0003453765753495735
1326.892072276606,1326.892072276606,1.000194202497756,0.0003452996061078243
1326.8990167423983,1326.8990167423983,0.9999111802824668,0.00034517330127075183
1326.905961208237,1326.905961208237,1.0001228950990684,0.00034507689094295156
1326.9129056740755,1326.9129056740755,1.0000589443225816,0.0003449337376338414
1326.9198501399374,1326.9198501399374,0.9999676457160026,0.0003447548555470026
1326.9267946058226,1326.9267946058226,1.0001864929367077,0.0003447019613211399
1326.9337390717196,1326.9337390717196,1.0002041063870983,0.00034455386474706773
1326.9406835376274,1326.9406835376274,1.0001758470252917,0.0003443969852349949
1326.947628003571,1326.947628003571,0.9996680256225329,0.0003442609301277056
1326.9545724695145,1326.9545724695145,0.9999166866735948,0.0003441804624649663
1326.9615169354813,1326.9615169354813,0.9999248280973351,0.0003440759541666986
1326.9684614014598,1326.9684614014598,1.0003625365133764,0.0003440622763571846
1326.9754058674607,1326.9754058674607,0.9998919676457444,0.00034394728343775725
1326.9823503334628,1326.9823503334628,1.0002780921243661,0.00034387188990626433
1326.989294799499,1326.989294799499,1.0005622550288522,0.00034388323209431476
1326.9962392655243,1326.9962392655243,0.9999332203351482,0.00034375166128499
1327.003183731607,1327.003183731607,0.9995841123315946,0.00034371201489014774
1327.0101281976902,1327.0101281976902,1.0002376340501686,0.0003438085230971582
1327.0170726637732,1327.0170726637732,0.9990998804562075,0.0003436462070850642
1327.0240171298562,1327.0240171298562,0.9998871000950317,0.00034377680230051087
1327.0309615959861,1327.0309615959861,1.000139050599121,0.0003437783162379455
1327.037906062115,1327.037906062115,1.0000265955429597,0.0003437282283510828
1327.044850528257,1327.044850528257,1.000053664382295,0.0003437220645394313
1327.0517949944328,1327.0517949944328,0.9999956926251172,0.0003437775866766707
1327.0595727965397,1327.0595727965397,1.0002592847052296,0.00034383119502179473
