time,time,flux,flux_err
1385.953012355485,1385.953012355485,0.9999294707813489,0.0005177230518438071
1385.9613458566266,1385.9613458566266,1.0002501384942268,0.0005177368736919994
1385.9696793577289,1385.9696793577289,0.9998344488258383,0.0005175712350910807
1385.9780128587533,1385.9780128587533,0.9999586333387183,0.0005174791931414466
1385.9856519013597,1385.9856519013597,1.0002983851025236,0.0004724338244364226
1385.9925964855233,1385.9925964855233,0.999641928391028,0.0004723406145622935
1385.9995410696174,1385.9995410696174,0.9993547189240163,0.0004721738887086591
1386.006485653665,1386.006485653665,1.0001140102001556,0.0004723273731718788
1386.0134302377128,1386.0134302377128,1.0000618357671276,0.0004722242324863196
1386.0203748217132,1386.0203748217132,1.000972757907685,0.0004723342849402368
1386.0273194056915,1386.0273194056915,0.9999045117250572,0.0004722114207575198
1386.0342639896226,1386.0342639896226,1.0001992549196614,0.0004723205689165243
1386.04120857353,1386.04120857353,0.9998992416165076,0.00047213933863751386
1386.0481531573919,1386.0481531573919,1.0001308459062286,0.0004722014280629281
1386.0550977412065,1386.0550977412065,0.9997597304250612,0.0004722290760216886
1386.0620423250207,1386.0620423250207,0.9996531596069718,0.0004721600710410191
1386.0689869087892,1386.0689869087892,0.9997322866206189,0.000472168402924765
1386.0759314925344,1386.0759314925344,0.9997432045321213,0.00047227279375661033
1386.082876076232,1386.082876076232,1.0003100405095475,0.0004722869709473984
1386.0898206598606,1386.0898206598606,1.0001953542612905,0.00047229988654625495
1386.096765243466,1386.096765243466,1.0003086390625906,0.00047243689408657936
1386.1037098270708,1386.1037098270708,1.0004425869226068,0.0004724832172450651
1386.110654410676,1386.110654410676,0.9996011552184474,0.0004722304359327364
1386.1175989942117,1386.1175989942117,0.9999833553241807,0.00047234367638652645
1386.1245435777237,1386.1245435777237,0.9997604191863392,0.00047234436903976053
1386.1314881611884,1386.1314881611884,0.9999200501802761,0.0004722204170239496
1386.138432744608,1386.138432744608,0.9998355724421156,0.0004723072677077296
1386.1453773280039,1386.1453773280039,0.9997236190547631,0.00047231723641736223
1386.1523219113756,1386.1523219113756,1.0000751687536593,0.00047239934292388235
1386.1592664947252,1386.1592664947252,1.0006876440265728,0.000472522131193376
1386.1662110780046,1386.1662110780046,0.9999306809134902,0.00047232234505481443
1386.1731556612597,1386.1731556612597,1.0000291115295767,0.000472310120230575
1386.1801002444695,1386.1801002444695,1.000102532724012,0.0004723639507510782
1386.1870448277025,1386.1870448277025,0.9995991983743172,0.00047224191467373864
1386.1939894108414,1386.1939894108414,0.9996568083852351,0.000472090354167358
1386.200933993981,1386.200933993981,1.000010276175851,0.00047229077014466873
1386.207878577074,1386.207878577074,1.0000628103982974,0.00047232304461293246
1386.2148231600972,1386.2148231600972,1.0000547400461206,0.0004722598036039658
1386.22176774312,1386.22176774312,1.0010365087583872,0.00047251458756139407
1386.2287123261435,1386.2287123261435,0.999558671608416,0.00047221305772648096
1386.23565690912,1386.23565690912,0.9999706442850262,0.0004722691585784605
1386.2426014920493,1386.2426014920493,0.9996385442784872,0.0004722037067809327
1386.2495460749333,1386.2495460749333,0.9991745911876245,0.00047206467918626865
1386.256490657817,1386.256490657817,0.9995061183512967,0.0004721777820939438
1386.2634352406296,1386.2634352406296,0.9999686207009912,0.00047223494590268987
1386.2703798234206,1386.2703798234206,0.9998847559527094,0.00047226823836448047
1386.2773244061643,1386.2773244061643,0.9999800216409314,0.0004722476690529008
1386.2842689889076,1386.2842689889076,1.0007545506216842,0.0004724008219908606
1386.2912135716047,1386.2912135716047,1.0001524395448143,0.0004722475133784875
1386.2981581542324,1386.2981581542324,1.0001889364300118,0.0004721845205014943
1386.305102736883,1386.305102736883,0.9998327864567473,0.00047223167422067743
1386.312047319463,1386.312047319463,0.9998276612277988,0.000472225850450013
1386.318991902044,1386.318991902044,0.999255551044356,0.0004721822076630385
1386.3259364845321,1386.3259364845321,0.9994122298448225,0.00047218680079885126
1386.3328810670655,1386.3328810670655,1.000451718352879,0.00047237030800086733
1386.339825649507,1386.339825649507,1.0007267940982567,0.0004724739476136641
1386.3467702319485,1386.3467702319485,1.0004989715908057,0.00047244124163653607
1386.3537148142955,1386.3537148142955,0.9993818317947412,0.00047214736291248177
1386.3606593966672,1386.3606593966672,0.99962318413985,0.0004722905437645248
1386.3687151121594,1386.3687151121594,1.0005427714978594,0.0004725076159470926
1386.3759374777342,1386.3759374777342,0.999471450254424,0.00047228606436776224
1386.3828820599895,1386.3828820599895,0.9992694922469323,0.0004721436707260425
1386.389826642198,1386.389826642198,1.0000552922740031,0.0004722858844521375
1386.3967712243825,1386.3967712243825,1.0006992352102522,0.0004723696256182415
1386.4037158065437,1386.4037158065437,1.0005072635417844,0.0004723616218203346
1386.4106603886362,1386.4106603886362,0.9998619930051923,0.0004722656204267605
1386.4176049707044,1386.4176049707044,0.9993361600021942,0.00047213888577217754
1386.4245495527725,1386.4245495527725,1.0003598523303476,0.0004723406729630989
1386.4314941347716,1386.4314941347716,1.0005221495702146,0.0004723964669375918
1386.4384387167474,1386.4384387167474,1.000143871708247,0.00047233408726112317
1386.4453832986987,1386.4453832986987,0.9997059697323122,0.0004722993206185574
1386.4523278806278,1386.4523278806278,0.999958136114724,0.00047236048383483527
1386.4592724624874,1386.4592724624874,0.9999150719273942,0.0004723553824324059
1386.4662170443457,1386.4662170443457,0.9996969767693674,0.0004722464749037758
1386.4731616261347,1386.4731616261347,0.99954837531898,0.00047213749258324874
1386.480106207924,1386.480106207924,0.9999641146747067,0.0004723275082157491
1386.4870507896665,1386.4870507896665,0.9998530429395764,0.0004722757118198168
1386.4939953713622,1386.4939953713622,1.0003210191969223,0.0004723554811475506
1386.5009399530584,1386.5009399530584,1.0002404808381775,0.00047232764932161913
1386.5078845346848,1386.5078845346848,1.000357269436387,0.00047235958076579586
1386.5148291162868,1386.5148291162868,1.0002285235614476,0.000472320293576958
1386.5217736978434,1386.5217736978434,1.000264307139561,0.000472280610878237
1386.5287182794236,1386.5287182794236,0.9996101507157442,0.00047215507658558627
1386.5356628609095,1386.5356628609095,0.9999860047954237,0.0004722079089920759
1386.5426074423956,1386.5426074423956,0.9995524758711115,0.00047211781923988457
1386.5495520238362,1386.5495520238362,1.0002114414811054,0.00047223867908227906
1386.5564966052293,1386.5564966052293,0.9995476064595419,0.0004721943931673375
1386.5642745363753,1386.5642745363753,1.0001118842990038,0.00047245880526043134
1386.5717746841783,1386.5717746841783,1.0005502406627502,0.00047243522616125677
1386.5787192654554,1386.5787192654554,0.999923486317849,0.00047236186376568135
1386.5856638467314,1386.5856638467314,1.0003968618060484,0.0004724871514672099
1386.5926084280086,1386.5926084280086,0.9996610534722292,0.0004722569979875365
1386.5995530091927,1386.5995530091927,1.0003534565677896,0.00047239675306991755
1386.606497590376,1386.606497590376,0.999029956676246,0.0004721092135185843
1386.61344217149,1386.61344217149,1.0000503324283287,0.00047229636862358563
1386.620386752604,1386.620386752604,0.9998741355526874,0.00047231370599132196
1386.6273313336483,1386.6273313336483,0.9997403768082943,0.000472291931361207
1386.6342759146917,1386.6342759146917,1.0006956569691912,0.00047242339719517
1386.6412204956896,1386.6412204956896,1.0003174407612614,0.0004723911064371305
1386.648165076641,1386.648165076641,0.9996796884920366,0.0004722144351138583
1386.6551096575677,1386.6551096575677,1.0006285446611913,0.0004723285043230389
1386.6620542384492,1386.6620542384492,0.9997189776211629,0.00047220341957855086
1386.6689988193307,1386.6689988193307,0.9994192335119525,0.00047214177620617527
1386.675943400141,1386.675943400141,1.0000160054368323,0.00047227011894696274
1386.6828879809525,1386.6828879809525,1.0004432901619231,0.00047234673161506834
1386.6898325616942,1386.6898325616942,1.0000503430300725,0.00047230915293880243
1386.6967771423888,1386.6967771423888,0.9999483946054382,0.00047230646191728873
1386.7037217230832,1386.7037217230832,1.0002745809480142,0.00047233406737028734
1386.7106663037785,1386.7106663037785,0.9997815185698226,0.00047224464057666623
1386.7176108844037,1386.7176108844037,0.9994487759039364,0.0004721614329463426
1386.7245554650049,1386.7245554650049,0.9999633183408388,0.0004722901231759296
1386.7315000455596,1386.7315000455596,1.000161931343859,0.00047233884697268506
1386.738444626069,1386.738444626069,1.0006699154158682,0.0004724057349651075
1386.745389206554,1386.745389206554,0.9990317968442145,0.00047206706612647816
1386.7523337870157,1386.7523337870157,0.9997943119163164,0.0004722263881272062
1386.759278367455,1386.759278367455,1.0006460616779016,0.0004723684857133173
1386.766222947824,1386.766222947824,1.0001191679790473,0.00047226985110914176
1386.7740008778055,1386.7740008778055,0.999778962388681,0.0004721666027629595
1386.7815010245836,1386.7815010245836,1.0003874002964992,0.00047227483095137825
1386.7884456048366,1386.7884456048366,0.999561472725371,0.0004721344387667734
1386.7953901850883,1386.7953901850883,1.0001964613668144,0.0004721652424799363
1386.8023347653175,1386.8023347653175,1.000385801076815,0.00047226676812596875
1386.809279345454,1386.809279345454,0.9997992602617686,0.0004721898832112474
1386.8162239256367,1386.8162239256367,0.9998107643728934,0.00047213225786786573
1386.8231685057485,1386.8231685057485,0.9994942795161901,0.0004721254987874165
1386.8301130857922,1386.8301130857922,1.0004829796306411,0.000472324721733
1386.8370576658585,1386.8370576658585,1.0002698098891956,0.00047224003382977917
1386.8440022458776,1386.8440022458776,1.000107174153472,0.0004722346976211266
1386.8509468258505,1386.8509468258505,1.0004159712209586,0.0004723398740714358
1386.8578914057775,1386.8578914057775,0.9991541267126731,0.0004721049824919622
1386.8648359857036,1386.8648359857036,0.9998431804757979,0.00047229809178953844
1386.8717805655601,1386.8717805655601,1.0000453016659956,0.00047226811935854515
1386.8787251453937,1386.8787251453937,1.0001169477600576,0.00047231313272698866
1386.8856697252038,1386.8856697252038,1.0000117102921,0.000472308185412637
1386.8926143049898,1386.8926143049898,1.0001966159871096,0.0004723111772371727
1386.899558884754,1386.899558884754,1.0004800142005745,0.00047241178273452905
1386.9065034644245,1386.9065034644245,0.9987101349145318,0.0004720954376443146
1386.9134480441182,1386.9134480441182,1.000950897926031,0.0004725330930385879
1386.9203926237647,1386.9203926237647,1.0001005151134141,0.0004723372095626222
1386.9273372033658,1386.9273372033658,0.9995201864990587,0.00047220911815423457
1386.9342817829433,1386.9342817829433,1.0001912188652038,0.0004723633912271246
1386.9412263624731,1386.9412263624731,0.9997425183311293,0.0004722603212876926
1386.9481709420043,1386.9481709420043,0.9998704710334391,0.0004722749624870272
1386.9551155214185,1386.9551155214185,1.0003990200228072,0.00047235178698424245
1386.9620601008787,1386.9620601008787,1.0000962174767618,0.00047227272459829156
1386.9690046802932,1386.9690046802932,0.9999023687163044,0.0004722195306141576
1386.9759492596381,1386.9759492596381,1.0000765142267158,0.00047218940100167184
1386.984282754842,1386.984282754842,0.9994166708623584,0.00047212455690935005
1386.9912273341392,1386.9912273341392,1.0000532687955457,0.0004722180221122224
1386.9981719133675,1386.9981719133675,0.9998847614220564,0.00047222053801134286
1387.0051164926194,1387.0051164926194,1.0003319148577057,0.0004723393043018365
1387.0120610718232,1387.0120610718232,1.0002844563690183,0.00047225910705204756
1387.0190056509582,1387.0190056509582,0.9997855619110144,0.00047222643778028334
1387.0259502301167,1387.0259502301167,1.0006382436107637,0.00047236041169901685
1387.0328948092051,1387.0328948092051,0.9997960790274106,0.00047225621858999745
1387.039839388246,1387.039839388246,0.9998912226099019,0.0004722873709456025
1387.0467839672651,1387.0467839672651,0.999440603197449,0.0004722378719676806
1387.0537285462608,1387.0537285462608,1.0002760766906726,0.0004723502129825792
1387.060673125255,1387.060673125255,1.0005491347761213,0.00047239211646987945
1387.0676177041105,1387.0676177041105,0.9996611269384017,0.00047227537384610194
1387.0745622830595,1387.0745622830595,0.9997556518998024,0.00047225686857306736
1387.0815068618917,1387.0815068618917,0.9998693431280804,0.00047230770184480416
1387.0884514407003,1387.0884514407003,1.0011977002952825,0.0004725031014267758
1387.0953960195093,1387.0953960195093,0.9994601498781467,0.0004722353857345901
1387.1023405982487,1387.1023405982487,0.9993870034541944,0.00047221188111731566
1387.1092851769638,1387.1092851769638,1.0006012121191012,0.00047247889847081844
1387.1162297556798,1387.1162297556798,1.0008980847234796,0.00047241317134704656
1387.1231743343262,1387.1231743343262,0.9994532109003227,0.000472051981354638
1387.1301189129254,1387.1301189129254,1.0000440292990525,0.0004722964991724363
1387.1370634915008,1387.1370634915008,1.0005899825284392,0.0004723330659445733
1387.1440080700538,1387.1440080700538,0.99958240541654,0.0004722198327614383
1387.1509526485609,1387.1509526485609,0.9994910667863097,0.00047220100890614557
1387.1578972270663,1387.1578972270663,1.0000224056386746,0.0004722237331061535
1387.164841805526,1387.164841805526,1.0000705556385132,0.00047232196485431097
1387.1717863839162,1387.1717863839162,0.9999102073523893,0.00047215445055873455
1387.1787309622828,1387.1787309622828,1.0001483111554579,0.00047227320194421124
1387.1856755406484,1387.1856755406484,1.0000026924771332,0.00047230370890972913
1387.192620118969,1387.192620118969,0.9997906785165906,0.0004722856314932455
1387.1995646972423,1387.1995646972423,1.0001878919673817,0.00047234754608412537
1387.2065092754924,1387.2065092754924,1.0006129962855377,0.00047239638677955465
1387.2134538536957,1387.2134538536957,0.9997019790314743,0.0004721355886190581
1387.2203984318996,1387.2203984318996,0.9999455532385021,0.0004721963726081363
1387.2273430100336,1387.2273430100336,1.0000512464841163,0.00047233459291152
1387.2342875881434,1387.2342875881434,0.9999215445644035,0.0004723725333619148
1387.2412321662073,1387.2412321662073,0.9995736580832959,0.00047217286169624304
1387.2481767442482,1387.2481767442482,1.0000221698505634,0.00047236053638727564
1387.2551213222655,1387.2551213222655,0.9999663759714187,0.00047238635959585145
1387.2620659002357,1387.2620659002357,1.000063020926666,0.0004723184995773998
1387.2690104781836,1387.2690104781836,1.0004865983513782,0.0004724747980374389
1387.2759550560845,1387.2759550560845,1.0002510467451782,0.00047237749196783594
1387.282899633938,1387.282899633938,0.9991774112690177,0.00047205336699634553
1387.2898442118392,1387.2898442118392,0.9994310510186291,0.00047214727457934946
1387.296788789624,1387.296788789624,1.000532967837779,0.00047236784414234686
1387.3037333674085,1387.3037333674085,0.9997079621985779,0.0004721423576243873
1387.3123446437444,1387.3123446437444,1.000592386435752,0.00047238422008308154
1387.3204003539045,1387.3204003539045,1.0002684992018707,0.0004723115063279065
1387.32734493155,1387.32734493155,1.0008611497297581,0.0004723731286023306
1387.335678424704,1387.335678424704,1.0002129233953418,0.00047228197707491074
1387.3426230022792,1387.3426230022792,0.9992782815767223,0.00047212385441838204
1387.3504009291191,1387.3504009291191,0.999527148877321,0.000472172913841872
1387.357901072823,1387.357901072823,0.999618440472849,0.0004721853027450914
1387.3648456503047,1387.3648456503047,1.0000861931748823,0.00047226967100853204
1387.3717902277635,1387.3717902277635,0.9999096558540078,0.00047233384542030567
1387.3787348051524,1387.3787348051524,0.9998767732670517,0.00047229200123401714
1387.38567938254,1387.38567938254,0.9998895777489858,0.0004722681466621764
1387.3926239598595,1387.3926239598595,1.0002621357698738,0.0004723156125266575
1387.3995685371783,1387.3995685371783,1.0005765118721104,0.00047236695392350984
1387.406513114427,1387.406513114427,1.000135207417838,0.0004722855724875896
1387.413457691629,1387.413457691629,1.0002630104498333,0.00047226338600559695
1387.420402268832,1387.420402268832,0.9995859240117981,0.0004722408515163673
1387.4273468460347,1387.4273468460347,0.9998904647130328,0.0004722297384264154
1387.4342914231897,1387.4342914231897,0.9993722129942751,0.0004722156371829052
1387.4412360002757,1387.4412360002757,1.0001710654291762,0.00047234325484738664
1387.448180577339,1387.448180577339,1.0002546492912372,0.0004723899126505798
1387.4551251543785,1387.4551251543785,1.0000528252924723,0.0004722620119484945
1387.462069731394,1387.462069731394,1.0002263675782586,0.00047227219704700397
1387.4690143083405,1387.4690143083405,1.000043054727142,0.0004722826562422396
1387.4759588852637,1387.4759588852637,0.9998851995105632,0.00047225445549946776
1387.482903462163,1387.482903462163,0.99955443995249,0.00047222006350431647
1387.4898480390393,1387.4898480390393,0.9998696208536846,0.0004721303765367325
1387.4967926158695,1387.4967926158695,1.0000362033488615,0.00047225991822151477
1387.5037371926533,1387.5037371926533,0.9999911074060576,0.00047223335682134083
1387.5106817694123,1387.5106817694123,1.000163469242183,0.00047227988383979224
1387.5176263461492,1387.5176263461492,1.000649160174784,0.0004723079471533132
1387.5245709228398,1387.5245709228398,1.0003077151385888,0.00047230736091949415
1387.53151549953,1387.53151549953,0.9994777256348378,0.00047215860025062457
1387.53846007615,1387.53846007615,1.0001736815856472,0.0004723073510081533
1387.5454046527236,1387.5454046527236,0.9996175098714538,0.00047220341850680346
1387.5523492292746,1387.5523492292746,1.0003838423065323,0.00047231530643242756
1387.5592938058014,1387.5592938058014,0.9999297397545306,0.00047226686936659477
1387.566238382305,1387.566238382305,0.9998354638742614,0.00047230783159572754
1387.5731829587394,1387.5731829587394,0.999391700501258,0.00047222065861718865
1387.5801275351737,1387.5801275351737,0.9998355221303837,0.00047216250955866255
1387.5870721115605,1387.5870721115605,1.0000201722702333,0.0004722855654625935
1387.594016687925,1387.594016687925,0.9999079925195649,0.0004722362894010137
1387.6009612642429,1387.6009612642429,1.0008430301214035,0.0004724805014128211
1387.607905840514,1387.607905840514,0.9992088668905875,0.0004720922053121081
1387.6148504167609,1387.6148504167609,1.0003422580767771,0.00047225093466001574
1387.6217949929858,1387.6217949929858,0.9998568485302031,0.00047215951857916994
1387.6287395691643,1387.6287395691643,0.9997688948088005,0.00047212582600065654
1387.6356841453187,1387.6356841453187,1.0005697268331049,0.00047229912214759306
1387.6426287214265,1387.6426287214265,0.9998402925547838,0.0004721565691355177
1387.649573297535,1387.649573297535,0.9989464231489592,0.00047202427354973997
1387.6565178735734,1387.6565178735734,0.9997206792846637,0.00047216137891999377
1387.6634624496107,1387.6634624496107,1.0010265406893364,0.0004723810738547535
1387.670407025533,1387.670407025533,1.0001392782469056,0.00047228824536464593
1387.6773516015014,1387.6773516015014,0.9995568988711316,0.00047224461606733834
1387.6842961774237,1387.6842961774237,1.0001861696481122,0.00047230101300808024
1387.6912407532748,1387.6912407532748,0.9996144543653556,0.00047222158813425553
1387.6981853291268,1387.6981853291268,1.0005284891562662,0.00047237746983820833
1387.7051299049326,1387.7051299049326,0.9995301930537867,0.0004722581855052089
1387.7120744807148,1387.7120744807148,1.0001595237979133,0.00047229944881565
1387.7190190564493,1387.7190190564493,0.9994962119214221,0.0004722252805096348
