time,time,flux,flux_err
1325.302132614934,1325.302132614934,1.0000152983162658,7.003656642342251e-05
1325.3104659508342,1325.3104659508342,1.0000993436345482,7.005126398469925e-05
1325.3187992867345,1325.3187992867345,0.999947406292809,7.004875074054947e-05
1325.3264381779763,1325.3264381779763,1.0000011923426855,6.395111856828468e-05
1325.3333826245596,1325.3333826245596,0.9999562230502252,6.395293767202629e-05
1325.3403270712363,1325.3403270712363,0.9999284442225109,6.395398063258058e-05
1325.3472715179596,1325.3472715179596,0.9999432986594495,6.395654889421859e-05
1325.3542159646827,1325.3542159646827,0.9998845340964673,6.395426046285984e-05
1325.3611604114526,1325.3611604114526,1.000052230999663,6.39644191152687e-05
1325.3681048582225,1325.3681048582225,1.0000272064186495,6.39635522589436e-05
1325.375049305085,1325.375049305085,1.0001018500812593,6.396475509895357e-05
1325.3819937519015,1325.3819937519015,1.000050250763484,6.39623172712265e-05
1325.3889381987644,1325.3889381987644,0.9999290899356501,6.396260029244263e-05
1325.3958826456737,1325.3958826456737,1.0000211962202232,6.396601427895759e-05
1325.4028270926296,1325.4028270926296,0.9999241916194712,6.39631752442543e-05
1325.4097715396326,1325.4097715396326,0.9999771946182408,6.396062885813506e-05
1325.416715986588,1325.416715986588,1.00002294858785,6.396617259900985e-05
1325.423660433591,1325.423660433591,1.0000777389901803,6.396817459860796e-05
1325.4306048806402,1325.4306048806402,1.00002858752592,6.396837341478683e-05
1325.4375493277357,1325.4375493277357,0.9999509553133962,6.39646113677032e-05
1325.4444937748317,1325.4444937748317,1.0000380531259734,6.396579754910068e-05
1325.4514382220202,1325.4514382220202,0.999950824887055,6.396506926449852e-05
1325.4583826691628,1325.4583826691628,1.0000152354256735,6.396825456549322e-05
1325.4653271163513,1325.4653271163513,0.9999540914292002,6.39644500997733e-05
1325.4722715635867,1325.4722715635867,1.0000069858068819,6.396753921486321e-05
1325.4792160108223,1325.4792160108223,0.9999588477583986,6.396637735507971e-05
1325.4861604581042,1325.4861604581042,1.0000630031205393,6.397067934114744e-05
1325.4931049054328,1325.4931049054328,0.9999802706033517,6.396861429480415e-05
1325.5000493528082,1325.5000493528082,1.0000378966498953,6.397144583261888e-05
1325.506993800183,1325.506993800183,1.0000018954780698,6.39733905720965e-05
1325.5139382475584,1325.5139382475584,0.9999835253911826,6.397186717897662e-05
1325.52088269498,1325.52088269498,0.9999986049121791,6.397645603231328e-05
1325.5278271424481,1325.5278271424481,1.0000430096995672,6.397486852686319e-05
1325.5347715899627,1325.5347715899627,0.999974227612085,6.397569302395101e-05
1325.5417160374775,1325.5417160374775,1.0000493987140757,6.397694223484813e-05
1325.5486604849925,1325.5486604849925,0.9999344847629263,6.397445518923366e-05
1325.5556049326,1325.5556049326,0.9998751087796907,6.397484443856263e-05
1325.5625493802088,1325.5625493802088,1.0000530940363745,6.39805863800558e-05
1325.5694938278164,1325.5694938278164,1.0000384675725984,6.397878617594391e-05
1325.5764382754708,1325.5764382754708,1.000030421225326,6.398133316770458e-05
1325.5833827232186,1325.5833827232186,1.000038968287622,6.398333053197317e-05
1325.5903271709662,1325.5903271709662,0.999940671514363,6.398052713598804e-05
1325.5972716187139,1325.5972716187139,1.00004104264031,6.398348025799498e-05
1325.6042160664615,1325.6042160664615,1.000035177767112,6.398504983684622e-05
1325.611160514209,1325.611160514209,0.9999471910785938,6.398227017139108e-05
1325.6181049619568,1325.6181049619568,0.999974620553315,6.398350824120962e-05
1325.6250494098904,1325.6250494098904,1.0000187397157798,6.398507176796174e-05
1325.6319938576848,1325.6319938576848,1.0000728253791233,6.398636863500664e-05
1325.6389383056653,1325.6389383056653,1.0000035883150784,6.398747928435456e-05
1325.6458827535994,1325.6458827535994,0.9999836803182791,6.398626674772152e-05
1325.6528272015335,1325.6528272015335,0.9999158610903027,6.398671333423956e-05
1325.6597716495135,1325.6597716495135,0.9999195690036391,6.398716852218309e-05
1325.666716097494,1325.666716097494,1.000070739722545,6.39901611172822e-05
1325.673660545521,1325.673660545521,1.0000196815940758,6.39874215902308e-05
1325.6806049936415,1325.6806049936415,1.0000351908823883,6.398747777175347e-05
1325.6875494416684,1325.6875494416684,1.0000290514956984,6.399030714893254e-05
1325.694493889835,1325.694493889835,0.9999250401697027,6.398335372687842e-05
1325.7014383379553,1325.7014383379553,1.0000464921790966,6.399069262849976e-05
1325.7083827860756,1325.7083827860756,1.00002537987589,6.398995130709939e-05
1325.7153272342423,1325.7153272342423,1.000033140035771,6.399000480842058e-05
1325.7222716824554,1325.7222716824554,0.9999164820702182,6.398666804660807e-05
1325.7292161306689,1325.7292161306689,1.0000154024149084,6.399236242950682e-05
1325.7361605789285,1325.7361605789285,1.0000455150299836,6.399226508175832e-05
1325.7431050271884,1325.7431050271884,0.9999708050958379,6.399146355030278e-05
1325.7500494754947,1325.7500494754947,0.9999542349311467,6.399233337751954e-05
1325.756993923848,1325.756993923848,0.9999930143232489,6.399248759135318e-05
1325.7639383721544,1325.7639383721544,1.0000242470321559,6.399588472362453e-05
1325.7708828205073,1325.7708828205073,1.0000121357844756,6.399449138176671e-05
1325.7778272689068,1325.7778272689068,1.000010967891026,6.39957637457462e-05
1325.7847717173063,1325.7847717173063,0.9998526017294947,6.39913384380227e-05
1325.791716165706,1325.791716165706,1.0000481827523964,6.399961935289239e-05
1325.7986606141521,1325.7986606141521,1.0000530108051102,6.399809866323312e-05
1325.8056050626449,1325.8056050626449,1.0000704272018437,6.400160521161924e-05
1325.8125495111378,1325.8125495111378,1.0000410424815076,6.400143147176329e-05
1325.8194939595835,1325.8194939595835,0.9998870161299415,6.399670443708657e-05
1325.8264384081697,1325.8264384081697,1.0000438803888312,6.40014009683646e-05
1325.8333828567088,1325.8333828567088,1.0000241158301542,6.40057298425734e-05
1325.8403273052947,1325.8403273052947,1.0001058225404822,6.40096017657916e-05
1325.8472717538339,1325.8472717538339,0.9998797533381067,6.400100981737605e-05
1325.854216202466,1325.854216202466,0.9999630568600686,6.400363386948489e-05
1325.8611606510988,1325.8611606510988,0.999948536221611,6.400464048969724e-05
1325.8681050997309,1325.8681050997309,1.0000032068291276,6.400625274492576e-05
1325.8750495483637,1325.8750495483637,1.0001419800161382,6.400936142153674e-05
1325.8819939970426,1325.8819939970426,0.9998742207629032,6.400193394718145e-05
1325.8889384457682,1325.8889384457682,0.9999566668541592,6.400157267650035e-05
1325.895882894447,1325.895882894447,1.0000589259322195,6.400420119447661e-05
1325.9028273431727,1325.9028273431727,1.0000457053559941,6.40054512032231e-05
1325.9097717919446,1325.9097717919446,1.0000038388077013,6.400130119799578e-05
1325.9167162407168,1325.9167162407168,1.0000861765785312,6.400372280521891e-05
1325.9236606894888,1325.9236606894888,0.9999653099374651,6.400093577245654e-05
1325.9306051383078,1325.9306051383078,0.9999554857453088,6.400209633007157e-05
1325.9375495870795,1325.9375495870795,0.9999610289381791,6.400295703137064e-05
1325.9444940358983,1325.9444940358983,0.999997115011681,6.400074659264125e-05
1325.9514384848103,1325.9514384848103,0.9999722584391098,6.400362728705027e-05
1325.9583829336752,1325.9583829336752,1.000078145890807,6.400719503918983e-05
1325.9661607162705,1325.9661607162705,0.999951181184208,6.400338812835597e-05
1325.9736607210948,1325.9736607210948,1.0000543505734336,6.400561726891673e-05
1325.9806051700068,1325.9806051700068,0.9999783030112596,6.400428609028972e-05
1325.9875496189184,1325.9875496189184,0.9998581123050231,6.399631794289665e-05
1325.9944940678301,1325.9944940678301,1.0000442755849392,6.400466991469599e-05
1326.0014385168356,1326.0014385168356,1.000020063184022,6.400613553157541e-05
1326.0083829658865,1326.0083829658865,1.0000214579126532,6.40039448678632e-05
1326.0153274147988,1326.0153274147988,1.0000082372485326,6.400690218334458e-05
1326.0222718637103,1326.0222718637103,1.000078630097489,6.400838834445246e-05
1326.0292163128086,1326.0292163128086,0.9999976280146698,6.40044317254415e-05
1326.036160761767,1326.036160761767,0.9999487531771457,6.400670957254683e-05
1326.0431052108183,1326.0431052108183,1.0000269524404488,6.400650003458764e-05
1326.0500496598233,1326.0500496598233,0.9999235531015562,6.400275186217793e-05
1326.0569941088747,1326.0569941088747,1.0000448096333474,6.400633076530235e-05
1326.0639385578797,1326.0639385578797,1.000018000151647,6.400991060205129e-05
1326.0708830070246,1326.0708830070246,1.0000221368125395,6.400890986242362e-05
1326.0778274560757,1326.0778274560757,0.9999857309889018,6.400832308728688e-05
1326.0847719051276,1326.0847719051276,0.9999842526709302,6.400764817799145e-05
1326.0917163542254,1326.0917163542254,0.9999847295564519,6.401076265194022e-05
1326.0986608033704,1326.0986608033704,1.0000564808307206,6.401235133991885e-05
1326.1056052524682,1326.1056052524682,0.999940753254522,6.401050754120356e-05
1326.1125497016126,1326.1125497016126,1.000075291036978,6.401479993121318e-05
1326.1194941507574,1326.1194941507574,1.0000070216093229,6.401033794350996e-05
1326.1264385999016,1326.1264385999016,0.9998944514086723,6.400826381248209e-05
1326.1333830490469,1326.1333830490469,1.000044703390893,6.401104066187946e-05
1326.1403274981913,1326.1403274981913,0.9999811412917788,6.401030058597604e-05
1326.1472719473359,1326.1472719473359,0.9999949936617145,6.401165074125985e-05
1326.1542163965737,1326.1542163965737,0.999988413029642,6.400824262709814e-05
1326.161160845765,1326.161160845765,1.0000142927515245,6.401294060398623e-05
1326.1681052949098,1326.1681052949098,1.0000413514025595,6.40110486819673e-05
1326.1750497441008,1326.1750497441008,0.9999889975668415,6.401096021251075e-05
1326.1819941933386,1326.1819941933386,0.9998762072500739,6.400699884334852e-05
1326.188938642576,1326.188938642576,1.0000448919380722,6.401011118052746e-05
1326.195883091767,1326.195883091767,1.0001888246123711,6.401500142431733e-05
1326.2028275410053,1326.2028275410053,0.9999145451754095,6.400745833837311e-05
1326.2097719902426,1326.2097719902426,0.9999874841191655,6.400952109640704e-05
1326.216716439481,1326.216716439481,1.0000595883619459,6.40114728936865e-05
1326.223660888765,1326.223660888765,0.9999983544539972,6.400758681716777e-05
1326.2306053379564,1326.2306053379564,1.0001069949935526,6.401273878242492e-05
1326.2375497872406,1326.2375497872406,0.9999144244920872,6.400663670237677e-05
1326.244494236478,1326.244494236478,1.0000288231510193,6.400935360097838e-05
1326.2514386858097,1326.2514386858097,0.9999980811226455,6.401005196725231e-05
1326.2583831350003,1326.2583831350003,0.9999379052547077,6.400939146852545e-05
1326.2653275843315,1326.2653275843315,0.9999932050981929,6.401210911161334e-05
1326.2722720336155,1326.2722720336155,1.0000491859164007,6.401316616710307e-05
1326.2792164829,1326.2792164829,1.0000336056649703,6.401394089739808e-05
1326.2861609321847,1326.2861609321847,0.9999679203391955,6.401064868713974e-05
1326.2931053814223,1326.2931053814223,1.0001339625423866,6.401804164651331e-05
1326.3000498307529,1326.3000498307529,1.0000088095854567,6.401166871680863e-05
1326.306994280037,1326.306994280037,0.9999288202839424,6.400978050886449e-05
1326.3139387293218,1326.3139387293218,0.9999452948278282,6.401182584276209e-05
1326.3208831786528,1326.3208831786528,0.9999236348015133,6.40105072106435e-05
1326.3278276279834,1326.3278276279834,1.0001572348685663,6.401861867913315e-05
1326.334772077315,1326.334772077315,0.9999566679910753,6.401333683445002e-05
1326.3417165265987,1326.3417165265987,1.000016367322003,6.401536127572508e-05
1326.349216531889,1326.349216531889,1.0000312328985121,6.401445676842139e-05
1326.3583832049183,1326.3583832049183,0.9999430541117187,6.401201797974398e-05
1326.365327654296,1326.365327654296,1.0000864741016797,6.401724229630666e-05
1326.3722721036268,1326.3722721036268,1.000043987653465,6.401647698266463e-05
1326.379216552911,1326.379216552911,0.9999657992995117,6.401297753947735e-05
1326.3861610021954,1326.3861610021954,0.9999789122010352,6.401373064674665e-05
1326.3931054515729,1326.3931054515729,0.9998604085717886,6.401132990577595e-05
1326.4000499009037,1326.4000499009037,0.9999632960263936,6.401624030661611e-05
1326.4069943501881,1326.4069943501881,1.0001067134803163,6.401921952900236e-05
1326.4139387995658,1326.4139387995658,0.9999472391295428,6.401521254956332e-05
1326.42088324885,1326.42088324885,1.0000643717967086,6.401963640362449e-05
1326.4278276981809,1326.4278276981809,0.9999929189418498,6.40179772719754e-05
1326.4347721475117,1326.4347721475117,1.0000947098351367,6.401939605406756e-05
1326.4417165968425,1326.4417165968425,1.0000139232418555,6.402077376970475e-05
1326.4486610461272,1326.4486610461272,1.0000130768392983,6.401929669360565e-05
1326.4556054954578,1326.4556054954578,0.9998849883689545,6.401654270417346e-05
1326.4625499447889,1326.4625499447889,0.9999977231425925,6.401946363854612e-05
1326.4694943941195,1326.4694943941195,1.000011206045114,6.401884418921225e-05
1326.476438843404,1326.476438843404,1.0000050905068658,6.402316654959648e-05
1326.4833832927352,1326.4833832927352,1.0000143890872892,6.402379830664662e-05
1326.4903277420192,1326.4903277420192,1.0000459693851727,6.402567972965258e-05
1326.4972721913505,1326.4972721913505,0.999990212217833,6.402470812560603e-05
1326.5042166406809,1326.5042166406809,1.000006318281239,6.402436286744155e-05
1326.5111610900117,1326.5111610900117,0.9998950319398382,6.402341098986114e-05
1326.5181055392964,1326.5181055392964,0.999953983731011,6.402311314475484e-05
1326.5250499885808,1326.5250499885808,0.9999829286495887,6.402182264692487e-05
1326.5319944379116,1326.5319944379116,0.9999858257692674,6.402627132980185e-05
1326.5389388871959,1326.5389388871959,1.0001603881764367,6.402846519005273e-05
1326.5458833364803,1326.5458833364803,1.0000443824469278,6.402848967309522e-05
1326.552827785718,1326.552827785718,0.9999231322042913,6.402667103829794e-05
1326.5597722350021,1326.5597722350021,1.000013888230712,6.40288448754571e-05
1326.5667166843332,1326.5667166843332,1.0000155809017799,6.402701736524065e-05
1326.573661133571,1326.573661133571,1.0000620025508473,6.402860321873393e-05
1326.5806055828557,1326.5806055828557,0.9999420024241598,6.402729451216328e-05
1326.5875500321395,1326.5875500321395,0.9999581796794207,6.402665377331871e-05
1326.5944944813775,1326.5944944813775,1.0000477334121913,6.403275362412675e-05
1326.6014389306617,1326.6014389306617,0.9999421092162436,6.402942282941218e-05
1326.6083833798996,1326.6083833798996,1.0000087027509594,6.402980946307917e-05
1326.6153278291376,1326.6153278291376,0.9999593234731335,6.40317855496915e-05
1326.6222722784214,1326.6222722784214,0.9999577149302097,6.402801283039485e-05
1326.6292167276129,1326.6292167276129,1.0000373135304497,6.40299911161425e-05
1326.6361611768968,1326.6361611768968,1.000150874790796,6.403347407435178e-05
1326.6431056260885,1326.6431056260885,0.9999450555766639,6.402878168934469e-05
1326.650050075326,1326.650050075326,0.9999383802930524,6.402738097794353e-05
1326.6569945245642,1326.6569945245642,0.9999716287307099,6.402744508345791e-05
1326.6639389737552,1326.6639389737552,0.9999959946732467,6.402802973211535e-05
1326.6708834229462,1326.6708834229462,0.9999945046200602,6.40278175839943e-05
1326.6778278721379,1326.6778278721379,1.0001090880090893,6.402769332531345e-05
1326.6847723213755,1326.6847723213755,1.0000015970251923,6.402534130053354e-05
1326.6928278823925,1326.6928278823925,0.9999466181322674,6.402401678335981e-05
1326.70005010954,1326.70005010954,1.0000498892668885,6.402688003736567e-05
1326.7069945586848,1326.7069945586848,0.9999747035110808,6.402351610924972e-05
1326.7144945637888,1326.7144945637888,0.9999535559530747,6.40226530825946e-05
1326.7222723468496,1326.7222723468496,1.0000307802334345,6.402596177268668e-05
1326.7292167959943,1326.7292167959943,0.9999150742021804,6.402187954233126e-05
1326.7361612451389,1326.7361612451389,1.0000382669872578,6.402543931781554e-05
1326.7431056942837,1326.7431056942837,1.0000769392964481,6.402313559553802e-05
1326.7500501433813,1326.7500501433813,0.9999482264673105,6.402248783563352e-05
1326.7569945925256,1326.7569945925256,1.0000680935543025,6.40268021350142e-05
1326.7639390416243,1326.7639390416243,0.9999254812414742,6.401795588007882e-05
1326.7708834906757,1326.7708834906757,0.9999942777957042,6.40230616500307e-05
1326.7778279397737,1326.7778279397737,1.0000554919209186,6.402232575403875e-05
1326.7847723889186,1326.7847723889186,0.9999832153200627,6.402177898586127e-05
1326.79171683797,1326.79171683797,1.0000025628550764,6.402323600504376e-05
1326.798661286975,1326.798661286975,0.9999482519016031,6.402167357590422e-05
1326.8056057361196,1326.8056057361196,1.000061332889619,6.402506453790165e-05
1326.8125501850777,1326.8125501850777,0.9998896374225392,6.401911024121904e-05
1326.819494634176,1326.819494634176,1.0000451792561735,6.402634787821078e-05
1326.8264390831341,1326.8264390831341,1.0000838975039295,6.402469385436575e-05
1326.8333835322323,1326.8333835322323,0.9998622342513546,6.401584096813012e-05
1326.8403279811441,1326.8403279811441,1.0001275747034566,6.402576699754276e-05
1326.8472724302424,1326.8472724302424,0.9999189399869168,6.401964137882113e-05
1326.8542168792005,1326.8542168792005,0.9999313383525841,6.401839878718862e-05
1326.8611613281125,1326.8611613281125,1.0000174155696961,6.402096460525475e-05
1326.8681057770712,1326.8681057770712,0.9999693883523101,6.401922789459851e-05
1326.875050226169,1326.875050226169,0.9999902730950808,6.40221885420528e-05
1326.8819946750805,1326.8819946750805,1.0000337709668858,6.401945090987717e-05
1326.8889391239925,1326.8889391239925,0.9999604233754716,6.401670859778776e-05
1326.895883572904,1326.895883572904,1.0000791295908011,6.402234999980651e-05
1326.9028280218165,1326.9028280218165,0.9999824526492652,6.401533282032195e-05
1326.9097724707278,1326.9097724707278,1.0001394736993334,6.402021545285086e-05
1326.9167169196396,1326.9167169196396,0.9999254235075098,6.401292664788123e-05
1326.9236613685516,1326.9236613685516,0.9998749738163912,6.400941512478371e-05
1326.9306058173702,1326.9306058173702,1.000047075569291,6.401319242019187e-05
1326.9375502661426,1326.9375502661426,1.0000363230985596,6.401187604800591e-05
1326.9444947150541,1326.9444947150541,0.99996545346941,6.400752358256531e-05
1326.9514391639661,1326.9514391639661,0.9999399672165762,6.400702041620199e-05
1326.958383612645,1326.958383612645,1.000006735216502,6.400984216272817e-05
1326.965328061557,1326.965328061557,0.9999831318018849,6.400597114758949e-05
1326.9722725103288,1326.9722725103288,1.0000272144588194,6.400580427518783e-05
1326.9792169591474,1326.9792169591474,1.0000192989588945,6.400739490260699e-05
1326.9861614078734,1326.9861614078734,1.0000740724890658,6.400538874984496e-05
1326.9931058566915,1326.9931058566915,0.9999760044605642,6.400200650700499e-05
1327.0000503054175,1327.0000503054175,1.0000488733405484,6.399939988484664e-05
1327.0069947541429,1327.0069947541429,0.9999810233758663,6.400157740980415e-05
1327.0139392028686,1327.0139392028686,0.9999952557010816,6.399935268098928e-05
1327.0208836515942,1327.0208836515942,0.9998945320274066,6.399841783267062e-05
1327.027828100273,1327.027828100273,1.0000957419242125,6.400281588369692e-05
1327.0347725489523,1327.0347725489523,0.9998349771045305,6.399837433369975e-05
1327.0417169976306,1327.0417169976306,1.0000036833708839,6.400279642529e-05
1327.0486614463102,1327.0486614463102,1.0000946852513652,6.400542681758026e-05
1327.0556058949423,1327.0556058949423,1.0000917776009306,6.400286593959262e-05
1327.063383677398,1327.063383677398,1.000057934813492,6.4004882136483e-05
1327.0708836818965,1327.0708836818965,1.000007009788448,6.400269031034528e-05
1327.077828130529,1327.077828130529,1.0000456209637618,6.400646173160493e-05
