time,time,flux,flux_err
1354.1084280178206,1354.1084280178206,385128.75,68.80662
1354.1098169123065,1354.1098169123065,385045.62,68.80874
1354.1125947015094,1354.1125947015094,384968.9,68.76135
1354.1139835959953,1354.1139835959953,385125.28,68.825294
1354.115372490597,1354.115372490597,385172.38,68.825165
1354.1167613851987,1354.1167613851987,385203.44,68.82653
1354.1181502798004,1354.1181502798004,385184.75,68.81771
1354.1195391744027,1354.1195391744027,385157.66,68.818924
1354.1209280690052,1354.1209280690052,385244.75,68.82152
1354.1223169637233,1354.1223169637233,385042.97,68.80889
1354.1237058583251,1354.1237058583251,385150.0,68.81501
1354.1250947529265,1354.1250947529265,385167.34,68.810005
1354.1264836476448,1354.1264836476448,385174.62,68.81817
1354.1278725422471,1354.1278725422471,385101.34,68.80551
1354.1292614369654,1354.1292614369654,385096.1,68.809235
1354.1306503315668,1354.1306503315668,385106.7,68.807915
1354.1320392262858,1354.1320392262858,385124.4,68.81082
1354.1334281210038,1354.1334281210038,385089.78,68.80754
1354.1348170157225,1354.1348170157225,385136.56,68.81027
1354.1362059104408,1354.1362059104408,385071.1,68.80389
1354.1375948051582,1354.1375948051582,385158.12,68.80105
1354.138983699877,1354.138983699877,384976.38,68.79919
1354.1403725945956,1354.1403725945956,385070.97,68.79805
1354.141761489314,1354.141761489314,385018.0,68.79431
1354.1431503841484,1354.1431503841484,384958.12,68.796745
1354.1445392788664,1354.1445392788664,384937.38,68.78924
1354.1459281737016,1354.1459281737016,384975.8,68.79257
1354.1473170684205,1354.1473170684205,385002.88,68.79466
1354.1487059632545,1354.1487059632545,384946.84,68.79008
1354.1500948580888,1354.1500948580888,384916.84,68.78619
1354.1514837528075,1354.1514837528075,384889.56,68.78454
1354.1528726476429,1354.1528726476429,384799.66,68.77712
1354.1542615424773,1354.1542615424773,384978.0,68.79208
1354.1556504373111,1354.1556504373111,384981.2,68.79465
1354.1570393321463,1354.1570393321463,384821.44,68.775955
1354.1584282269816,1354.1584282269816,384843.6,68.778824
1354.159817121816,1354.159817121816,384843.72,68.77892
1354.1612060167672,1354.1612060167672,384686.8,68.76822
1354.1625949116014,1354.1625949116014,384685.6,68.7647
1354.1639838065532,1354.1639838065532,384646.94,68.763535
1354.1653727013886,1354.1653727013886,384585.16,68.75654
1354.1667615963388,1354.1667615963388,384701.94,68.76516
1354.1681504911733,1354.1681504911733,384547.12,68.75077
1354.169539386125,1354.169539386125,384566.38,68.75283
1354.1709282810757,1354.1709282810757,384561.75,68.757065
1354.1723171760273,1354.1723171760273,384513.75,68.744576
1354.1737060709784,1354.1737060709784,384503.03,68.74751
1354.1750949659295,1354.1750949659295,384671.47,68.76538
1354.176483860881,1354.176483860881,384577.44,68.7574
1354.1778727558317,1354.1778727558317,384553.16,68.755486
1354.1792616507835,1354.1792616507835,384446.72,68.74509
1354.1806505457344,1354.1806505457344,384425.56,68.742035
1354.182039440801,1354.182039440801,384390.56,68.73439
1354.1834283357528,1354.1834283357528,384269.06,68.72634
1354.184817230821,1354.184817230821,384309.47,68.72829
1354.1862061257716,1354.1862061257716,384355.72,68.73999
1354.1875950208391,1354.1875950208391,384265.03,68.7302
1354.1889839159064,1354.1889839159064,384109.5,68.71644
1354.1903728108582,1354.1903728108582,384220.0,68.72457
1354.1917617059262,1354.1917617059262,384234.06,68.732994
1354.1931506009928,1354.1931506009928,384042.6,68.70721
1354.19453949606,1354.19453949606,383949.5,68.70236
1354.1959283911283,1354.1959283911283,384071.62,68.71435
1354.1973172861963,1354.1973172861963,383995.34,68.70737
1354.1987061812633,1354.1987061812633,383899.6,68.697334
1354.2000950764466,1354.2000950764466,383998.8,68.70875
1354.2014839715148,1354.2014839715148,383919.16,68.7009
1354.2028728665828,1354.2028728665828,383848.5,68.69396
1354.2042617617662,1354.2042617617662,383876.0,68.704
1354.2056506568338,1354.2056506568338,383834.3,68.69945
1354.2070395520177,1354.2070395520177,383744.94,68.684746
1354.208428447202,1354.208428447202,383746.62,68.69251
1354.20981734227,1354.20981734227,383730.2,68.68149
1354.211206237453,1354.211206237453,383782.84,68.69786
1354.212595132637,1354.212595132637,383643.4,68.67794
1354.2139840278214,1354.2139840278214,383725.88,68.688995
1354.2153729230051,1354.2153729230051,383510.66,68.66829
1354.2167618181898,1354.2167618181898,383672.6,68.68776
1354.2181507133732,1354.2181507133732,383509.7,68.665405
1354.2195396086736,1354.2195396086736,383457.84,68.66675
1354.220928503858,1354.220928503858,383398.88,68.659775
1354.222317399042,1354.222317399042,383341.9,68.6572
1354.2237062943418,1354.2237062943418,383379.84,68.662056
1354.2250951895257,1354.2250951895257,383413.38,68.666794
1354.2264840848259,1354.2264840848259,383163.0,68.641556
1354.2278729800105,1354.2278729800105,383332.16,68.66129
1354.2292618753113,1354.2292618753113,383247.22,68.65325
1354.2306507706114,1354.2306507706114,383144.1,68.639435
1354.2320396657951,1354.2320396657951,383271.47,68.657265
1354.2334285610955,1354.2334285610955,383072.78,68.63632
1354.2348174563963,1354.2348174563963,383229.97,68.654945
1354.236206351697,1354.236206351697,383121.88,68.63536
1354.2375952469965,1354.2375952469965,383090.12,68.641304
1354.2389841422969,1354.2389841422969,383101.3,68.643036
1354.240373037714,1354.240373037714,383148.3,68.645065
1354.241761933015,1354.241761933015,382801.78,68.612976
1354.2431508283153,1354.2431508283153,382962.66,68.635315
1354.2445397237311,1354.2445397237311,382950.03,68.62935
1354.245928619032,1354.245928619032,382877.47,68.62042
1354.2473175144492,1354.2473175144492,382732.56,68.61101
1354.2487064097495,1354.2487064097495,382817.94,68.618286
1354.2500953051658,1354.2500953051658,382767.7,68.61545
1354.2514842004662,1354.2514842004662,382716.72,68.60475
1354.2528730958834,1354.2528730958834,382543.8,68.59667
1354.2542619913006,1354.2542619913006,382733.4,68.61382
1354.2556508867165,1354.2556508867165,382604.16,68.59589
1354.2570397821332,1354.2570397821332,382561.53,68.59709
1354.2584286775505,1354.2584286775505,382596.97,68.5955
1354.2598175729672,1354.2598175729672,382605.0,68.60361
1354.2612064683844,1354.2612064683844,382493.66,68.59088
1354.262595363801,1354.262595363801,382372.97,68.58239
1354.263984259334,1354.263984259334,382462.25,68.58969
1354.2653731547512,1354.2653731547512,382344.1,68.57386
1354.266762050168,1354.266762050168,382345.38,68.5808
1354.268150945701,1354.268150945701,382096.28,68.55538
1354.2695398411174,1354.2695398411174,382114.47,68.55893
1354.2709287366506,1354.2709287366506,382195.6,68.56793
1354.2723176321842,1354.2723176321842,382152.7,68.561104
1354.2737065276015,1354.2737065276015,382061.56,68.55509
1354.2750954231346,1354.2750954231346,382115.75,68.557945
1354.2764843186674,1354.2764843186674,382020.06,68.54908
1354.2778732142006,1354.2778732142006,382073.5,68.55457
1354.2792621097342,1354.2792621097342,382019.7,68.54993
1354.2806510052674,1354.2806510052674,381958.75,68.53989
1354.2820399007996,1354.2820399007996,381990.78,68.5457
1354.2834287963333,1354.2834287963333,381860.6,68.535034
1354.284817691867,1354.284817691867,381941.66,68.54365
1354.286206587517,1354.286206587517,381855.72,68.53684
1354.2875954830502,1354.2875954830502,381915.2,68.537674
1354.2889843785824,1354.2889843785824,381814.16,68.53389
1354.2903732742325,1354.2903732742325,381781.53,68.526146
1354.2917621697661,1354.2917621697661,381792.6,68.530716
1354.293151065415,1354.293151065415,381709.88,68.515816
1354.294539960948,1354.294539960948,381676.06,68.51975
1354.295928856598,1354.295928856598,381590.88,68.512794
1354.297317752248,1354.297317752248,381601.7,68.51087
1354.2987066478984,1354.2987066478984,381620.25,68.51106
1354.3000955435473,1354.3000955435473,381666.5,68.51671
1354.30148443908,1354.30148443908,381549.84,68.50557
1354.30287333473,1354.30287333473,381708.0,68.51691
1354.3042622303797,1354.3042622303797,381576.06,68.50961
1354.3056511261461,1354.3056511261461,381483.12,68.499214
1354.3070400217957,1354.3070400217957,381303.66,68.47826
1354.308428917445,1354.308428917445,381434.97,68.49056
1354.3098178130954,1354.3098178130954,381398.1,68.48693
1354.311206708861,1354.311206708861,381293.66,68.48014
1354.3125956045105,1354.3125956045105,381313.25,68.48102
1354.31398450016,1354.31398450016,381246.44,68.47568
1354.3153733959257,1354.3153733959257,381167.44,68.468475
1354.3167622916922,1354.3167622916922,381135.03,68.46225
1354.3181511873422,1354.3181511873422,381185.16,68.46618
1354.3195400831082,1354.3195400831082,381162.6,68.47107
1354.3209289788742,1354.3209289788742,381067.3,68.45298
1354.3223178745234,1354.3223178745234,381133.84,68.46868
1354.3237067702898,1354.3237067702898,381087.38,68.45824
1354.3250956660559,1354.3250956660559,381222.0,68.46684
1354.326484561821,1354.326484561821,381028.5,68.45905
1354.3278734575874,1354.3278734575874,381107.9,68.45601
1354.3292623533541,1354.3292623533541,380982.06,68.44571
1354.3306512491208,1354.3306512491208,380915.8,68.4437
1354.3320401450028,1354.3320401450028,381016.06,68.442825
1354.333429040768,1354.333429040768,380941.03,68.448586
1354.3348179365346,1354.3348179365346,380938.12,68.43895
1354.3362068324177,1354.3362068324177,380801.72,68.42943
1354.3375957281828,1354.3375957281828,380984.25,68.44802
1354.3389846239484,1354.3389846239484,380773.88,68.42122
1354.3403735198315,1354.3403735198315,380808.28,68.42978
1354.3417624157146,1354.3417624157146,380796.84,68.425705
1354.343151311481,1354.343151311481,380823.66,68.43318
1354.3445402073626,1354.3445402073626,380813.72,68.42427
1354.3459291032448,1354.3459291032448,380678.56,68.42155
1354.3473179990115,1354.3473179990115,380578.3,68.402504
1354.3487068948934,1354.3487068948934,380689.28,68.41983
1354.3500957907759,1354.3500957907759,380703.2,68.41408
1354.351484686658,1354.351484686658,380696.97,68.418594
1354.3528735825412,1354.3528735825412,380740.56,68.41794
1354.354262478424,1354.354262478424,380665.03,68.41353
1354.3556513744227,1354.3556513744227,380578.06,68.40118
1354.3570402703049,1354.3570402703049,380518.0,68.40689
1354.3584291661873,1354.3584291661873,380536.0,68.39764
1354.3598180620693,1354.3598180620693,380464.4,68.39537
1354.3612069580688,1354.3612069580688,380521.72,68.385735
1354.362595853952,1354.362595853952,380542.38,68.400894
1354.3639847499503,1354.3639847499503,380529.94,68.39394
1354.3653736458327,1354.3653736458327,380405.84,68.3879
1354.3667625418313,1354.3667625418313,380519.38,68.394196
1354.3681514377145,1354.3681514377145,380523.53,68.38902
1354.3695403337128,1354.3695403337128,380336.66,68.381
1354.3709292297108,1354.3709292297108,380327.16,68.371284
1354.3723181257103,1354.3723181257103,380383.34,68.38457
1354.3737070215934,1354.3737070215934,380417.5,68.38302
1354.3750959175927,1354.3750959175927,380263.72,68.37262
1354.3764848135913,1354.3764848135913,380151.47,68.359436
1354.3778737095895,1354.3778737095895,380317.5,68.368965
1354.3792626055888,1354.3792626055888,380276.25,68.37285
1354.380651501588,1354.380651501588,380293.22,68.37051
1354.3820403977024,1354.3820403977024,380207.9,68.364105
1354.3834292937013,1354.3834292937013,380210.47,68.3639
1354.3848181897006,1354.3848181897006,380213.0,68.36116
1354.3862070856999,1354.3862070856999,380088.62,68.35057
1354.3875959818156,1354.3875959818156,380122.38,68.35545
1354.3889848778135,1354.3889848778135,380087.38,68.35272
1354.3903737739288,1354.3903737739288,380154.97,68.352715
1354.391762669928,1354.391762669928,380062.47,68.349686
1354.3931515660433,1354.3931515660433,380088.72,68.347336
1354.3945404620417,1354.3945404620417,380039.0,68.34677
1354.395929358157,1354.395929358157,380162.66,68.35285
1354.3973182542727,1354.3973182542727,379962.9,68.33467
1354.3987071503884,1354.3987071503884,380089.34,68.34772
1354.4000960463873,1354.4000960463873,379999.66,68.34209
1354.401484942502,1354.401484942502,379836.56,68.327705
1354.4028738386173,1354.4028738386173,379923.7,68.3294
1354.4042627347326,1354.4042627347326,379929.34,68.33352
1354.4056516308483,1354.4056516308483,379734.1,68.3162
1354.407040526964,1354.407040526964,379780.06,68.314705
1354.4084294231955,1354.4084294231955,379937.88,68.3344
1354.4098183193105,1354.4098183193105,379861.88,68.32996
1354.4112072154257,1354.4112072154257,379839.28,68.32344
1354.4125961115415,1354.4125961115415,379843.12,68.32336
1354.4139850077731,1354.4139850077731,379714.56,68.31392
1354.4153739038875,1354.4153739038875,379642.16,68.30552
1354.4167628001196,1354.4167628001196,379762.03,68.315
1354.4181516962353,1354.4181516962353,379658.75,68.30888
1354.4195405924675,1354.4195405924675,379774.38,68.316734
1354.4209294885827,1354.4209294885827,379736.9,68.311134
1354.4223183848135,1354.4223183848135,379867.84,68.32614
1354.4237072809292,1354.4237072809292,379852.22,68.321236
1354.4250961771613,1354.4250961771613,379750.34,68.316536
1354.426485073392,1354.426485073392,379761.88,68.3155
1354.4278739696238,1354.4278739696238,379655.12,68.30618
1354.429262865856,1354.429262865856,379666.53,68.304634
1354.430651762088,1354.430651762088,379659.38,68.3056
1354.4320406583201,1354.4320406583201,379607.7,68.30202
1354.433429554551,1354.433429554551,379703.44,68.30172
1354.4348184507826,1354.4348184507826,379594.94,68.30681
1354.4362073470147,1354.4362073470147,379530.56,68.28952
1354.4375962432464,1354.4375962432464,379417.25,68.28047
1354.4389851394778,1354.4389851394778,379544.44,68.29213
1354.4403740358257,1354.4403740358257,379590.06,68.2964
1354.4417629320578,1354.4417629320578,379595.0,68.303154
1354.44315182829,1354.44315182829,379512.38,68.28941
1354.444540724638,1354.444540724638,379518.12,68.289154
1354.4459296208697,1354.4459296208697,379588.38,68.297585
1354.4473185172174,1354.4473185172174,379445.4,68.292854
1354.448707413449,1354.448707413449,379283.4,68.26214
1354.4500963097976,1354.4500963097976,379497.6,68.29149
1354.4514852061461,1354.4514852061461,379389.66,68.27576
1354.4528741023778,1354.4528741023778,379386.4,68.277374
1354.4542629987257,1354.4542629987257,379419.2,68.27632
1354.4556518950735,1354.4556518950735,379318.7,68.275
1354.457040791422,1354.457040791422,379264.9,68.26663
1354.4584296877701,1354.4584296877701,379395.06,68.28121
1354.4598185841173,1354.4598185841173,379313.72,68.26991
1354.4612074804659,1354.4612074804659,379336.88,68.27195
1354.4625963768144,1354.4625963768144,379287.38,68.26709
1354.463985273163,1354.463985273163,379347.84,68.27463
1354.465374169511,1354.465374169511,379176.34,68.25858
1354.4667630658582,1354.4667630658582,379269.78,68.26555
1354.4681519622068,1354.4681519622068,379480.12,68.283195
1354.4695408585553,1354.4695408585553,379292.6,68.2666
1354.4709297550191,1354.4709297550191,379212.25,68.26504
1354.472318651367,1354.472318651367,379361.5,68.271454
1354.473707547832,1354.473707547832,379440.2,68.28126
1354.4750964441807,1354.4750964441807,379378.66,68.27281
1354.476485340646,1354.476485340646,379268.78,68.26278
1354.477874236993,1354.477874236993,379179.0,68.25969
1354.4792631334572,1354.4792631334572,379532.2,68.28697
1354.480652029806,1354.480652029806,379204.53,68.25976
1354.4820409262702,1354.4820409262702,379141.97,68.25367
1354.4834298227347,1354.4834298227347,379321.22,68.26869
1354.4848187190823,1354.4848187190823,379241.72,68.26494
1354.4862076155475,1354.4862076155475,379285.03,68.261566
1354.4875965120127,1354.4875965120127,379294.03,68.2685
1354.4889854084768,1354.4889854084768,379265.28,68.26133
1354.4903743049413,1354.4903743049413,379277.94,68.26385
1354.4917632014055,1354.4917632014055,379230.72,68.26318
1354.4931520978698,1354.4931520978698,379270.9,68.26172
1354.4945409943348,1354.4945409943348,379347.66,68.27329
1354.4959298908,1354.4959298908,379280.8,68.2618
1354.4973187872642,1354.4973187872642,379280.7,68.2675
1354.4987076838452,1354.4987076838452,379284.56,68.262314
1354.5000965803092,1354.5000965803092,379205.97,68.25428
1354.5014854767744,1354.5014854767744,379308.28,68.26266
1354.502874373355,1354.502874373355,379405.5,68.2733
1354.5042632698187,1354.5042632698187,379246.97,68.26434
1354.5056521662837,1354.5056521662837,379412.66,68.27483
1354.5070410628653,1354.5070410628653,379233.78,68.25626
1354.5084299593304,1354.5084299593304,379547.0,68.28519
1354.509818855911,1354.509818855911,379210.9,68.26242
1354.511207752491,1354.511207752491,379407.03,68.271255
1354.512596648956,1354.512596648956,379416.5,68.27327
1354.5139855455377,1354.5139855455377,379495.62,68.277695
1354.5153744421177,1354.5153744421177,379410.53,68.27451
1354.516763338582,1354.516763338582,379319.53,68.267685
1354.5181522351636,1354.5181522351636,379234.38,68.256294
1354.519541131745,1354.519541131745,379307.53,68.25768
1354.5209300283263,1354.5209300283263,379190.5,68.25263
1354.5223189249064,1354.5223189249064,379347.44,68.26361
1354.5237078214873,1354.5237078214873,379467.88,68.27927
1354.5250967180687,1354.5250967180687,379265.2,68.254524
1354.5264856146491,1354.5264856146491,379237.34,68.25444
1354.52787451123,1354.52787451123,379386.0,68.27063
1354.529263407811,1354.529263407811,379380.0,68.2678
1354.5306523045087,1354.5306523045087,379418.1,68.26612
1354.5320412010901,1354.5320412010901,379246.7,68.25542
1354.533430097671,1354.533430097671,379330.47,68.25682
1354.5348189942515,1354.5348189942515,379415.78,68.27329
1354.5362078909488,1354.5362078909488,379440.25,68.2676
1354.5375967875295,1354.5375967875295,379532.9,68.28422
1354.5389856842276,1354.5389856842276,379521.56,68.27729
1354.540374580809,1354.540374580809,379365.53,68.26564
1354.5417634775058,1354.5417634775058,379420.28,68.27244
1354.5431523740867,1354.5431523740867,379407.44,68.26478
1354.544541270784,1354.544541270784,379393.7,68.27509
1354.5459301674819,1354.5459301674819,379535.44,68.27016
1354.5473190640623,1354.5473190640623,379484.3,68.28023
1354.548707960759,1354.548707960759,379544.4,68.28217
1354.550096857457,1354.550096857457,379604.25,68.28111
1354.5514857541548,1354.5514857541548,379463.3,68.26975
1354.5528746507362,1354.5528746507362,379537.1,68.27544
1354.5542635474335,1354.5542635474335,379528.72,68.282486
1354.55565244413,1354.55565244413,379572.53,68.27669
1354.5570413408277,1354.5570413408277,379704.72,68.288345
1354.5584302375255,1354.5584302375255,379576.66,68.27814
1354.559819134222,1354.559819134222,379718.72,68.29427
1354.5612080309193,1354.5612080309193,379673.94,68.28817
1354.5625969277335,1354.5625969277335,379812.25,68.297
1354.5639858244313,1354.5639858244313,379657.0,68.288765
1354.565374721129,1354.565374721129,379586.28,68.2739
1354.5667636178255,1354.5667636178255,379689.66,68.29101
1354.5681525146392,1354.5681525146392,379697.44,68.28915
1354.569541411337,1354.569541411337,379652.88,68.2815
1354.5709303080343,1354.5709303080343,379738.75,68.28998
1354.5723192048476,1354.5723192048476,379804.88,68.29564
1354.573708101545,1354.573708101545,379739.56,68.288315
1354.5750969983592,1354.5750969983592,379813.0,68.29956
1354.576485895057,1354.576485895057,379775.7,68.292435
1354.5778747918707,1354.5778747918707,379867.8,68.29541
1354.5792636885678,1354.5792636885678,379871.6,68.296745
1354.5806525853814,1354.5806525853814,379822.7,68.29498
1354.582041482195,1354.582041482195,379774.03,68.29278
1354.5834303790093,1354.5834303790093,379864.22,68.29787
1354.584819275707,1354.584819275707,379867.44,68.30136
1354.5862081725209,1354.5862081725209,380007.12,68.31076
1354.5875970693342,1354.5875970693342,380148.06,68.32029
1354.588985966148,1354.588985966148,379988.84,68.30786
1354.590374862962,1354.590374862962,379984.75,68.3086
1354.5917637597759,1354.5917637597759,379934.62,68.30275
1354.5931526565887,1354.5931526565887,380179.72,68.32481
1354.594541553403,1354.594541553403,380158.16,68.315285
1354.595930450217,1354.595930450217,380068.72,68.314865
1354.5973193470313,1354.5973193470313,380143.12,68.31978
1354.598708243845,1354.598708243845,380193.4,68.32966
1354.600097140658,1354.600097140658,380244.22,68.32818
