time,time,flux,flux_err
1354.1119780042818,1354.1119780042818,1772.029,7.690856
1354.1133669121555,1354.1133669121555,1761.603,7.6795673
1354.1161447276681,1354.1161447276681,1766.2227,7.6732364
1354.117533635309,1354.117533635309,1765.5035,7.691054
1354.1189225431822,1354.1189225431822,1766.1597,7.6931086
1354.1203114508223,1354.1203114508223,1759.5237,7.675725
1354.1217003586953,1354.1217003586953,1760.0311,7.676719
1354.1230892663361,1354.1230892663361,1764.7689,7.681832
1354.12447817421,1354.12447817421,1764.1768,7.680374
1354.1258670818502,1354.1258670818502,1763.2645,7.6765313
1354.1272559897234,1354.1272559897234,1768.1062,7.683591
1354.1286448973633,1354.1286448973633,1765.9662,7.676491
1354.1300338052365,1354.1300338052365,1760.0334,7.6748133
1354.1314227128773,1354.1314227128773,1755.2385,7.67323
1354.1328116207505,1354.1328116207505,1761.2721,7.682096
1354.1342005283905,1354.1342005283905,1768.2483,7.6844144
1354.1355894362644,1354.1355894362644,1759.6627,7.67934
1354.1369783439045,1354.1369783439045,1763.5421,7.6805186
1354.1383672517782,1354.1383672517782,1765.4065,7.6765194
1354.1397561594185,1354.1397561594185,1755.1317,7.674478
1354.1411450672908,1354.1411450672908,1767.0942,7.674217
1354.1425339749317,1354.1425339749317,1778.5546,7.6968365
1354.1439228828053,1354.1439228828053,1764.0104,7.681741
1354.1453117904457,1354.1453117904457,1779.4221,7.6938486
1354.1467006983187,1354.1467006983187,1764.3969,7.6827836
1354.1480896059588,1354.1480896059588,1764.3707,7.6846156
1354.1494785138325,1354.1494785138325,1754.8021,7.677077
1354.1508674214735,1354.1508674214735,1770.0128,7.6883535
1354.152256329346,1354.152256329346,1760.0358,7.6757674
1354.153645236986,1354.153645236986,1749.587,7.6647806
1354.1550341448597,1354.1550341448597,1757.4509,7.6703434
1354.1564230525007,1354.1564230525007,1765.6307,7.6795
1354.1578119603737,1354.1578119603737,1762.2363,7.6852126
1354.1592008680132,1354.1592008680132,1758.2826,7.6779656
1354.1605897758868,1354.1605897758868,1773.8983,7.690344
1354.1619786835279,1354.1619786835279,1771.484,7.6935105
1354.1633675914009,1354.1633675914009,1771.8616,7.6872783
1354.1647564990412,1354.1647564990412,1761.0417,7.681489
1354.166145406914,1354.166145406914,1757.9961,7.671788
1354.167534314555,1354.167534314555,1764.4246,7.683813
1354.168923222196,1354.168923222196,1761.4465,7.6822743
1354.1703121300684,1354.1703121300684,1764.375,7.683996
1354.1717010377085,1354.1717010377085,1768.7731,7.6840467
1354.1730899455824,1354.1730899455824,1760.3024,7.676401
1354.1744788532224,1354.1744788532224,1756.458,7.6726656
1354.175867761096,1354.175867761096,1748.203,7.6622324
1354.1772566687364,1354.1772566687364,1765.3518,7.6802564
1354.1786455766096,1354.1786455766096,1772.3774,7.687557
1354.1800344842504,1354.1800344842504,1770.8958,7.6849356
1354.1814233921232,1354.1814233921232,1758.7458,7.668049
1354.1828122997642,1354.1828122997642,1770.9568,7.683304
1354.1842012076372,1354.1842012076372,1750.6573,7.670195
1354.1855901152767,1354.1855901152767,1766.3763,7.6759167
1354.1869790231506,1354.1869790231506,1765.5756,7.677362
1354.1883679307916,1354.1883679307916,1758.943,7.670351
1354.1897568386644,1354.1897568386644,1754.6459,7.6688366
1354.1911457463048,1354.1911457463048,1758.5388,7.674291
1354.1925346541777,1354.1925346541777,1754.6852,7.674948
1354.1939235618188,1354.1939235618188,1759.4829,7.678299
1354.1953124696925,1354.1953124696925,1759.11,7.6725082
1354.196701377332,1354.196701377332,1771.083,7.6830435
1354.198090285205,1354.198090285205,1770.7992,7.68316
1354.199479192846,1354.199479192846,1752.7906,7.675593
1354.2008681007196,1354.2008681007196,1767.7617,7.6804657
1354.2022570083595,1354.2022570083595,1769.8712,7.683483
1354.203645916232,1354.203645916232,1757.9619,7.672145
1354.2050348238731,1354.2050348238731,1767.3634,7.6863117
1354.2064237317468,1354.2064237317468,1740.8982,7.6593637
1354.2078126393867,1354.2078126393867,1751.5242,7.6674047
1354.20920154726,1354.20920154726,1767.2646,7.676126
1354.2105904549003,1354.2105904549003,1765.9594,7.675966
1354.211979362774,1354.211979362774,1761.0952,7.6831093
1354.2133682704148,1354.2133682704148,1765.9614,7.681169
1354.214757178287,1354.214757178287,1758.5453,7.677365
1354.2161460859274,1354.2161460859274,1752.2115,7.668315
1354.217534993801,1354.217534993801,1753.6305,7.674653
1354.2189239014413,1354.2189239014413,1761.3959,7.673202
1354.2203128093151,1354.2203128093151,1756.9883,7.6717844
1354.221701716955,1354.221701716955,1754.8066,7.6724796
1354.2230906248283,1354.2230906248283,1760.4927,7.677885
1354.224479532469,1354.224479532469,1757.2085,7.663001
1354.2258684403423,1354.2258684403423,1756.8057,7.6727715
1354.2272573479822,1354.2272573479822,1753.7152,7.669645
1354.2286462556226,1354.2286462556226,1752.2135,7.665362
1354.2300351634956,1354.2300351634956,1757.555,7.6755505
1354.2314240711366,1354.2314240711366,1757.157,7.676826
1354.2328129790103,1354.2328129790103,1767.2852,7.6807466
1354.2342018866505,1354.2342018866505,1761.6846,7.6803565
1354.2355907945234,1354.2355907945234,1761.6359,7.686706
1354.2369797021638,1354.2369797021638,1762.6641,7.6759744
1354.2383686100375,1354.2383686100375,1749.5574,7.6682024
1354.2397575176783,1354.2397575176783,1777.9543,7.689036
1354.2411464255506,1354.2411464255506,1760.297,7.677112
1354.242535333191,1354.242535333191,1759.3666,7.678759
1354.2439242410646,1354.2439242410646,1759.6343,7.67886
1354.2453131487055,1354.2453131487055,1762.0326,7.6713843
1354.2467020565787,1354.2467020565787,1756.544,7.6781225
1354.2480909642181,1354.2480909642181,1749.343,7.6629767
1354.249479871859,1354.249479871859,1765.6309,7.6830873
1354.2508687797326,1354.2508687797326,1760.2633,7.6719613
1354.252257687373,1354.252257687373,1758.5436,7.6817813
1354.2536465952458,1354.2536465952458,1757.6077,7.6713343
1354.2550355028861,1354.2550355028861,1767.0795,7.679412
1354.2564244107598,1354.2564244107598,1760.1785,7.667138
1354.2578133184006,1354.2578133184006,1753.2728,7.669858
1354.259202226273,1354.259202226273,1760.4489,7.6782446
1354.2605911339133,1354.2605911339133,1758.1987,7.66701
1354.261980041787,1354.261980041787,1754.8818,7.6739783
1354.2633689494273,1354.2633689494273,1765.6984,7.676089
1354.2647578570682,1354.2647578570682,1747.9354,7.6596527
1354.2661467649411,1354.2661467649411,1760.4551,7.674393
1354.2675356725813,1354.2675356725813,1761.5912,7.6786137
1354.268924580455,1354.268924580455,1753.7754,7.6628547
1354.2703134880953,1354.2703134880953,1748.4099,7.669886
1354.2717023959685,1354.2717023959685,1752.0146,7.659875
1354.2730913036085,1354.2730913036085,1758.1892,7.6744967
1354.2744802114817,1354.2744802114817,1775.915,7.690559
1354.2758691191225,1354.2758691191225,1768.5117,7.6848755
1354.2772580267633,1354.2772580267633,1760.4951,7.670576
1354.2786469346365,1354.2786469346365,1752.5087,7.6739836
1354.2800358422764,1354.2800358422764,1743.9539,7.6569514
1354.2814247501497,1354.2814247501497,1753.5175,7.671669
1354.2828136577905,1354.2828136577905,1750.2667,7.669351
1354.2842025656637,1354.2842025656637,1758.8605,7.671943
1354.2855914733032,1354.2855914733032,1768.4705,7.682754
1354.286980380944,1354.286980380944,1763.04,7.673162
1354.2883692888176,1354.2883692888176,1750.4135,7.664573
1354.2897581964585,1354.2897581964585,1754.4054,7.668654
1354.2911471043317,1354.2911471043317,1765.9229,7.677548
1354.2925360119712,1354.2925360119712,1763.941,7.6739364
1354.2939249198448,1354.2939249198448,1750.5798,7.66203
1354.2953138274856,1354.2953138274856,1775.0295,7.685437
1354.2967027351253,1354.2967027351253,1767.5742,7.681437
1354.2980916429983,1354.2980916429983,1753.2349,7.666544
1354.2994805506391,1354.2994805506391,1762.9745,7.6740932
1354.3008694585128,1354.3008694585128,1758.4445,7.6703854
1354.3022583661539,1354.3022583661539,1754.7417,7.668628
1354.3036472737936,1354.3036472737936,1745.1732,7.6590376
1354.3050361816663,1354.3050361816663,1751.224,7.6660724
1354.3064250893071,1354.3064250893071,1756.7728,7.66959
1354.3078139971803,1354.3078139971803,1774.3817,7.689374
1354.3092029048212,1354.3092029048212,1745.6672,7.6606293
1354.3105918124616,1354.3105918124616,1757.658,7.677108
1354.3119807203345,1354.3119807203345,1752.2437,7.661158
1354.3133696279756,1354.3133696279756,1763.8544,7.6812615
1354.3147585358483,1354.3147585358483,1752.5326,7.6612477
1354.3161474434887,1354.3161474434887,1764.3257,7.6745353
1354.3175363511289,1354.3175363511289,1763.292,7.6766434
1354.3189252590018,1354.3189252590018,1771.2137,7.682374
1354.3203141666427,1354.3203141666427,1765.7947,7.6739955
1354.3217030745163,1354.3217030745163,1772.5507,7.6871815
1354.3230919821567,1354.3230919821567,1757.1356,7.6713843
1354.324480889797,1354.324480889797,1759.3215,7.6746616
1354.3258697976698,1354.3258697976698,1751.0577,7.665954
1354.3272587053107,1354.3272587053107,1752.882,7.668606
1354.3286476131839,1354.3286476131839,1740.6561,7.6617384
1354.3300365208233,1354.3300365208233,1749.8398,7.656569
1354.3314254284642,1354.3314254284642,1763.1708,7.676234
1354.332814336338,1354.332814336338,1758.2311,7.6731334
1354.3342032439791,1354.3342032439791,1750.0493,7.6616993
1354.335592151619,1354.335592151619,1756.4368,7.668216
1354.3369810594913,1354.3369810594913,1773.7252,7.683382
1354.3383699671324,1354.3383699671324,1753.417,7.671302
1354.3397588747735,1354.3397588747735,1748.9286,7.6599956
1354.3411477826457,1354.3411477826457,1767.1371,7.6793265
1354.3425366902857,1354.3425366902857,1760.0107,7.6688266
1354.3439255981596,1354.3439255981596,1753.3876,7.662088
1354.3453145058006,1354.3453145058006,1756.7991,7.673701
1354.3467034134414,1354.3467034134414,1762.8905,7.678139
1354.3480923213137,1354.3480923213137,1746.5914,7.660931
1354.349481228954,1354.349481228954,1751.398,7.66768
1354.350870136595,1354.350870136595,1756.0181,7.667818
1354.3522590444677,1354.3522590444677,1740.8896,7.6582856
1354.353647952108,1354.353647952108,1747.726,7.662171
1354.3550368597482,1354.3550368597482,1759.5455,7.6702104
1354.356425767622,1354.356425767622,1749.021,7.659941
1354.357814675263,1354.357814675263,1758.5535,7.6729617
1354.359203582903,1354.359203582903,1761.2788,7.6776853
1354.360592490776,1354.360592490776,1752.9618,7.663366
1354.3619813984164,1354.3619813984164,1763.3451,7.678632
1354.3633703060564,1354.3633703060564,1752.2765,7.660466
1354.3647592139303,1354.3647592139303,1754.1807,7.6684656
1354.3661481215713,1354.3661481215713,1743.2338,7.6544952
1354.3675370292112,1354.3675370292112,1762.6104,7.6755724
1354.3689259370844,1354.3689259370844,1759.7157,7.681088
1354.3703148447246,1354.3703148447246,1762.2307,7.6782856
1354.3717037523656,1354.3717037523656,1765.6885,7.6738005
1354.3730926600056,1354.3730926600056,1763.7904,7.6689415
1354.3744815678779,1354.3744815678779,1755.7257,7.6631994
1354.375870475519,1354.375870475519,1752.0743,7.6646457
1354.37725938316,1354.37725938316,1754.7369,7.653499
1354.3786482910336,1354.3786482910336,1757.0232,7.667492
1354.3800371986738,1354.3800371986738,1766.7906,7.6796427
1354.3814261063135,1354.3814261063135,1746.5316,7.6619973
1354.3828150141871,1354.3828150141871,1741.8652,7.6516747
1354.384203921828,1354.384203921828,1763.1343,7.676243
1354.3855928294674,1354.3855928294674,1753.3254,7.665275
1354.3869817371078,1354.3869817371078,1758.1532,7.67091
1354.3883706449815,1354.3883706449815,1748.3914,7.666027
1354.3897595526223,1354.3897595526223,1746.1475,7.661669
1354.3911484602631,1354.3911484602631,1757.4404,7.665279
1354.3925373679026,1354.3925373679026,1760.5321,7.6750875
1354.3939262757758,1354.3939262757758,1756.6885,7.6673913
1354.3953151834166,1354.3953151834166,1752.1759,7.665627
1354.396704091057,1354.396704091057,1762.5646,7.67708
1354.3980929989298,1354.3980929989298,1757.65,7.671635
1354.3994819065701,1354.3994819065701,1755.4257,7.6667085
1354.400870814211,1354.400870814211,1754.0483,7.6660004
1354.4022597218518,1354.4022597218518,1742.1312,7.6529737
1354.403648629725,1354.403648629725,1765.5061,7.674144
1354.405037537365,1354.405037537365,1761.8049,7.666403
1354.4064264450053,1354.4064264450053,1763.0618,7.671274
1354.4078153526457,1354.4078153526457,1760.5132,7.672569
1354.4092042605193,1354.4092042605193,1766.3645,7.678119
1354.4105931681602,1354.4105931681602,1758.5957,7.66608
1354.4119820758003,1354.4119820758003,1761.1527,7.6713743
1354.4133709834405,1354.4133709834405,1751.2046,7.668492
1354.4147598910808,1354.4147598910808,1747.3396,7.66211
1354.4161487989545,1354.4161487989545,1757.101,7.6688933
1354.4175377065949,1354.4175377065949,1754.0709,7.6681952
1354.4189266142344,1354.4189266142344,1763.7336,7.6830354
1354.4203155218752,1354.4203155218752,1759.8375,7.670987
1354.4217044297488,1354.4217044297488,1753.9711,7.6676984
1354.4230933373897,1354.4230933373897,1760.2288,7.6813135
1354.42448224503,1354.42448224503,1757.3004,7.6716204
1354.4258711526695,1354.4258711526695,1757.6976,7.669114
1354.4272600603103,1354.4272600603103,1757.3241,7.664306
1354.428648968184,1354.428648968184,1754.8805,7.6665177
1354.4300378758235,1354.4300378758235,1764.5442,7.674552
1354.4314267834638,1354.4314267834638,1759.5718,7.6661935
1354.4328156911047,1354.4328156911047,1758.8757,7.6756024
1354.4342045987455,1354.4342045987455,1758.7617,7.6692176
1354.4355935066192,1354.4355935066192,1753.0079,7.665039
1354.4369824142586,1354.4369824142586,1760.6963,7.6704955
1354.438371321899,1354.438371321899,1762.8469,7.667968
1354.4397602295398,1354.4397602295398,1750.2078,7.659057
1354.4411491371802,1354.4411491371802,1752.9801,7.663243
1354.4425380450532,1354.4425380450532,1774.965,7.6880674
1354.4439269526933,1354.4439269526933,1753.0421,7.6608214
1354.4453158603342,1354.4453158603342,1755.4791,7.6645346
1354.446704767975,1354.446704767975,1750.0015,7.6550665
1354.4480936756154,1354.4480936756154,1758.7682,7.665095
1354.4494825832558,1354.4494825832558,1750.7567,7.6616306
1354.4508714908957,1354.4508714908957,1769.4615,7.682459
1354.4522603987689,1354.4522603987689,1749.7102,7.6615047
1354.4536493064097,1354.4536493064097,1763.8967,7.678187
1354.4550382140505,1354.4550382140505,1756.4723,7.667601
1354.456427121691,1354.456427121691,1762.7948,7.6810527
1354.457816029331,1354.457816029331,1765.1234,7.6725597
1354.4592049369712,1354.4592049369712,1748.9756,7.659187
1354.460593844612,1354.460593844612,1750.874,7.6594734
1354.4619827524853,1354.4619827524853,1758.88,7.6760488
1354.4633716601247,1354.4633716601247,1766.5253,7.682738
1354.4647605677656,1354.4647605677656,1759.5609,7.6675057
1354.4661494754064,1354.4661494754064,1775.3569,7.689563
1354.4675383830472,1354.4675383830472,1780.3882,7.6966314
1354.4689272906876,1354.4689272906876,1752.5529,7.66663
1354.470316198327,1354.470316198327,1772.6268,7.682823
1354.4717051059679,1354.4717051059679,1770.9879,7.6871147
1354.4730940138415,1354.4730940138415,1769.1637,7.683908
1354.4744829214812,1354.4744829214812,1769.1113,7.6878057
1354.4758718291214,1354.4758718291214,1755.6484,7.6680317
1354.4772607367622,1354.4772607367622,1761.0452,7.678988
1354.4786496444033,1354.4786496444033,1757.6163,7.6745915
1354.4800385520443,1354.4800385520443,1752.0452,7.6696844
1354.4814274596838,1354.4814274596838,1768.0734,7.6822042
1354.4828163673237,1354.4828163673237,1762.142,7.6789355
1354.4842052749648,1354.4842052749648,1762.2758,7.672354
1354.485594182605,1354.485594182605,1770.351,7.679749
1354.4869830902453,1354.4869830902453,1754.2086,7.6668878
1354.488371998118,1354.488371998118,1762.8455,7.675538
1354.489760905759,1354.489760905759,1769.4346,7.68331
1354.4911498134002,1354.4911498134002,1758.2272,7.665834
1354.49253872104,1354.49253872104,1749.9763,7.6631885
1354.4939276286805,1354.4939276286805,1766.5339,7.679119
1354.4953165363206,1354.4953165363206,1757.2313,7.671519
1354.4967054439608,1354.4967054439608,1755.3757,7.6740527
1354.4980943516016,1354.4980943516016,1759.8956,7.668956
1354.4994832592427,1354.4994832592427,1773.3999,7.6832094
1354.5008721668828,1354.5008721668828,1761.33,7.674037
1354.5022610745232,1354.5022610745232,1769.2072,7.684012
1354.503649982163,1354.503649982163,1761.7856,7.669101
1354.5050388898042,1354.5050388898042,1756.3065,7.669497
1354.5064277974443,1354.5064277974443,1760.7393,7.6773114
1354.5078167050838,1354.5078167050838,1753.0094,7.672604
1354.5092056127246,1354.5092056127246,1766.2544,7.6750355
1354.5105945203657,1354.5105945203657,1751.2753,7.6693172
1354.5119834280067,1354.5119834280067,1753.4066,7.666512
1354.5133723356466,1354.5133723356466,1763.5709,7.6838803
1354.514761243286,1354.514761243286,1756.5149,7.6683936
1354.5161501509272,1354.5161501509272,1759.0037,7.672117
1354.5175390585682,1354.5175390585682,1761.7202,7.675793
1354.5189279662077,1354.5189279662077,1756.0713,7.662807
1354.5203168738478,1354.5203168738478,1756.1017,7.667045
1354.521705781489,1354.521705781489,1749.2058,7.6554303
1354.5230946891297,1354.5230946891297,1749.5781,7.6612954
1354.5244835967706,1354.5244835967706,1748.2266,7.6597996
1354.52587250441,1354.52587250441,1754.4738,7.666146
1354.5272614120504,1354.5272614120504,1753.3354,7.6623287
1354.5286503196912,1354.5286503196912,1766.2639,7.679938
1354.5300392273311,1354.5300392273311,1740.4833,7.6372337
1354.5314281349715,1354.5314281349715,1762.8934,7.677684
1354.532817042612,1354.532817042612,1756.3732,7.6688805
1354.5342059502527,1354.5342059502527,1748.2521,7.6646643
1354.5355948578936,1354.5355948578936,1739.3627,7.645754
1354.536983765534,1354.536983765534,1758.6664,7.670976
1354.5383726731739,1354.5383726731739,1748.8008,7.672266
1354.5397615808142,1354.5397615808142,1747.7291,7.653749
1354.5411504884544,1354.5411504884544,1758.6263,7.6745462
1354.5425393960954,1354.5425393960954,1761.9902,7.668991
1354.5439283035034,1354.5439283035034,1775.5797,7.683134
1354.5453172111434,1354.5453172111434,1754.076,7.6593623
1354.5467061187837,1354.5467061187837,1767.4136,7.678875
1354.548095026424,1354.548095026424,1762.2284,7.6715727
1354.549483934065,1354.549483934065,1744.226,7.649888
1354.5508728417049,1354.5508728417049,1744.2399,7.6566434
1354.5522617493446,1354.5522617493446,1765.7067,7.6796556
1354.5536506569856,1354.5536506569856,1754.7468,7.664315
1354.5550395646264,1354.5550395646264,1741.3215,7.6534276
1354.5564284722673,1354.5564284722673,1752.5269,7.664218
1354.5578173799076,1354.5578173799076,1747.8326,7.652286
1354.5592062873143,1354.5592062873143,1765.9413,7.67484
1354.560595194955,1354.560595194955,1772.85,7.687697
1354.561984102596,1354.561984102596,1754.1827,7.669343
1354.5633730102354,1354.5633730102354,1743.8654,7.651929
1354.5647619178758,1354.5647619178758,1746.5381,7.656872
1354.5661508255166,1354.5661508255166,1757.6324,7.6677732
1354.5675397331574,1354.5675397331574,1756.1016,7.6631804
1354.5689286407983,1354.5689286407983,1752.241,7.657019
1354.570317548205,1354.570317548205,1760.7137,7.668499
1354.5717064558453,1354.5717064558453,1755.5786,7.6679773
1354.5730953634861,1354.5730953634861,1739.4163,7.656362
1354.5744842711265,1354.5744842711265,1742.6876,7.657545
1354.5758731787664,1354.5758731787664,1757.1954,7.664322
1354.5772620864068,1354.5772620864068,1756.3236,7.6755295
1354.5786509938148,1354.5786509938148,1759.5948,7.67096
1354.5800399014556,1354.5800399014556,1759.3542,7.6667476
1354.581428809096,1354.581428809096,1762.3384,7.670692
1354.5828177167361,1354.5828177167361,1753.2834,7.6601305
1354.5842066243763,1354.5842066243763,1750.3749,7.6688743
1354.5855955320167,1354.5855955320167,1762.5262,7.6745815
1354.5869844394247,1354.5869844394247,1768.5681,7.679515
1354.5883733470655,1354.5883733470655,1760.2922,7.6734
1354.5897622547059,1354.5897622547059,1744.5259,7.651199
1354.5911511623458,1354.5911511623458,1760.8551,7.66756
1354.5925400699862,1354.5925400699862,1751.3042,7.6583004
1354.5939289773942,1354.5939289773942,1767.3938,7.6815114
1354.5953178850345,1354.5953178850345,1760.0734,7.666688
1354.596706792674,1354.596706792674,1769.4716,7.685238
1354.5980957003148,1354.5980957003148,1769.7228,7.6753244
1354.5994846079557,1354.5994846079557,1756.344,7.661023
