time,time,flux,flux_err
1354.114294836034,1354.114294836034,0.9999423801230373,0.0002134064429959636
1354.1223968685445,1354.1223968685445,0.9999102890120157,0.0001948622615819177
1354.1293414679808,1354.1293414679808,1.0000645290182142,0.0001948582689417869
1354.1362860675395,1354.1362860675395,1.0000916189779874,0.00019485144434365782
1354.1432306671973,1354.1432306671973,0.9999248728558074,0.00019485113125470075
1354.1501752669888,1354.1501752669888,0.9999508782980392,0.00019485687335738254
1354.1571198668853,1354.1571198668853,1.0000311419280146,0.00019483588510410852
1354.1640644668983,1354.1640644668983,1.0000655869788613,0.00019484881225600742
1354.1710090670215,1354.1710090670215,0.9999381349163012,0.00019483806570695983
1354.177953667256,1354.177953667256,1.0003407911990982,0.00019487885306307848
1354.1848982675942,1354.1848982675942,0.9997399637030695,0.0001948123783584624
1354.1918428680438,1354.1918428680438,1.0000896803840367,0.0001948355783689643
1354.1987874685922,1354.1987874685922,1.0000924566407976,0.00019484516186910018
1354.205732069257,1354.205732069257,0.9998546786481564,0.00019483144227465236
1354.2126766700146,1354.2126766700146,1.0000777672026817,0.00019484854419245395
1354.2196212708718,1354.2196212708718,1.0000028130768412,0.00019485114433958356
1354.2265658718213,1354.2265658718213,1.0000023726266032,0.00019484511463115716
1354.2335104728766,1354.2335104728766,0.9998503990892902,0.0001948377983187391
1354.240455074024,1354.240455074024,0.999886057365492,0.0001948331059786721
1354.2473996752653,1354.2473996752653,1.000232931754209,0.00019488446018942502
1354.254344276599,1354.254344276599,1.00004643660464,0.0001948496035565746
1354.2612888780207,1354.2612888780207,1.0001469167488863,0.0001948640027273422
1354.2682334795409,1354.2682334795409,0.999952550444141,0.00019484780472126686
1354.2751780811548,1354.2751780811548,0.9996246482157665,0.0001948170768329608
1354.282122682832,1354.282122682832,0.9999471722846401,0.00019485093658052835
1354.2890672846088,1354.2890672846088,1.0002632657203865,0.00019487959218222122
1354.2960118864664,1354.2960118864664,0.9999500118778044,0.00019484884549142537
1354.3029564884062,1354.3029564884062,0.9999005155996498,0.00019485524293221402
1354.3099010904334,1354.3099010904334,1.0001077703131425,0.000194858905258887
1354.316845692541,1354.316845692541,1.0002759459000812,0.00019489195678975042
1354.323790294731,1354.323790294731,0.9999432888648873,0.0001948480495368744
1354.330734896985,1354.330734896985,0.9999505979208063,0.00019485863332154507
1354.3376794993085,1354.3376794993085,0.9997007279511058,0.00019483661275335575
1354.3446241017255,1354.3446241017255,0.9998930533415115,0.00019486486877938545
1354.3515687042059,1354.3515687042059,1.0003070438050252,0.00019488781530604664
1354.3585133067627,1354.3585133067627,1.000037277830853,0.00019488344927519116
1354.365457909395,1354.365457909395,0.9999979490886416,0.00019486571187077095
1354.372402512085,1354.372402512085,1.0000174769907726,0.00019487643600336107
1354.3793471148515,1354.3793471148515,0.9999465559284559,0.00019488347015810805
1354.386291717687,1354.386291717687,0.9997545755189752,0.00019484904100774828
1354.393236320587,1354.393236320587,1.0001665017193762,0.00019489115840304056
1354.400180923551,1354.400180923551,0.9999623292259703,0.00019485779881422966
1354.407125526579,1354.407125526579,1.0002524888262514,0.0001948974486701801
1354.414070129671,1354.414070129671,0.9998352232729577,0.0001948765127141417
1354.4210147328215,1354.4210147328215,0.9997681913470648,0.00019487831788941756
1354.4279593360468,1354.4279593360468,1.0001705429867758,0.00019489879041596019
1354.4349039393078,1354.4349039393078,0.999939227699379,0.00019488997097047984
1354.4418485426443,1354.4418485426443,1.0001163237923758,0.000194900016958983
1354.4487931460274,1354.4487931460274,1.000016166286463,0.00019489433703416312
1354.4557377494748,1354.4557377494748,1.0000161318086063,0.00019490067397423934
1354.4626823529738,1354.4626823529738,0.9998407337440801,0.00019488273721195628
1354.4696269565316,1354.4696269565316,1.0000240919423309,0.00019491343591155998
1354.4765715601418,1354.4765715601418,1.0003269516790738,0.0001949357189990026
1354.4835161637864,1354.4835161637864,0.9998396265551364,0.00019489234667957063
1354.4904607675135,1354.4904607675135,1.000010739966292,0.00019491697917169064
1354.4974053712747,1354.4974053712747,1.0000160946250922,0.0001949202757712385
1354.5043499750766,1354.5043499750766,0.9999091961574346,0.00019490729105834845
1354.5112945789372,1354.5112945789372,0.9999358066591395,0.0001949014069287938
1354.518239182844,1354.518239182844,0.9998799127754932,0.00019490558324291796
1354.5251837868032,1354.5251837868032,0.9997647355044086,0.00019488151384976883
1354.5321283907974,1354.5321283907974,1.0003664378713322,0.00019495206215792483
1354.5390729948383,1354.5390729948383,1.000185185203457,0.0001949375361696041
1354.5460175989376,1354.5460175989376,0.9998297284834244,0.00019489374969330924
1354.5529622030597,1354.5529622030597,1.0000379897462506,0.0001949267967685326
1354.559906807234,1354.559906807234,1.0001856335083497,0.00019494397351122196
1354.5668514114438,1354.5668514114438,0.9999100239145939,0.00019492565248171913
1354.5737960156882,1354.5737960156882,1.0000784357407517,0.000194937298953541
1354.580740619991,1354.580740619991,1.0000561114762108,0.00019493985629682407
1354.5876852243232,1354.5876852243232,0.9996204964096762,0.0001949062033006351
1354.5946298286956,1354.5946298286956,0.9998318094459101,0.00019493237634856422
1354.6015744331094,1354.6015744331094,1.0000506197825898,0.0001949680847995651
1354.6085190375393,1354.6085190375393,1.000042095288068,0.0001949677235595054
1354.6154636420167,1354.6154636420167,1.0000398059730187,0.0001949631538307671
1354.6224082465353,1354.6224082465353,0.9998672509592688,0.0001949548393384891
1354.629352851082,1354.629352851082,0.9998241094113152,0.00019495027565496944
1354.6362974556585,1354.6362974556585,1.0001791912639317,0.0001949773093507446
1354.6432420602816,1354.6432420602816,1.0000672705199871,0.00019496582155797629
1354.6501866649216,1354.6501866649216,0.9999420635974875,0.00019495795355985878
1354.6571312696033,1354.6571312696033,0.9999590166012862,0.00019495863891234234
1354.664075874313,1354.664075874313,1.0000078663342111,0.00019498776711608166
1354.6710204790347,1354.6710204790347,1.0000097755420168,0.00019498214782819452
1354.6779650838037,1354.6779650838037,1.0002082269149137,0.00019498816857171783
1354.6849096886008,1354.6849096886008,1.0000470543033986,0.00019499336224289157
1354.6918542934218,1354.6918542934218,1.0002036104143257,0.000194992776850062
1354.6987988982717,1354.6987988982717,0.9996537227474445,0.00019494336787650616
1354.7057435031445,1354.7057435031445,0.9995740682439381,0.00019493307851991057
1354.7126881080471,1354.7126881080471,0.9999791727090311,0.00019497640069168556
1354.7196327129727,1354.7196327129727,0.9998590741259962,0.0001949642433694311
1354.7265773179213,1354.7265773179213,1.000156675219796,0.00019500174075736478
1354.7335219228996,1354.7335219228996,0.9998184587020816,0.00019497109751578776
1354.7404665278948,1354.7404665278948,1.0001642662286352,0.00019500077129284318
1354.7474111329134,1354.7474111329134,1.000269757661107,0.00019500992100807883
1354.7543557379554,1354.7543557379554,1.0004051006256556,0.0001950332232914859
1354.7613003430206,1354.7613003430206,0.9995884049327056,0.00019494150782669274
1354.7682449480976,1354.7682449480976,0.9996441293995992,0.00019494850496539352
1354.7751895532033,1354.7751895532033,0.9999643940383323,0.00019498811545635796
1354.7821341583328,1354.7821341583328,1.0000160072263449,0.00019499963092599844
1354.7890787634738,1354.7890787634738,0.9999223490211608,0.00019499639885335674
1354.7960233686379,1354.7960233686379,1.000266190175345,0.00019500916063114012
1354.8029679738138,1354.8029679738138,1.000470461618796,0.00019504462554879203
1354.8099125790188,1354.8099125790188,0.9997164801232199,0.00019498242733113308
1354.8168571842355,1354.8168571842355,0.9999072775486916,0.00019500323771383138
1354.8238017894578,1354.8238017894578,1.0004673723210349,0.00019505229791751157
1354.8307463947094,1354.8307463947094,0.9995694966116278,0.00019497208668881473
1354.8376909999783,1354.8376909999783,0.9997607146430992,0.00019499041737811444
1354.8446356052416,1354.8446356052416,1.0001232952715262,0.00019503183552443737
1354.851580210551,1354.851580210551,1.0004016003226133,0.00019504903314012165
1354.8585248158552,1354.8585248158552,0.9999654840654199,0.00019502777413553857
1354.8654694211768,1354.8654694211768,1.000278667050823,0.0001950497443551013
1354.8724140265094,1354.8724140265094,0.9998861922078126,0.00019502208987380592
1354.8793586318545,1354.8793586318545,0.9998180251808437,0.00019501153951913215
1354.8863032372162,1354.8863032372162,0.9998359694349004,0.00019501472824962887
1354.8932478425843,1354.8932478425843,0.9997970795304291,0.00019500054388600245
1354.90019244797,1354.90019244797,1.0000715817149586,0.00019503384052947596
1354.9071370533607,1354.9071370533607,0.9998340327322655,0.00019501690254006323
1354.9140816587696,1354.9140816587696,1.0000434011223143,0.00019503010506486182
1354.921026264178,1354.921026264178,1.0003121086766324,0.00019506338902357078
1354.9279708696104,1354.9279708696104,1.0001718357140215,0.00019502099891053988
1354.9360266119115,1354.9360266119115,0.999925428646988,0.00019500461654127583
1354.9432490015665,1354.9432490015665,0.9999021639396523,0.00019499344103404926
1354.9501936070217,1354.9501936070217,1.000481688375459,0.00019505873440409067
1354.9571382124827,1354.9571382124827,0.9998535562631578,0.00019502409296851583
1354.9640828179497,1354.9640828179497,1.0003686702123367,0.00019504525416961968
1354.9710274234221,1354.9710274234221,0.9997551974825024,0.00019501899371287027
1354.9779720289066,1354.9779720289066,0.9997649225480298,0.00019501534494130516
1354.9849166343913,1354.9849166343913,1.0000327138599567,0.00019503693242769123
1354.991861239887,1354.991861239887,0.9996768507457606,0.00019502594606827752
1354.998805845389,1354.998805845389,1.000194077270478,0.0001950640708173012
1355.0057504508907,1355.0057504508907,1.0000812595266406,0.00019506081309511968
1355.0126950564045,1355.0126950564045,0.9998964748342958,0.00019503400291166105
1355.0196396619176,1355.0196396619176,1.0002640704262107,0.00019507195943754184
1355.0265842674428,1355.0265842674428,0.9998277158301094,0.00019500016680477743
1355.0335288729623,1355.0335288729623,1.0002378862692791,0.00019505113133438799
1355.040473478493,1355.040473478493,0.9998706074524837,0.00019501824818549061
1355.047418084018,1355.047418084018,0.9999490671783404,0.0001950229836350457
1355.0543626895608,1355.0543626895608,1.0000131599139326,0.00019502508407175754
1355.0613072950916,1355.0613072950916,0.9999876244331288,0.0001950390652938748
1355.0682519006289,1355.0682519006289,0.9999710000772384,0.00019503433078600635
1355.0751965061706,1355.0751965061706,0.9998029897783492,0.00019501720270029288
1355.0821411117133,1355.0821411117133,0.999988211791859,0.0001950429278637081
1355.0890857172562,1355.0890857172562,1.0000066864288748,0.00019502955401914674
1355.0960303228044,1355.0960303228044,1.0001013329176556,0.00019504876337080582
1355.1029749283468,1355.1029749283468,1.0000873153214167,0.0001950404395471957
1355.1099195338954,1355.1099195338954,1.0001150793803046,0.00019504683921053387
1355.1168641394438,1355.1168641394438,0.999633972011942,0.00019500513308981667
1355.1238087449922,1355.1238087449922,1.000101838968131,0.00019505179025484904
1355.1307533505346,1355.1307533505346,0.9997244823264853,0.00019502625504563262
1355.1376979560828,1355.1376979560828,1.0006927111638984,0.00019511068421763017
1355.1446425616316,1355.1446425616316,0.9998011131447351,0.00019502706610915644
1355.1515871671743,1355.1515871671743,1.0000965325101772,0.00019507055154791158
1355.1585317727165,1355.1585317727165,0.99999838947207,0.00019504874738950079
1355.1654763782594,1355.1654763782594,0.9998555849469419,0.00019503493458253226
1355.1724209837962,1355.1724209837962,1.0000497457874808,0.00019506929234715215
1355.1793655893387,1355.1793655893387,1.0002056339040395,0.00019507810482284393
1355.1863101948697,1355.1863101948697,1.000103218303217,0.0001950650968469484
1355.1932548004002,1355.1932548004002,0.9998358561633183,0.00019504702733276854
1355.2001994059315,1355.2001994059315,0.9997417646661603,0.000195026412992482
1355.2071440114564,1355.2071440114564,1.00003763264442,0.00019506006325740948
1355.2140886169816,1355.2140886169816,0.9998013937091702,0.0001950259604942349
1355.221033222501,1355.221033222501,1.0000830478599965,0.000195069576218932
1355.2279778280204,1355.2279778280204,1.0001105211319357,0.00019507627973821314
1355.234922433528,1355.234922433528,1.0001717445804394,0.00019508456898043746
1355.2418670390414,1355.2418670390414,1.000193656888165,0.00019508030547498828
1355.2488116445431,1355.2488116445431,1.0000154105378474,0.00019507316412988428
1355.2557562500392,1355.2557562500392,1.0001612524049346,0.00019509148548188833
1355.2627008555296,1355.2627008555296,0.9997536092476522,0.0001950516581552646
1355.2696454610193,1355.2696454610193,0.9996693883295908,0.00019501995492602424
1355.276590066504,1355.276590066504,0.9999037669653245,0.0001950576405834816
1355.2835346719821,1355.2835346719821,1.0000399265372921,0.0001950848159066858
1355.2904792774498,1355.2904792774498,1.0002862316436758,0.00019507122750283163
1355.297423882916,1355.297423882916,0.9998293319650262,0.00019505433237431444
1355.3043684883773,1355.3043684883773,1.0002746950090384,0.00019510980949325504
1355.3113130938268,1355.3113130938268,1.0000490690699348,0.00019507368958023849
1355.3182576992822,1355.3182576992822,0.9996622654679024,0.0001950418069607189
1355.3252023047141,1355.3252023047141,0.9999817727164515,0.00019508619452969874
1355.3327024785808,1355.3327024785808,0.9999516983076588,0.00019507446564260837
1355.3404804366644,1355.3404804366644,1.0000794265454955,0.00019508606975297076
1355.3474250420732,1355.3474250420732,0.9998759897376784,0.00019506079303024186
1355.3543696474876,1355.3543696474876,1.0003287063554338,0.0001951221821245783
1355.3613142528907,1355.3613142528907,1.0000347125908176,0.0001951090941208977
1355.3682588582874,1355.3682588582874,0.9999833358124915,0.00019505237257799824
1355.3752034636673,1355.3752034636673,1.0000781753573729,0.00019506597929183503
1355.382148069047,1355.382148069047,0.999758074234995,0.00019504462477949714
1355.3890926744207,1355.3890926744207,0.9999819033982753,0.0001950914680630391
1355.396870632423,1355.396870632423,1.0000806819730141,0.00019509432599868593
1355.404370806196,1355.404370806196,0.999892293636778,0.0001950725812248332
1355.4113154115353,1355.4113154115353,1.000144112800577,0.00019510522431934508
1355.418260016874,1355.418260016874,0.9999397278984461,0.00019509055432577016
1355.4252046221952,1355.4252046221952,0.9999272798741454,0.00019507115832613535
1355.4321492275053,1355.4321492275053,0.9999090894690642,0.0001950854549493774
1355.439093832809,1355.439093832809,1.0002532807131088,0.000195131639554884
1355.4460384380955,1355.4460384380955,1.0002588548298903,0.00019510791269746229
1355.4529830433821,1355.4529830433821,1.0000674929692592,0.00019509991282017409
1355.4599276486686,1355.4599276486686,0.999805000204194,0.00019509255927558728
1355.4668722539259,1355.4668722539259,1.00023768261685,0.00019511389256614834
1355.4738168591834,1355.4738168591834,0.99993016037584,0.00019509206810523408
1355.4807614644292,1355.4807614644292,0.9999363717019895,0.0001951008618054256
1355.4877060696572,1355.4877060696572,1.0000869700759376,0.00019512019525898022
1355.4946506748797,1355.4946506748797,0.9996618307547569,0.00019508126356760578
1355.5015952800902,1355.5015952800902,0.9998014688422934,0.0001950703063657725
1355.508539885295,1355.508539885295,0.9999535668399113,0.00019509210832520222
1355.515484490483,1355.515484490483,1.0002951603717802,0.00019512711702796646
1355.5224290956587,1355.5224290956587,1.0002211314981468,0.00019511918249778387
1355.5293737008287,1355.5293737008287,1.0000557475439875,0.00019510187851643732
1355.5363183059758,1355.5363183059758,1.0001110106607003,0.00019509511028323827
1355.5432629111162,1355.5432629111162,1.0000423078061251,0.00019505850942674562
1355.5502075162574,1355.5502075162574,1.0001786439084284,0.0001950874671080334
1355.5571521213753,1355.5571521213753,0.9997563725417263,0.00019506321014765453
1355.564096726487,1355.564096726487,0.999716669702378,0.00019505778943854627
1355.5710413315815,1355.5710413315815,0.9998223512427952,0.00019506248531390877
1355.5779859366642,1355.5779859366642,1.000086035724105,0.0001951076535570487
1355.5849305417353,1355.5849305417353,0.9999687678429329,0.00019508456369605152
1355.5918751467946,1355.5918751467946,0.999986912516204,0.0001950918428588764
1355.5988197518368,1355.5988197518368,1.0002436782489208,0.00019510833929666638
1355.605764356873,1355.605764356873,1.0001915893055595,0.00019512195126031813
1355.6127089618858,1355.6127089618858,0.9997436495022157,0.0001950419145758072
1355.61965356691,1355.61965356691,0.9999653021876489,0.00019507401423557997
1355.6265981719057,1355.6265981719057,0.9998261153645037,0.00019506376285925215
1355.633542776872,1355.633542776872,1.0002290252306874,0.0001950997416761177
1355.640487381844,1355.640487381844,1.0001897422967103,0.00019507883759775315
1355.6474319867928,1355.6474319867928,0.9999099730853445,0.00019505441286807098
1355.6543765917363,1355.6543765917363,1.0000128366082415,0.0001950986422786968
1355.6613211966733,1355.6613211966733,0.9998679272335129,0.00019507858241510286
1355.6682658015814,1355.6682658015814,1.0000401825579444,0.0001951097092656085
1355.6752104064778,1355.6752104064778,1.000030371282736,0.00019509752488547485
1355.6821550113686,1355.6821550113686,1.0000056378217939,0.00019510019144279792
1355.6890996162358,1355.6890996162358,0.9997564232904207,0.00019507846034158094
1355.6960442211034,1355.6960442211034,1.0001556703672363,0.00019512408649846423
1355.7029888259417,1355.7029888259417,1.0001527173299496,0.00019511503627165294
1355.7099334307682,1355.7099334307682,0.9998862632460256,0.0001950851829589197
1355.716878035583,1355.716878035583,0.9999639157599587,0.00019509235373515012
1355.7238226403865,1355.7238226403865,1.0001326541910829,0.0001951275389060925
1355.7307672451723,1355.7307672451723,1.0001724562005874,0.00019511002389042622
1355.737711849941,1355.737711849941,0.9998881238242454,0.0001950863182577867
1355.7457675914561,1355.7457675914561,0.9999489434960791,0.00019510327667266177
1355.7529899803897,1355.7529899803897,0.9994838109796096,0.00019505341901429412
1355.759934585111,1355.759934585111,1.0000431080851788,0.0001951047722863304
1355.7668791898159,1355.7668791898159,1.0003804367217974,0.00019514154541023279
1355.77382379452,1355.77382379452,0.9999984499398593,0.00019509222898076293
1355.7807683991894,1355.7807683991894,0.999962775396251,0.0001950980650997237
1355.787713003859,1355.787713003859,0.9997126322672379,0.00019506611936989798
1355.7946576085055,1355.7946576085055,1.0001508906126777,0.0001950937891694368
1355.8016022131399,1355.8016022131399,0.999731403750283,0.00019506669834102897
1355.808546817751,1355.808546817751,1.0001205183350907,0.00019510383593744266
1355.8154914223567,1355.8154914223567,0.9999587332049445,0.000195104968714802
1355.8224360269444,1355.8224360269444,1.0001694456641135,0.00019510511312967072
1355.8293806315153,1355.8293806315153,1.0000947296420548,0.00019509921692149895
1355.8363252360743,1355.8363252360743,1.000098148108025,0.00019510091867867672
1355.8432698406036,1355.8432698406036,0.9999087625194607,0.00019509384595640082
1355.850214445128,1355.850214445128,0.9996312088532087,0.00019507907720429457
1355.8571590496344,1355.8571590496344,0.9999668759302864,0.00019509781069466042
1355.864103654129,1355.864103654129,1.0003452967395043,0.00019513779792960904
