time,time,flux,flux_err
1325.3025250822463,1325.3025250822463,1.0001084845814572,0.0002430412770697868
1325.3108585677398,1325.3108585677398,0.9998305598701971,0.00024315332547953346
1325.3191920531178,1325.3191920531178,0.9999777289139368,0.0002431966518125958
1325.3268310813337,1325.3268310813337,1.0002297979659178,0.00022208155920886642
1325.3337756522951,1325.3337756522951,1.0001061173530341,0.0002221096804499426
1325.3407202233964,1325.3407202233964,0.9999473956480275,0.0002221666454331912
1325.3476647943583,1325.3476647943583,0.9999199369941293,0.00022220926590450492
1325.35460936532,1325.35460936532,1.0000536934790678,0.00022224729639519679
1325.361553936235,1325.361553936235,0.9999285321180812,0.0002223275254517241
1325.36849850715,1325.36849850715,0.9998592818443409,0.00022234475409248209
1325.3754430779252,1325.3754430779252,0.9999430711761583,0.00022243317930441533
1325.3823876487938,1325.3823876487938,0.9998355791817293,0.00022244641815262486
1325.3893322195227,1325.3893322195227,0.9998843728522004,0.00022248686067096964
1325.396276790298,1325.396276790298,1.000161159318497,0.00022258464171125532
1325.40322136098,1325.40322136098,0.999674560735118,0.00022256401607033714
1325.4101659316625,1325.4101659316625,1.0002643250607268,0.00022265930071305428
1325.4171105022979,1325.4171105022979,1.000244437881158,0.00022270655461795338
1325.424055072887,1325.424055072887,1.0007273174148745,0.000222765582306546
1325.430999643476,1325.430999643476,0.9999138365657665,0.0002227359615461809
1325.437944213972,1325.437944213972,0.9997536288011177,0.00022273887105978964
1325.4448887845613,1325.4448887845613,1.0002848070954677,0.00022281887163072258
1325.4518333550106,1325.4518333550106,0.9997968544902894,0.00022279431732196556
1325.4587779254598,1325.4587779254598,0.9997222785339023,0.00022280887902113752
1325.4657224958626,1325.4657224958626,1.000227958579545,0.00022286986627492055
1325.4726670662653,1325.4726670662653,0.9997927796624237,0.0002228712249514196
1325.479611636622,1325.479611636622,0.9997940424632935,0.00022287661885867904
1325.4865562069313,1325.4865562069313,1.000139498823362,0.00022294538314095467
1325.4935007771949,1325.4935007771949,1.0002943710042325,0.00022297300238369581
1325.500445347458,1325.500445347458,0.9996254460043132,0.00022294629632632572
1325.507389917721,1325.507389917721,1.0002037159798702,0.00022301243773949312
1325.5143344879375,1325.5143344879375,1.000187168041712,0.000223002121160746
1325.5212790581074,1325.5212790581074,1.000156461516643,0.00022301299718725857
1325.5282236282776,1325.5282236282776,0.9997243235579558,0.00022303135329712604
1325.5351681983543,1325.5351681983543,0.9998886474594922,0.00022307105590240985
1325.5421127684774,1325.5421127684774,0.9998306988173727,0.0002230586843335945
1325.5490573385548,1325.5490573385548,1.0001943310695787,0.00022314368803355138
1325.5560019085383,1325.5560019085383,0.9999863758056549,0.0002231413256062009
1325.5629464785222,1325.5629464785222,0.9998276393732006,0.0002231246008670602
1325.5698910485057,1325.5698910485057,1.0003015146645589,0.00022316160375384508
1325.5768356184894,1325.5768356184894,0.9999982472791134,0.00022315349378071794
1325.5837801884736,1325.5837801884736,1.000053705693719,0.0002232028420272632
1325.5907247583639,1325.5907247583639,1.0000936441507484,0.0002232067099458316
1325.5976693282078,1325.5976693282078,0.9999441202951271,0.0002232064647243754
1325.6046138980987,1325.6046138980987,1.0000127174130164,0.0002232286315537835
1325.6115584679424,1325.6115584679424,1.000126803983101,0.00022325906691433414
1325.6185030376935,1325.6185030376935,0.9996847908012907,0.00022324827955537
1325.6254476074441,1325.6254476074441,0.9999600043033666,0.00022325412462873115
1325.6323921772419,1325.6323921772419,1.0000465175782178,0.00022327248740638
1325.6393367468995,1325.6393367468995,0.9998790878036814,0.0002232589181281757
1325.6462813166038,1325.6462813166038,0.9999729262542664,0.0002232512407296915
1325.6532258863083,1325.6532258863083,1.0001244774969664,0.0002232731325750153
1325.6601704559193,1325.6601704559193,1.0000828745526367,0.00022328467772029953
1325.6671150255775,1325.6671150255775,1.000037576613703,0.0002232886352746199
1325.6740595951417,1325.6740595951417,0.9999009405294446,0.00022326048917743201
1325.681004164753,1325.681004164753,0.9999273256287541,0.00022326019793704284
1325.687948734271,1325.687948734271,1.0000580107839392,0.00022332063746556362
1325.694893303789,1325.694893303789,0.9997249223215434,0.000223251640949922
1325.701837873261,1325.701837873261,1.0003398833887656,0.00022333677730576956
1325.708782442779,1325.708782442779,0.9998554722576418,0.00022332229323051002
1325.715727012157,1325.715727012157,1.0001423484826262,0.00022336154368359637
1325.722671581582,1325.722671581582,1.000281506059989,0.0002233833804254367
1325.7296161509605,1325.7296161509605,1.000030252879057,0.00022341022693825888
1325.7365607203851,1325.7365607203851,0.9998429217927303,0.0002234396600583471
1325.7435052897174,1325.7435052897174,0.9996623214884378,0.00022344873060090405
1325.7504498590486,1325.7504498590486,1.0002493024347412,0.00022352896072068087
1325.7573944283342,1325.7573944283342,1.000058204144022,0.0002235604554440478
1325.7643389976195,1325.7643389976195,0.9996960706259449,0.00022356006391069093
1325.7712835668578,1325.7712835668578,1.0002374866431412,0.00022364878483576784
1325.7782281361433,1325.7782281361433,1.0001031382422472,0.0002236655879814935
1325.7851727053353,1325.7851727053353,1.0000024784933204,0.00022370042590938856
1325.792117274481,1325.792117274481,0.9995397251841117,0.00022368692884765996
1325.7990618436731,1325.7990618436731,0.9998615099504728,0.00022373943071275415
1325.8060064127721,1325.8060064127721,0.9999840625121467,0.0002237665067644985
1325.8129509819178,1325.8129509819178,1.0002194786206098,0.0002238148199657109
1325.81989555097,1325.81989555097,1.0005007982129872,0.0002238709528993977
1325.8268401200226,1325.8268401200226,0.9999285432251683,0.0002238214116010673
1325.833784689075,1325.833784689075,0.9999973306071969,0.0002238692617786231
1325.8407292580807,1325.8407292580807,0.9997591695282771,0.00022388734195266882
1325.8476738271333,1325.8476738271333,0.9997707478015055,0.00022389566006855444
1325.8546183960455,1325.8546183960455,0.9998104276336969,0.00022387923018711122
1325.8615629650053,1325.8615629650053,1.0003203313611986,0.0002239496081582382
1325.8685075338713,1325.8685075338713,1.0000632992162743,0.00022391529410138223
1325.8754521028773,1325.8754521028773,0.9998761943416333,0.00022389824960836018
1325.8823966716968,1325.8823966716968,0.9997550593530251,0.0002238650229255568
1325.8893412405164,1325.8893412405164,0.9999949217098989,0.0002238549861667096
1325.8962858093357,1325.8962858093357,1.000175224915577,0.00022385848147293575
1325.9032303781555,1325.9032303781555,0.999947780478642,0.00022386969060873046
1325.9101749469748,1325.9101749469748,0.9997681758051987,0.00022384573979518802
1325.9171195157946,1325.9171195157946,1.0003441327074696,0.00022387937959888029
1325.9240640843811,1325.9240640843811,0.9999927505506916,0.0002238553157045599
1325.931008653201,1325.931008653201,1.0002504874696887,0.0002238738503270822
1325.9379532217874,1325.9379532217874,1.0000171757526668,0.0002238378466827248
1325.9448977905142,1325.9448977905142,0.9996887848540765,0.000223795445152771
1325.9518423591476,1325.9518423591476,0.9997133580357099,0.00022380660451217201
1325.958786927781,1325.958786927781,1.0001440074499686,0.0002238462460060348
1325.9665648445796,1325.9665648445796,0.9995687601693056,0.0002238471381505505
1325.974064978625,1325.974064978625,1.000235149419955,0.0002239062639332123
1325.9810095471653,1325.9810095471653,1.0003546520962245,0.00022391814839937794
1325.9879541157052,1325.9879541157052,1.000258961171908,0.00022390846573326541
1325.9948986841523,1325.9948986841523,1.0000790228646663,0.0002238808702561106
1326.0018432526927,1326.0018432526927,0.9995676272665065,0.00022386434016039063
1326.008787821093,1326.008787821093,0.9998623208776583,0.00022391290461315502
1326.0157323895403,1326.0157323895403,1.0000568441450768,0.00022396158167958667
1326.0226769579408,1326.0226769579408,0.9999352952982725,0.00022398845112429991
1326.0296215263413,1326.0296215263413,1.0001743834509167,0.00022405007589398066
1326.0365660946486,1326.0365660946486,0.9999580396135845,0.0002240687835541229
1326.0435106630023,1326.0435106630023,1.0001592053308435,0.0002240676156128725
1326.05045523131,1326.05045523131,0.9998724744331937,0.00022403920772346057
1326.057399799617,1326.057399799617,1.0000718399708692,0.00022404213807344242
1326.0643443678314,1326.0643443678314,1.0000399026867277,0.0002240609707854572
1326.0712889360923,1326.0712889360923,0.9996705529730967,0.00022403676787905
1326.078233504306,1326.078233504306,1.0001118927975536,0.00022410878075916093
1326.0851780724745,1326.0851780724745,0.999869919875719,0.00022408585490486018
1326.092122640688,1326.092122640688,1.0002036675067099,0.00022410794487247304
1326.0990672088096,1326.0990672088096,1.000038319923214,0.00022411947570300813
1326.106011776884,1326.106011776884,1.0000332612109957,0.00022414039182695563
1326.112956345005,1326.112956345005,1.000031954516829,0.00022413075792045668
1326.1199009130796,1326.1199009130796,1.0004113289767982,0.00022420953472132018
1326.1268454811072,1326.1268454811072,0.9996969193391791,0.00022413200331872544
1326.1337900491358,1326.1337900491358,0.9998980474376772,0.0002241541507685014
1326.1407346171632,1326.1407346171632,0.9998448416022037,0.00022418378057640422
1326.1476791850982,1326.1476791850982,0.9999108795019854,0.00022418663518473407
1326.154623753033,1326.154623753033,1.0000000836365868,0.00022420712372752213
1326.1615683209677,1326.1615683209677,1.000062162836744,0.00022420113294246126
1326.1685128889028,1326.1685128889028,1.000339603911839,0.00022427551634069407
1326.1754574567908,1326.1754574567908,0.9998416626489233,0.0002242283102755805
1326.1824020246327,1326.1824020246327,1.000185929287961,0.0002242503555818225
1326.1893465924277,1326.1893465924277,0.99992949511585,0.0002242152616256766
1326.1962911602225,1326.1962911602225,0.9995661587319085,0.0002241961308013914
1326.2032357280648,1326.2032357280648,1.000065968723457,0.00022424906041907094
1326.2101802957663,1326.2101802957663,1.0001408331700925,0.00022425430947352714
1326.2171248634688,1326.2171248634688,0.9995286834050747,0.00022417832795815058
1326.2240694313102,1326.2240694313102,1.0000974852098967,0.00022423929678313978
1326.2310139989656,1326.2310139989656,1.0003322221657975,0.00022424725278417067
1326.237958566621,1326.237958566621,1.000243769527613,0.00022424071797390085
1326.2449031342762,1326.2449031342762,1.0002538806067167,0.00022424371920092153
1326.251847701746,1326.251847701746,0.9998267941407155,0.00022421378048201215
1326.2587922693542,1326.2587922693542,0.9999037735536191,0.00022424127160174364
1326.2657368370103,1326.2657368370103,1.0001162546729172,0.0002242555422799638
1326.2726814044327,1326.2726814044327,0.9997437491934964,0.00022420095889396055
1326.2796259719948,1326.2796259719948,1.0000313857467267,0.00022425142120244737
1326.2865705394643,1326.2865705394643,0.9997264738395877,0.00022419563676994583
1326.2935151069332,1326.2935151069332,0.9998924904439711,0.00022424182465241642
1326.3004596743558,1326.3004596743558,1.0002315902540537,0.00022427595949143928
1326.3074042417782,1326.3074042417782,1.0001995364007192,0.00022427667653830154
1326.3143488091544,1326.3143488091544,1.0000383583446495,0.00022426404412147346
1326.3212933765305,1326.3212933765305,0.9998691843129137,0.00022425794219938644
1326.3282379438597,1326.3282379438597,0.9999777097672036,0.00022430269657721503
1326.3351825111433,1326.3351825111433,1.0000676159543618,0.00022429635638115698
1326.342127078426,1326.342127078426,0.9997212589575204,0.00022431055956269414
1326.3496272110747,1326.3496272110747,1.0003808957044042,0.0002243573758076405
1326.3587940398209,1326.3587940398209,0.9998882669811497,0.0002243615843068744
1326.3657386070106,1326.3657386070106,1.0001587338866753,0.00022442067063772533
1326.3726831742006,1326.3726831742006,0.9999465326331937,0.00022441522946903313
1326.3796277413435,1326.3796277413435,0.9999869908568279,0.0002244312668982081
1326.3865723084405,1326.3865723084405,0.9998853897135529,0.0002244550157475856
1326.393516875537,1326.393516875537,1.000191304075636,0.000224488724346323
1326.4004614425871,1326.4004614425871,0.9998640273959432,0.0002244771173779323
1326.4074060096834,1326.4074060096834,0.9999760727834677,0.00022449373231411986
1326.4143505766874,1326.4143505766874,0.9999199903684561,0.00022452514511453998
1326.4212951436907,1326.4212951436907,0.9997360332853024,0.00022452309803753655
1326.4282397106476,1326.4282397106476,1.0001778804280825,0.0002245432192744204
1326.435184277558,1326.435184277558,1.00004418908034,0.00022456071325980593
1326.4421288445149,1326.4421288445149,1.0002924960606672,0.00022458247252392905
1326.4490734113788,1326.4490734113788,0.9998844915763444,0.00022456939069348788
1326.4560179782425,1326.4560179782425,0.9998570518589203,0.00022457600219549147
1326.4629625450598,1326.4629625450598,1.0000153771869236,0.00022460122891928576
1326.4699071119235,1326.4699071119235,1.000094813893342,0.0002246313179944472
1326.4768516786942,1326.4768516786942,0.9998342599134642,0.00022464153179702247
1326.4837962454187,1326.4837962454187,1.0001972703593414,0.00022468513986205834
1326.4907408121423,1326.4907408121423,1.0002101569668966,0.00022468505702890853
1326.497685378867,1326.497685378867,0.9999916552575374,0.0002246912447314222
1326.5046299454975,1326.5046299454975,0.9998106114716201,0.00022470260921265227
1326.5115745122216,1326.5115745122216,0.9999371617523674,0.00022473778804875405
1326.518519078806,1326.518519078806,0.9998636505274163,0.0002247466769890216
1326.5254636454372,1326.5254636454372,0.9998720389357235,0.00022479524367440565
1326.5324082119284,1326.5324082119284,1.0002168664729365,0.0002248499133380807
1326.5393527785593,1326.5393527785593,0.9997753273816141,0.00022482691011075428
1326.5462973451438,1326.5462973451438,1.0003438541700054,0.00022493011545121326
1326.553241911635,1326.553241911635,0.9999526969934728,0.0002248919185642003
1326.5601864780333,1326.5601864780333,0.9998989908437809,0.00022491754840281617
1326.5671310443845,1326.5671310443845,1.0001273799588435,0.00022496147479118567
1326.574075610876,1326.574075610876,0.9998997718053577,0.00022492435402277533
1326.5810201772279,1326.5810201772279,1.00011703207566,0.00022501434164889006
1326.5879647436257,1326.5879647436257,1.0000567648667673,0.00022498366177085225
1326.5949093099312,1326.5949093099312,1.0000002141219073,0.00022498976806944248
1326.601853876236,1326.601853876236,0.9996539188583622,0.00022500073487457376
1326.608798442541,1326.608798442541,0.9998124672164354,0.00022500146817541183
1326.6157430087528,1326.6157430087528,1.0001999043308039,0.0002250500879119648
1326.6226875750112,1326.6226875750112,1.0003436755028834,0.00022509124776682893
1326.6296321411767,1326.6296321411767,0.9996827244893023,0.00022502157011928354
1326.6365767073416,1326.6365767073416,0.9999431519456063,0.00022508254085390963
1326.6435212734607,1326.6435212734607,0.9999690929411169,0.00022509195167664725
1326.650465839626,1326.650465839626,1.0000791039171486,0.00022510364964917863
1326.6574104056515,1326.6574104056515,1.000103894931436,0.00022508891696936114
1326.6643549717705,1326.6643549717705,0.9998352844137134,0.0002250649067389244
1326.671299537796,1326.671299537796,0.9998667917569696,0.00022507031479852244
1326.6782441037753,1326.6782441037753,0.9998617065221529,0.00022504369972599808
1326.685188669801,1326.685188669801,1.0000953102434127,0.00022508862003461872
1326.6932443662322,1326.6932443662322,1.0002631152001937,0.00022508432362297083
1326.7004667147776,1326.7004667147776,0.9998579719887492,0.00022503676707685407
1326.70741128071,1326.70741128071,1.0001151391276528,0.00022505866130898968
1326.7149114118224,1326.7149114118224,0.9998824072415402,0.00022502868377788257
1326.7226893255474,1326.7226893255474,0.9999732741640592,0.00022501941786144854
1326.7296338913402,1326.7296338913402,1.0002575208015836,0.00022503014256742803
1326.7365784570864,1326.7365784570864,0.9998510310947749,0.00022499004359276365
1326.7435230228796,1326.7435230228796,0.9999571542323477,0.00022497344503136585
1326.7504675885787,1326.7504675885787,1.0001794852060708,0.00022501357056233106
1326.7574121542318,1326.7574121542318,1.0002211825795901,0.00022501278027757255
1326.7643567198852,1326.7643567198852,0.9998764144297004,0.00022496339875905597
1326.771301285538,1326.771301285538,0.9999224863736442,0.00022498847905639212
1326.7782458511447,1326.7782458511447,1.000388561348109,0.0002250315428011836
1326.7851904167046,1326.7851904167046,0.9997622984073786,0.00022497200583109517
1326.792134982218,1326.792134982218,1.0001986991035998,0.00022503671608264676
1326.7990795477313,1326.7990795477313,0.9997794459245835,0.00022500575803400974
1326.806024113245,1326.806024113245,1.000139048841533,0.00022505284533888163
1326.8129686786185,1326.8129686786185,0.9999499357057218,0.00022507042386392092
1326.8199132441782,1326.8199132441782,0.9996392748375061,0.00022505070301616893
1326.8268578095056,1326.8268578095056,0.999902047688335,0.00022509383122909632
1326.8338023748324,1326.8338023748324,1.0001119199653254,0.00022510099956989706
1326.84074694016,1326.84074694016,1.0003846263814906,0.00022514122120827857
1326.847691505487,1326.847691505487,0.9999575105122464,0.00022508978561551997
1326.854636070814,1326.854636070814,0.9996957155303383,0.00022507395500782828
1326.861580636141,1326.861580636141,1.0000700716851445,0.0002250757554308971
1326.8685252012824,1326.8685252012824,0.9999219038230631,0.00022506786229967087
1326.8754697665631,1326.8754697665631,1.0002162979714733,0.00022506812557499504
1326.8824143316567,1326.8824143316567,1.0000004622313448,0.00022504907026057422
1326.889358896798,1326.889358896798,1.0003970513817895,0.0002250501619433978
1326.8963034619387,1326.8963034619387,0.9999628183707727,0.00022501593620428596
1326.903248027033,1326.903248027033,0.9996231071022535,0.00022491683017026925
1326.9101925920809,1326.9101925920809,0.9999046082922461,0.00022490365151434918
1326.9171371570822,1326.9171371570822,1.0000248694523697,0.00022488145554354775
1326.924081722083,1326.924081722083,0.9996814684899386,0.00022479119475191204
1326.9310262869913,1326.9310262869913,1.0000673902050534,0.00022480750941158962
1326.937970851946,1326.937970851946,1.0001695065195944,0.00022479069484367345
1326.9449154169001,1326.9449154169001,1.0000979796033698,0.00022473131584661846
1326.9518599817618,1326.9518599817618,1.0004762692080127,0.0002247527159685998
1326.9588045465766,1326.9588045465766,0.9998773223767783,0.00022464876647355705
1326.9657491114383,1326.9657491114383,0.9996506047314997,0.0002245885370639621
1326.9726936762067,1326.9726936762067,1.0000867103773556,0.00022461602434469967
1326.9796382409281,1326.9796382409281,0.9998854515444686,0.0002245657534356967
1326.9865828056968,1326.9865828056968,0.9999198940600611,0.0002245763760599848
1326.9935273704184,1326.9935273704184,1.000187385510218,0.00022456847700100808
1327.0004719350475,1327.0004719350475,1.0004468790640373,0.00022460637441250333
1327.0074164996756,1327.0074164996756,0.9994127643817972,0.0002245085417507904
1327.0143610643045,1327.0143610643045,1.000022888970794,0.00022454958056867505
1327.0213056288865,1327.0213056288865,0.9999873210586291,0.00022457727928382065
1327.028250193422,1327.028250193422,0.9999642349391799,0.00022454468722725714
1327.0351947579577,1327.0351947579577,1.0000221169279624,0.00022457131930859117
1327.042139322446,1327.042139322446,1.000081935108629,0.00022461966956999197
1327.0490838868889,1327.0490838868889,1.0003253330215567,0.00022462106368343758
1327.056028451331,1327.056028451331,0.9999058702532103,0.00022458816437153582
