time,time,flux,flux_err
1325.300314712077,1325.300314712077,1.0000288992120774,8.629333422801748e-05
1325.308648092137,1325.308648092137,1.0000245678386275,8.629957255832808e-05
1325.316981472353,1325.316981472353,0.9999794257406259,8.629763978642721e-05
1325.3246204043285,1325.3246204043285,0.9998269735362635,7.877347922009961e-05
1325.331564888118,1325.331564888118,1.0000239023196549,7.87848643673043e-05
1325.3385093719546,1325.3385093719546,1.0000613115567092,7.878823305089011e-05
1325.3454538559074,1325.3454538559074,1.0000801830681367,7.879259140789004e-05
1325.3523983399998,1325.3523983399998,0.9999776116817405,7.879142525009585e-05
1325.3593428242089,1325.3593428242089,0.9999480467714805,7.879848641898053e-05
1325.366287308511,1325.366287308511,1.0000478405673054,7.880657411221743e-05
1325.3732317929057,1325.3732317929057,1.000005078018781,7.880956248137536e-05
1325.3801762774642,1325.3801762774642,1.000047578062297,7.881321588373159e-05
1325.3871207620923,1325.3871207620923,0.9999397624567857,7.8810618002872e-05
1325.3940652468366,1325.3940652468366,1.0000409966476018,7.882421989275609e-05
1325.401009731674,1325.401009731674,0.9999783036888699,7.882353980005943e-05
1325.407954216605,1325.407954216605,0.9999358521509624,7.882504091783778e-05
1325.414898701652,1325.414898701652,1.0000570657216916,7.883201100815562e-05
1325.4218431868155,1325.4218431868155,0.9999510525798104,7.883562782343799e-05
1325.4287876720487,1325.4287876720487,0.999817680684638,7.883150547596716e-05
1325.4357321574219,1325.4357321574219,1.0002581615288901,7.885600366358447e-05
1325.4426766428883,1325.4426766428883,0.9999966027534857,7.884999845238538e-05
1325.4496211284008,1325.4496211284008,1.0000448707730445,7.885709874137335e-05
1325.4565656140535,1325.4565656140535,1.0000172969801073,7.886006439615829e-05
1325.463510099799,1325.463510099799,1.0000005005249315,7.886120303753468e-05
1325.4704545856378,1325.4704545856378,0.9999735474872418,7.886960138012801e-05
1325.4773990715462,1325.4773990715462,0.9998991486768919,7.886778564860397e-05
1325.484343557571,1325.484343557571,0.9999079354323953,7.887282323213716e-05
1325.4912880437128,1325.4912880437128,1.0000569697332307,7.888443005748443e-05
1325.4982325298774,1325.4982325298774,1.0000194792098216,7.888885097841436e-05
1325.5051770161815,1325.5051770161815,1.0001769211716334,7.88992825436571e-05
1325.5121215025563,1325.5121215025563,0.9999872566938022,7.889468327505505e-05
1325.5190659890234,1325.5190659890234,1.000083148861427,7.890324846313654e-05
1325.5260104755605,1325.5260104755605,0.9999042498390347,7.89050825095666e-05
1325.532954962214,1325.532954962214,1.0000542049180292,7.891658028305005e-05
1325.539899448961,1325.539899448961,1.0000207184546652,7.891882941172746e-05
1325.5468439357312,1325.5468439357312,0.9999597304005343,7.892098873985294e-05
1325.5537884226408,1325.5537884226408,0.9999511590036235,7.892521451611793e-05
1325.5607329095974,1325.5607329095974,0.9999912262688081,7.893121044764966e-05
1325.5676773966468,1325.5676773966468,1.00003908991504,7.893956851535118e-05
1325.5746218837892,1325.5746218837892,1.0000607875639074,7.89448158958057e-05
1325.5815663710018,1325.5815663710018,0.999925228848344,7.89414929712132e-05
1325.5885108582838,1325.5885108582838,1.0000529905869298,7.894716137175851e-05
1325.5954553456593,1325.5954553456593,1.0000191926276494,7.894939001318782e-05
1325.6023998331045,1325.6023998331045,0.9999615655965606,7.895003110609175e-05
1325.6093443206196,1325.6093443206196,0.9999938365355641,7.89541892529538e-05
1325.616288808205,1325.616288808205,1.000013065811004,7.895392031789591e-05
1325.6232332959062,1325.6232332959062,0.9999069193513911,7.89535658406447e-05
1325.6301777836306,1325.6301777836306,1.0000123266001195,7.895573741522024e-05
1325.6371222714486,1325.6371222714486,1.000065078018312,7.895705199252774e-05
1325.6440667593592,1325.6440667593592,1.0000352990224612,7.895679664087719e-05
1325.6510112472704,1325.6510112472704,1.0000725769515089,7.895900017469663e-05
1325.657955735321,1325.657955735321,0.9999973185132873,7.895885627861901e-05
1325.6649002233949,1325.6649002233949,0.9998979051699394,7.895375523557613e-05
1325.6718447115618,1325.6718447115618,0.9999937176616868,7.895608669569982e-05
1325.6787891997756,1325.6787891997756,0.999998664906377,7.895193962809847e-05
1325.6857336880826,1325.6857336880826,0.9999924420667428,7.895488136611982e-05
1325.6926781764355,1325.6926781764355,0.9999716512367357,7.89563936765085e-05
1325.699622664859,1325.699622664859,0.9999011015112806,7.895339046573878e-05
1325.7065671533521,1325.7065671533521,1.000028241893975,7.895747864615099e-05
1325.7135116418913,1325.7135116418913,1.0001039535944558,7.896200032849738e-05
1325.7204561305239,1325.7204561305239,1.0001101027277965,7.896112356851385e-05
1325.7274006191801,1325.7274006191801,0.9999956253156619,7.896211480055703e-05
1325.7343451079291,1325.7343451079291,0.9999815464296805,7.895977962284027e-05
1325.741289596725,1325.741289596725,1.000002992291387,7.896288049211586e-05
1325.74823408559,1325.74823408559,1.000069868646335,7.898285440518863e-05
1325.7551785744793,1325.7551785744793,0.9999786503344408,7.89686626718558e-05
1325.7621230634613,1325.7621230634613,0.9999810103925884,7.896825486044111e-05
1325.7690675524664,1325.7690675524664,0.9999298242754234,7.896674527947464e-05
1325.7760120415417,1325.7760120415417,1.0000851974765144,7.897643671356989e-05
1325.7829565307097,1325.7829565307097,1.0001312115394867,7.898269751469052e-05
1325.7899010199012,1325.7899010199012,0.9998621725785204,7.89711409392315e-05
1325.7968455091625,1325.7968455091625,1.0000898939224865,7.898221053198075e-05
1325.8037899984472,1325.8037899984472,0.9999598626068427,7.897799439701749e-05
1325.8107344878251,1325.8107344878251,1.0000452152069434,7.898460588676357e-05
1325.8176789772024,1325.8176789772024,1.0000776773285711,7.898696600973841e-05
1325.8246234666503,1325.8246234666503,0.9999668837328899,7.898651986771887e-05
1325.8315679561679,1325.8315679561679,0.9999689931319663,7.898200771719568e-05
1325.8385124457552,1325.8385124457552,0.9999087096190257,7.898158355229388e-05
1325.8454569353194,1325.8454569353194,1.0000634197491318,7.89881059424247e-05
1325.852401424976,1325.852401424976,0.9999228109974077,7.898096524123173e-05
1325.8593459147264,1325.8593459147264,0.9999238487873203,7.897836526644621e-05
1325.8662904044536,1325.8662904044536,1.0000895634584743,7.898628366260072e-05
1325.8732348942508,1325.8732348942508,1.0000020265343683,7.89800309548251e-05
1325.8801793841171,1325.8801793841171,0.9999160633442642,7.89734750657245e-05
1325.887123873984,1325.887123873984,1.0002293476903228,7.898413653513472e-05
1325.8940683639437,1325.8940683639437,1.0000165343800003,7.897576549342949e-05
1325.9010128539037,1325.9010128539037,0.9998998288538565,7.896619171815406e-05
1325.907957343933,1325.907957343933,0.999954176283915,7.896562889028308e-05
1325.9149018340092,1325.9149018340092,1.0000182268887365,7.896320168818067e-05
1325.9218463241089,1325.9218463241089,0.9999217755110097,7.896137892066667e-05
1325.9287908142553,1325.9287908142553,1.000006747064035,7.896504508958129e-05
1325.935735304471,1325.935735304471,1.000064360554423,7.896536157191253e-05
1325.9426797947103,1325.9426797947103,0.9999979496363716,7.896067030718835e-05
1325.9496242849498,1325.9496242849498,1.0000584359184823,7.896219108581898e-05
1325.9565687753052,1325.9565687753052,0.9999293569762306,7.895581903217438e-05
1325.9643466044897,1325.9643466044897,1.0000065206336595,7.896202519321226e-05
1325.9718466541112,1325.9718466541112,0.999990296568372,7.895771498036918e-05
1325.9787911445599,1325.9787911445599,1.0000030636289514,7.895820783278691e-05
1325.9857356350317,1325.9857356350317,1.0000647646159195,7.896177439245305e-05
1325.9926801255735,1325.9926801255735,1.0000113479830346,7.896074433169806e-05
1325.9996246160924,1325.9996246160924,0.9998185543375196,7.895343306049437e-05
1326.0065691066807,1326.0065691066807,1.0001104335175208,7.896392676521504e-05
1326.0135135972928,1326.0135135972928,1.0000175471422175,7.896397876555056e-05
1326.020458087974,1326.020458087974,0.9999622944060323,7.89642763094742e-05
1326.027402578656,1326.027402578656,1.0000926500791514,7.8974117731871e-05
1326.0343470693608,1326.0343470693608,0.9999969839776552,7.8967740367909e-05
1326.0412915601587,1326.0412915601587,1.0000215297685664,7.896695747102619e-05
1326.0482360508872,1326.0482360508872,0.9999078360426722,7.896632098474565e-05
1326.0551805417083,1326.0551805417083,0.9999862189494145,7.897063471780448e-05
1326.0621250326226,1326.0621250326226,1.000025320968482,7.89708263542164e-05
1326.0690695234907,1326.0690695234907,1.0000505707840686,7.897456462442162e-05
1326.0760140144046,1326.0760140144046,0.9999569392579787,7.896748715040424e-05
1326.0829585053664,1326.0829585053664,1.0000020264685994,7.896817574729815e-05
1326.089902996327,1326.089902996327,0.999947247473297,7.89664496408629e-05
1326.0968474873348,1326.0968474873348,1.0000501649645106,7.89736922472507e-05
1326.1037919783892,1326.1037919783892,0.9999586454094758,7.896763767888248e-05
1326.1107364694662,1326.1107364694662,0.9999672647022704,7.896431092036347e-05
1326.1176809605206,1326.1176809605206,1.0000185962519397,7.8967381204516e-05
1326.1246254516675,1326.1246254516675,1.0000165585150784,7.896766362771241e-05
1326.1315699428153,1326.1315699428153,1.0000057340993254,7.89666741521118e-05
1326.1385144340086,1326.1385144340086,1.0000082727767494,7.896594078657316e-05
1326.1454589252262,1326.1454589252262,1.000022410358937,7.896752135432636e-05
1326.15240341642,1326.15240341642,1.0000071999195526,7.89636290473091e-05
1326.1593479076832,1326.1593479076832,1.0000558707274163,7.896418871417322e-05
1326.1662923989707,1326.1662923989707,0.9999742521053181,7.89637468135171e-05
1326.1732368903038,1326.1732368903038,1.000003838308336,7.896142856587275e-05
1326.1801813816141,1326.1801813816141,1.000000750654791,7.89610053523353e-05
1326.1871258730177,1326.1871258730177,1.0000024198126929,7.896039182934209e-05
1326.1940703643043,1326.1940703643043,0.999920277557143,7.895487450897156e-05
1326.2010148557315,1326.2010148557315,1.0000707112028495,7.896601888806077e-05
1326.2079593472276,1326.2079593472276,0.9998220193347314,7.894709092659121e-05
1326.2149038386317,1326.2149038386317,0.9999609025693873,7.895716582597151e-05
1326.2218483301276,1326.2218483301276,1.0000948977300097,7.896553379242321e-05
1326.228792821601,1326.228792821601,1.0000662892648422,7.896151712494709e-05
1326.2357373131208,1326.2357373131208,1.0000875678285557,7.896541000616368e-05
1326.2426818046636,1326.2426818046636,1.0000001069874065,7.895826027487648e-05
1326.2496262962072,1326.2496262962072,0.9999628425727434,7.895520916518462e-05
1326.2565707877966,1326.2565707877966,1.0000084995943817,7.896201093207894e-05
1326.2635152793864,1326.2635152793864,1.0001270036764462,7.896371761087274e-05
1326.2704597710226,1326.2704597710226,0.99994810851134,7.895563553629158e-05
1326.2774042626586,1326.2774042626586,0.9998161830662301,7.894966704337909e-05
1326.2843487543184,1326.2843487543184,0.9998328841881922,7.895014478300303e-05
1326.2912932460245,1326.2912932460245,1.0000226854788676,7.896130283086129e-05
1326.2982377377073,1326.2982377377073,1.0000811334043878,7.896084495762491e-05
1326.305182229413,1326.305182229413,1.000077532916981,7.895851340549306e-05
1326.3121267211427,1326.3121267211427,1.0001659976314778,7.896409656609351e-05
1326.319071212872,1326.319071212872,1.0000430696827882,7.895871275462038e-05
1326.3260157046475,1326.3260157046475,0.9999820002483781,7.89565897743908e-05
1326.3329601964474,1326.3329601964474,0.9999336622498805,7.895445043367832e-05
1326.3399046882464,1326.3399046882464,1.0000438904937705,7.895715111121185e-05
1326.3474047394043,1326.3474047394043,0.9997939787694644,7.895023396589543e-05
1326.3565714686388,1326.3565714686388,0.9999181049085596,7.895578703658545e-05
1326.3635159604846,1326.3635159604846,1.0000373724985105,7.896518398429545e-05
1326.3704604523537,1326.3704604523537,1.0001146213096157,7.896319791050647e-05
1326.3774049442227,1326.3774049442227,1.000099577590664,7.896547061774528e-05
1326.384349436115,1326.384349436115,1.0000837352140874,7.896557344079631e-05
1326.391293928054,1326.391293928054,1.0000525246104792,7.896511998634485e-05
1326.3982384199464,1326.3982384199464,0.9998079636719561,7.895402905163831e-05
1326.405182911932,1326.405182911932,0.999900280448497,7.896094710349443e-05
1326.4121274039176,1326.4121274039176,0.9998845104409657,7.896321680977269e-05
1326.4190718957866,1326.4190718957866,1.0000687718220935,7.896663362314152e-05
1326.426016387772,1326.426016387772,1.0001365073238597,7.89691013745084e-05
1326.4329608798039,1326.4329608798039,1.000018834943823,7.896679646393131e-05
1326.4399053718591,1326.4399053718591,0.9999315256400182,7.896184604385873e-05
1326.4468498638448,1326.4468498638448,1.000030600721384,7.89685590388959e-05
1326.4537943558535,1326.4537943558535,1.0000072364661425,7.8968867711174e-05
1326.4607388479321,1326.4607388479321,1.000023626455879,7.896823941693108e-05
1326.467683339964,1326.467683339964,1.0000261653430722,7.897105778316451e-05
1326.4746278320195,1326.4746278320195,1.0000014186895654,7.896888921333006e-05
1326.4815723241215,1326.4815723241215,0.9998742016788986,7.896538484829981e-05
1326.4885168161998,1326.4885168161998,1.000088416050297,7.89742109340549e-05
1326.495461308302,1326.495461308302,1.0000502220408591,7.897126497390329e-05
1326.5024058004037,1326.5024058004037,0.99994850331776,7.89680498843934e-05
1326.5093502925058,1326.5093502925058,0.9998793046983886,7.896413882443608e-05
1326.516294784654,1326.516294784654,1.0000774355955162,7.89724795321883e-05
1326.5232392767793,1326.5232392767793,1.0000379667114625,7.897268475302016e-05
1326.5301837689278,1326.5301837689278,0.9999705558342707,7.89748197997285e-05
1326.5371282610993,1326.5371282610993,0.9999953154907711,7.897474274115312e-05
1326.5440727532248,1326.5440727532248,0.999922816530568,7.897347172825978e-05
1326.5510172454196,1326.5510172454196,1.0001101206683154,7.898455555921784e-05
1326.557961737591,1326.557961737591,1.0001257126201721,7.898504375073782e-05
1326.5649062297864,1326.5649062297864,0.9999586956528679,7.897911486949004e-05
1326.5718507219813,1326.5718507219813,0.9999335310930813,7.897480870930598e-05
1326.5787952142,1326.5787952142,1.0000660764389626,7.898246817043735e-05
1326.5857397063944,1326.5857397063944,0.999970007365374,7.898184780474569e-05
1326.5926841986134,1326.5926841986134,1.000057148545916,7.89816336363133e-05
1326.5996286908314,1326.5996286908314,0.9998072624285822,7.897269410421362e-05
1326.6065731830731,1326.6065731830731,0.9999588731521122,7.897873361757308e-05
1326.6135176753146,1326.6135176753146,1.0000359777795427,7.898247910060889e-05
1326.6204621675558,1326.6204621675558,1.0000310541739275,7.898541359413293e-05
1326.627406659798,1326.627406659798,1.0000475772420971,7.898889163157238e-05
1326.6343511520856,1326.6343511520856,0.999998366789379,7.898376802843684e-05
1326.6412956443278,1326.6412956443278,1.000105370898196,7.898849750162691e-05
1326.648240136569,1326.648240136569,0.9999157887686071,7.898003537221796e-05
1326.6551846288571,1326.6551846288571,1.0000020742617988,7.898112309247733e-05
1326.6621291211225,1326.6621291211225,0.9999974023470912,7.897584609295248e-05
1326.66907361341,1326.66907361341,0.9999915362088518,7.897538818440177e-05
1326.6760181057452,1326.6760181057452,0.9999631529798452,7.897725735927086e-05
1326.68296259801,1326.68296259801,0.9998443146482018,7.896772292323002e-05
1326.6910182090623,1326.6910182090623,1.0001519045224971,7.897991762143476e-05
1326.6982404810763,1326.6982404810763,1.0000368222173917,7.897608553028636e-05
1326.7051849733646,1326.7051849733646,1.0000303137860016,7.897112853622763e-05
1326.7126850250813,1326.7126850250813,0.9999872329739083,7.896757092552156e-05
1326.7204628564546,1326.7204628564546,1.0000218019074338,7.896965410688915e-05
1326.727407348766,1326.727407348766,1.000036690833955,7.896620328116287e-05
1326.7343518411005,1326.7343518411005,0.9998795946641913,7.895615570280564e-05
1326.7412963334123,1326.7412963334123,0.9999458109519971,7.895694591457167e-05
1326.7482408257467,1326.7482408257467,1.0000841086596999,7.896312385996376e-05
1326.7551853180812,1326.7551853180812,0.999961771220639,7.8963790095127e-05
1326.762129810393,1326.762129810393,1.0000800815042354,7.896413791793594e-05
1326.7690743027274,1326.7690743027274,0.9999184647589899,7.895901433997012e-05
1326.7760187950623,1326.7760187950623,1.0001216832881288,7.896398272936084e-05
1326.782963287397,1326.782963287397,0.999917880153269,7.895411241913326e-05
1326.7899077797551,1326.7899077797551,1.0000702708067455,7.89612330902958e-05
1326.7968522720898,1326.7968522720898,0.9999287041152733,7.895799073009457e-05
1326.8037967644245,1326.8037967644245,1.0000154131358128,7.896199477940224e-05
1326.8107412567592,1326.8107412567592,0.999928620485562,7.895581995191618e-05
1326.817685749117,1326.817685749117,1.0000932298491398,7.896303420332394e-05
1326.8246302414518,1326.8246302414518,0.9999467038554872,7.895561472298621e-05
1326.83157473381,1326.83157473381,1.000060543341401,7.896239977874901e-05
1326.8385192261449,1326.8385192261449,0.9998848508945951,7.895483211336804e-05
1326.8454637185027,1326.8454637185027,1.0000199425931486,7.895749192162951e-05
1326.8524082108374,1326.8524082108374,0.9999285274406752,7.895133979410354e-05
1326.8593527031953,1326.8593527031953,1.0001296187105324,7.896176518362793e-05
1326.8662971955305,1326.8662971955305,0.9999829183067244,7.895257526323345e-05
1326.8732416878884,1326.8732416878884,1.0000549403148953,7.89562726240432e-05
1326.8801861802228,1326.8801861802228,1.000038109509134,7.895533232644581e-05
1326.887130672581,1326.887130672581,0.9999846942569459,7.89469233932571e-05
1326.8940751649156,1326.8940751649156,1.0000191676159425,7.894929552381471e-05
1326.9010196572738,1326.9010196572738,0.9999865893886597,7.894313481570575e-05
1326.9079641496082,1326.9079641496082,0.9999161017444337,7.89360522634132e-05
1326.9149086419663,1326.9149086419663,0.9999806286988966,7.893689031986418e-05
1326.921853134301,1326.921853134301,0.9998948464529814,7.893243720644884e-05
1326.9287976266357,1326.9287976266357,1.000119614976243,7.894454172915247e-05
1326.935742118971,1326.935742118971,1.0000824327645188,7.893940983411205e-05
1326.9426866113286,1326.9426866113286,0.9999461419939413,7.89289305230127e-05
1326.9496311036633,1326.9496311036633,0.9999430190737171,7.892815601339399e-05
1326.956575595998,1326.956575595998,1.0000065086960226,7.892765020084382e-05
1326.96352008831,1326.96352008831,0.9999723571930785,7.892527313446121e-05
1326.9704645806444,1326.9704645806444,0.9999839430884802,7.892254217308865e-05
1326.9774090729786,1326.9774090729786,1.0001579174389117,7.892543339786106e-05
1326.984353565314,1326.984353565314,0.9999639778080411,7.890839470868152e-05
1326.991298057625,1326.991298057625,0.9999380637956536,7.891232262609922e-05
1326.998242549937,1326.998242549937,0.9999915380775317,7.891281211716711e-05
1327.0051870422715,1327.0051870422715,1.000085343803921,7.891511711281234e-05
1327.0121315345827,1327.0121315345827,0.9999540747961998,7.890923416560401e-05
1327.0190760268943,1327.0190760268943,0.9999660768074244,7.890956485984236e-05
1327.0260205192055,1327.0260205192055,1.0000658213124214,7.891372505415668e-05
1327.032965011494,1327.032965011494,0.9999704864058543,7.891046045893287e-05
1327.0399095038283,1327.0399095038283,0.9999144971884414,7.890641121990271e-05
1327.0468539960937,1327.0468539960937,1.0002093782151733,7.892199989182424e-05
1327.0537984884047,1327.0537984884047,1.0000542366712768,7.891416039049824e-05
1327.061576319778,1327.061576319778,0.9999769339593273,7.890834572552165e-05
1327.069076371448,1327.069076371448,0.9998674471314395,7.890606671572865e-05
1327.0760208637134,1327.0760208637134,0.9998463830177988,7.89103748825704e-05
