time,time,flux,flux_err
1325.2981041181463,1325.2981041181463,0.9991718479085536,0.001817530520389019
1325.3064375609154,1325.3064375609154,0.9999977977975102,0.0018168056854186438
1325.3147710039957,1325.3147710039957,1.00059593481585,0.0018180721992344215
1325.3224099936472,1325.3224099936472,1.000593245042245,0.00166073047753101
1325.3293545299866,1325.3293545299866,0.99987585987954,0.001661993634099488
1325.3362990664893,1325.3362990664893,1.0037158165419997,0.0016639570238229714
1325.343243603132,1325.343243603132,0.9986933656497449,0.0016642105214259048
1325.350188140007,1325.350188140007,0.9991484525292821,0.0016666579896839906
1325.3571326770684,1325.3571326770684,0.9976665892197225,0.0016678962978755759
1325.3640772142699,1325.3640772142699,1.0000849908829572,0.0016714820460993554
1325.3710217517037,1325.3710217517037,1.000439124283329,0.0016730888513802739
1325.3779662892775,1325.3779662892775,0.9986970992072915,0.0016750553468149062
1325.3849108270374,1325.3849108270374,0.9989046059524144,0.0016782143500557677
1325.3918553649605,1325.3918553649605,0.999645849797818,0.001681554057826595
1325.3987999030928,1325.3987999030928,1.0010029575509791,0.0016831559179825953
1325.4057444413652,1325.4057444413652,1.0002540534665565,0.0016854775997294752
1325.4126889798001,1325.4126889798001,1.001854723722748,0.0016886401538461343
1325.4196335183983,1325.4196335183983,1.0004010230268086,0.001690082751985489
1325.4265780571593,1325.4265780571593,0.9988762607387989,0.0016924966655895647
1325.4335225960835,1325.4335225960835,0.9994889687023306,0.0016944935316354133
1325.4404671351708,1325.4404671351708,0.9983220866981058,0.0016962311253697151
1325.4474116743743,1325.4474116743743,1.0000864936066367,0.0016989039312627786
1325.4543562137872,1325.4543562137872,0.9983824181534384,0.0017012662988829523
1325.4613007533167,1325.4613007533167,1.0001058317546607,0.001703686771230894
1325.468245293009,1325.468245293009,1.0006181291234215,0.001706089062397921
1325.4751898328645,1325.4751898328645,1.000157003950934,0.0017073716341512058
1325.4821343728595,1325.4821343728595,1.0016334489873082,0.0017115233901056463
1325.4890789129715,1325.4890789129715,1.0010228744571343,0.0017129800508245627
1325.496023453246,1325.496023453246,0.9990454399556933,0.0017143665172761912
1325.5029679936601,1325.5029679936601,0.9979908463323474,0.0017167171171756247
1325.5099125342142,1325.5099125342142,1.0002561157725762,0.0017208410847820803
1325.5168570749076,1325.5168570749076,1.0000788707807056,0.0017233193717828671
1325.5238016157177,1325.5238016157177,1.0022070342845077,0.0017269103256312365
1325.5307461566906,1325.5307461566906,1.0005276466641089,0.0017304826604993447
1325.537690697803,1325.537690697803,0.9990375825204962,0.0017325566163021934
1325.5446352389863,1325.5446352389863,1.0009531327094097,0.0017365831656212828
1325.5515797803314,1325.5515797803314,1.000957780351275,0.0017395287082187035
1325.558524321817,1325.558524321817,0.9970414088569963,0.0017409276339558869
1325.5654688633954,1325.5654688633954,0.999864158860271,0.0017439489847532973
1325.5724134051134,1325.5724134051134,0.9998884549494613,0.0017468230572989514
1325.5793579469714,1325.5793579469714,0.999122258113095,0.0017495826854518517
1325.586302488922,1325.586302488922,0.9995623567425518,0.0017516105276863276
1325.5932470310358,1325.5932470310358,1.0016566045096105,0.001754225640180945
1325.6001915731965,1325.6001915731965,1.0010252256423,0.0017563768926145754
1325.6071361155198,1325.6071361155198,1.0027490167447048,0.0017587412630873656
1325.6140806579365,1325.6140806579365,0.9988765400550363,0.0017592093115886647
1325.6210252004926,1325.6210252004926,0.9977716144125311,0.0017604139764660748
1325.627969743119,1325.627969743119,0.9959966843980086,0.001760030638842221
1325.634914285908,1325.634914285908,1.0019723694084866,0.001763760673947316
1325.6418588287436,1325.6418588287436,1.0006459695993617,0.0017646252794652766
1325.6488033717424,1325.6488033717424,0.9979131667892167,0.0017642723788136607
1325.6557479147875,1325.6557479147875,1.0001688266217725,0.0017666939983731482
1325.662692457996,1325.662692457996,1.0018010424700785,0.0017678852571317305
1325.6696370012503,1325.6696370012503,1.0024400263906115,0.001769676475188641
1325.676581544645,1325.676581544645,0.9986376263124846,0.0017700989210058479
1325.6835260881094,1325.6835260881094,0.9993978771071672,0.0017706527038047442
1325.69047063169,1325.69047063169,0.9977006588198186,0.0017727962430275472
1325.6974151753643,1325.6974151753643,0.9990232183315948,0.0017748221104159749
1325.704359719108,1325.704359719108,1.0015991544713412,0.0017775953659125861
1325.7113042630142,1325.7113042630142,1.0002997503788702,0.00177801090094226
1325.7182488069677,1325.7182488069677,0.9991507793876939,0.0017810679648046352
1325.7251933510374,1325.7251933510374,1.0000128269173065,0.0017837343928591865
1325.7321378951533,1325.7321378951533,1.0032489357987295,0.001785860989456211
1325.7390824393865,1325.7390824393865,0.9972842379659083,0.0017880647808740228
1325.7460269837115,1325.7460269837115,1.0005421463887176,0.0017905580543032204
1325.7529715280843,1325.7529715280843,0.9997658088660601,0.0017928232436600338
1325.7599160725963,1325.7599160725963,1.0005014961933874,0.0017952539388754528
1325.7668606171549,1325.7668606171549,1.0004130273120369,0.001797563146153812
1325.7738051618066,1325.7738051618066,0.9999899852452245,0.0017998096669744703
1325.7807497065514,1325.7807497065514,0.9977632557711166,0.0018019674969426212
1325.7876942513662,1325.7876942513662,1.001505512606051,0.0018050158095134765
1325.7946387962977,1325.7946387962977,0.9995180935497988,0.0018062382636742625
1325.8015833412521,1325.8015833412521,1.0015430422154321,0.0018087320859739501
1325.8085278862998,1325.8085278862998,0.9984700933054238,0.0018099183347619605
1325.8154724314402,1325.8154724314402,1.0027697506718962,0.001812361155108379
1325.8224169766042,1325.8224169766042,0.9983933205115918,0.0018132941035177749
1325.8293615219313,1325.8293615219313,0.999722579763431,0.0018143898855221634
1325.8363060672582,1325.8363060672582,0.9973990866497452,0.0018144379794876465
1325.8432506127251,1325.8432506127251,0.9993599503791504,0.0018153742437182596
1325.850195158168,1325.850195158168,0.9998869084593206,0.0018147343388046418
1325.857139703798,1325.857139703798,0.9982555872255107,0.0018147479705117463
1325.8640842494042,1325.8640842494042,0.9992824279115486,0.0018140244257663252
1325.871028795104,1325.871028795104,1.0031595683885925,0.0018130927122175084
1325.8779733408965,1325.8779733408965,1.002491685958755,0.001812057157032848
1325.8849178867356,1325.8849178867356,0.9979131117057547,0.0018094902890714974
1325.8918624326445,1325.8918624326445,0.9995751417420579,0.0018081542993838653
1325.8988069786237,1325.8988069786237,1.001866170674368,0.001807986372918316
1325.9057515246488,1325.9057515246488,0.9983908691753418,0.0018069207192610627
1325.9126960707677,1325.9126960707677,1.0007401922310295,0.0018074415993433446
1325.9196406169326,1325.9196406169326,1.0008109358832467,0.0018060946888749925
1325.9265851631678,1325.9265851631678,0.9988336247924569,0.0018049489586764486
1325.9335297094258,1325.9335297094258,0.9983899502785138,0.0018047654918111132
1325.9404742558008,1325.9404742558008,0.9982338395956216,0.0018046703772953035
1325.9474188021989,1325.9474188021989,1.0023623566524136,0.0018041035089640153
1325.95436334869,1325.95436334869,0.9986103001761542,0.0018036754035669685
1325.962141240762,1325.962141240762,1.0014162577732666,0.0018033600149951665
1325.9696413510821,1325.9696413510821,0.9980932679175144,0.0018047538080912765
1325.9765858977364,1325.9765858977364,1.0027412649571978,0.0018057534481409447
1325.9835304444366,1325.9835304444366,1.0026211803740277,0.001806620591404742
1325.990474991207,1325.990474991207,0.9981739308771637,0.0018066114120009948
1325.9974195380246,1325.9974195380246,0.999610082864567,0.001807684876161285
1326.0043640848878,1326.0043640848878,1.000394026812937,0.001809787392747932
1326.0113086317983,1326.0113086317983,0.9997171882885766,0.0018127545242897583
1326.0182531787784,1326.0182531787784,0.9978154554445094,0.0018146363743409767
1326.025197725782,1326.025197725782,0.9993720015488827,0.001817969205413468
1326.032142272855,1326.032142272855,1.0018590876270632,0.0018198165605327725
1326.0390868199745,1326.0390868199745,1.0010736730175935,0.0018204186806776213
1326.0460313671413,1326.0460313671413,0.9992024034653412,0.0018205937205882168
1326.052975914354,1326.052975914354,0.9986268384062423,0.0018214068993707012
1326.0599204616367,1326.0599204616367,1.0016567427159446,0.0018223084853316977
1326.0668650089196,1326.0668650089196,0.9996177030461558,0.0018225774768543372
1326.073809556295,1326.073809556295,0.9995596712952217,0.0018233264501186937
1326.080754103695,1326.080754103695,1.000890732534301,0.001824466682480404
1326.0876986511635,1326.0876986511635,0.9975592326292876,0.0018244408409965555
1326.0946431986326,1326.0946431986326,0.9987396862411361,0.0018250133526254452
1326.1015877461716,1326.1015877461716,1.0003671143395898,0.0018267182723074797
1326.1085322937568,1326.1085322937568,1.0031733698838319,0.001827342375510808
1326.1154768413658,1326.1154768413658,1.001310260527405,0.0018268652379877658
1326.122421389044,1326.122421389044,1.0005788652813747,0.001829209002753468
1326.1293659367461,1326.1293659367461,0.999057965598625,0.0018298744450553194
1326.1363104844943,1326.1363104844943,1.0016787217101757,0.0018306845297322114
1326.1432550322893,1326.1432550322893,0.9981745890980868,0.0018306380891517514
1326.150199580154,1326.150199580154,0.9996352370282832,0.001832252304050436
1326.157144128019,1326.157144128019,0.9987372974374346,0.001833011372353603
1326.164088675884,1326.164088675884,0.9995504972530129,0.001833287074664384
1326.1710332238415,1326.1710332238415,0.9976883712131324,0.001833158269290805
1326.1779777718232,1326.1779777718232,1.0007211359094943,0.0018346807550301656
1326.1849223198274,1326.1849223198274,1.0011399213193783,0.001834295141585101
1326.1918668678782,1326.1918668678782,1.0008967018539443,0.001835326523860558
1326.198811416,1326.198811416,1.0000000856359952,0.0018343430392162518
1326.205755964097,1326.205755964097,1.0016146070976364,0.0018346274929610603
1326.2127005122882,1326.2127005122882,0.9989104995454937,0.0018344890050073653
1326.2196450604788,1326.2196450604788,0.9996530833759225,0.0018344809132394765
1326.226589608716,1326.226589608716,1.0000584758818438,0.0018350112233657613
1326.2335341570001,1326.2335341570001,0.9998583055345831,0.0018346715975022811
1326.2404787052835,1326.2404787052835,1.0003623069565213,0.0018352295646363794
1326.247423253638,1326.247423253638,0.9999525719518217,0.001836107829338312
1326.2543678019679,1326.2543678019679,1.000501304735235,0.0018376046439353682
1326.2613123504154,1326.2613123504154,1.0004021637529152,0.0018380273124465126
1326.268256898862,1326.268256898862,0.9987566853242409,0.0018376979376622023
1326.2752014473087,1326.2752014473087,1.0004642824517023,0.0018376067916837217
1326.282145995756,1326.282145995756,1.0029346870755473,0.0018390280237168522
1326.2890905443192,1326.2890905443192,0.999974654078537,0.001838974203625774
1326.2960350928593,1326.2960350928593,0.9980917984617623,0.0018401432892965832
1326.3029796414455,1326.3029796414455,0.9976930015199562,0.0018404068944079682
1326.3099241900557,1326.3099241900557,1.0008694357395094,0.0018418065473801797
1326.316868738689,1326.316868738689,0.9995442754283754,0.001842637726466628
1326.3238132873682,1326.3238132873682,1.0028226753164735,0.0018446916599926685
1326.330757836072,1326.330757836072,0.9988380340307824,0.0018447248209072366
1326.3377023848213,1326.3377023848213,1.0000018252516736,0.001846281071147287
1326.34520249747,1326.34520249747,0.9989553412611896,0.0018479215801869015
1326.354369301862,1326.354369301862,0.9988314705369087,0.0018492319272951194
1326.3613138506814,1326.3613138506814,1.0011445585433434,0.0018516627163438916
1326.3682583995244,1326.3682583995244,1.0014053550512354,0.0018530674794590494
1326.37520294839,1326.37520294839,0.9963834441667478,0.0018533655354666632
1326.3821474972797,1326.3821474972797,1.0021205062426728,0.001855926810493159
1326.3890920462154,1326.3890920462154,1.0011616066198468,0.0018578228439722147
1326.3960365951746,1326.3960365951746,1.000305085406032,0.0018592776054000449
1326.40298114411,1326.40298114411,0.9980871952454222,0.0018596025070615452
1326.4099256931163,1326.4099256931163,1.0006468373687256,0.0018617619883062784
1326.4168702421453,1326.4168702421453,1.0000764655703442,0.0018636090461060257
1326.423814791174,1326.423814791174,1.0007251868335756,0.0018649859251309658
1326.4307593402496,1326.4307593402496,0.9998942613366338,0.001865828236405028
1326.4377038893483,1326.4377038893483,0.99830493468163,0.0018673834208849174
1326.4446484384705,1326.4446484384705,1.00047753614938,0.0018688202497160686
1326.4515929875927,1326.4515929875927,0.9997512258390728,0.0018699877580440588
1326.458537536738,1326.458537536738,1.001466795101089,0.001872156976856322
1326.4654820859064,1326.4654820859064,0.9996060228879913,0.0018726897593490314
1326.4724266351218,1326.4724266351218,1.0011847404706462,0.001874785371876797
1326.4793711843374,1326.4793711843374,0.9960794130115387,0.0018745810482634982
1326.4863157335756,1326.4863157335756,1.0029133173557692,0.001877026317688436
1326.4932602828378,1326.4932602828378,1.000830657067207,0.0018778131287739974
1326.5002048321226,1326.5002048321226,0.9978981012198387,0.0018778467501365018
1326.5071493814078,1326.5071493814078,0.9996542561662126,0.001879856730673378
1326.5140939307394,1326.5140939307394,1.001147867408738,0.0018828005121131707
1326.5210384800944,1326.5210384800944,0.9996404708887775,0.001884300976344335
1326.5279830294494,1326.5279830294494,0.9984455819849598,0.0018862899651123448
1326.5349275788274,1326.5349275788274,1.0030522469807888,0.00188953789715086
1326.541872128229,1326.541872128229,1.0029566505164191,0.0018911087201224142
1326.5488166776306,1326.5488166776306,0.998198258578922,0.0018927396500150527
1326.5557612270786,1326.5557612270786,0.9985250657603499,0.001893916688305916
1326.5627057765032,1326.5627057765032,0.9989504556582958,0.0018945768758856442
1326.5696503259746,1326.5696503259746,0.9978517469966792,0.0018950995682231724
1326.5765948754697,1326.5765948754697,0.9991374943866603,0.0018968244970501372
1326.5835394249873,1326.5835394249873,1.0005941838102412,0.0018974237660669816
1326.5904839745056,1326.5904839745056,0.9989592375250804,0.0018980516882085557
1326.5974285240231,1326.5974285240231,1.0030414959010259,0.001899905094175126
1326.6043730736112,1326.6043730736112,1.0035480231441944,0.0019017351608998357
1326.611317623129,1326.611317623129,1.0007446699593678,0.0019013555836252319
1326.6182621727166,1326.6182621727166,0.998938534354485,0.0019014749787144639
1326.625206722328,1326.625206722328,0.9960921594532642,0.0019008691831390121
1326.6321512719387,1326.6321512719387,0.9984464578023602,0.0019018240446210244
1326.63909582155,1326.63909582155,0.9993772207731183,0.0019018844441626916
1326.6460403712774,1326.6460403712774,0.9995592056094031,0.0019034684779178925
1326.6529849208885,1326.6529849208885,1.0003173008296466,0.0019033529756048826
1326.6599294705927,1326.6599294705927,1.0008260946961556,0.0019037256744644207
1326.6668740202736,1326.6668740202736,1.001071148656791,0.0019029414221229135
1326.673818569978,1326.673818569978,1.0011004026038506,0.0019026212087006208
1326.6807631197055,1326.6807631197055,1.0005039529609148,0.0019009386905941097
1326.6888187973939,1326.6888187973939,0.9983468264365396,0.001899390367807311
1326.6960411291288,1326.6960411291288,0.999323007579709,0.001898177714387867
1326.7029856788797,1326.7029856788797,0.9963604427030914,0.0018975797831828126
1326.710485792646,1326.710485792646,1.0020986415084763,0.0018975148701997739
1326.71826368842,1326.71826368842,0.9993211524269052,0.0018966782647664416
1326.7252082382172,1326.7252082382172,0.9998609027989962,0.0018956366120553743
1326.7321527880379,1326.7321527880379,0.9991931090573963,0.0018953383326116384
1326.7390973378588,1326.7390973378588,1.0031500009730379,0.0018958450073001429
1326.7460418877022,1326.7460418877022,0.9983110845656714,0.00189478788387101
1326.7529864375695,1326.7529864375695,1.0011681821255969,0.0018942516086801677
1326.7599309874367,1326.7599309874367,0.999904145829875,0.0018940458347913459
1326.766875537327,1326.766875537327,0.9987830640683096,0.0018942035238184254
1326.773820087171,1326.773820087171,1.0016219679924443,0.0018938954033056964
1326.7807646370848,1326.7807646370848,1.0003885244800135,0.0018941888307145531
1326.7877091870218,1326.7877091870218,0.9986220156606149,0.0018938536005860009
1326.7946537369355,1326.7946537369355,0.9969608675425187,0.0018939728842864052
1326.8015982868728,1326.8015982868728,0.9991625001850858,0.001894504400198032
1326.8085428368097,1326.8085428368097,0.9989021920866332,0.001894806267552391
1326.8154873867695,1326.8154873867695,1.0038058816172999,0.0018965504430028177
1326.8224319367534,1326.8224319367534,1.002286049551839,0.0018976950817740546
1326.8293764867135,1326.8293764867135,0.9998156755082623,0.0018970395408346359
1326.8363210367208,1326.8363210367208,1.0001494171375238,0.0018970450655884541
1326.8432655867043,1326.8432655867043,0.99765649357273,0.0018967390987341623
1326.850210136711,1326.850210136711,1.0039346021883422,0.0018983381220292923
1326.8571546867179,1326.8571546867179,0.9991582821575424,0.0018974664725506097
1326.8640992367484,1326.8640992367484,0.9983217977347975,0.001896453430456077
1326.8710437867787,1326.8710437867787,0.9984976426123232,0.001896658500301858
1326.8779883368315,1326.8779883368315,0.9997012484671457,0.001895370280014604
1326.8849328868855,1326.8849328868855,0.9986997732333173,0.0018934281592072086
1326.8918774369617,1326.8918774369617,1.0019818442047213,0.0018926296918776748
1326.8988219870155,1326.8988219870155,0.9989999515858511,0.0018891732412758707
1326.9057665370922,1326.9057665370922,0.9996854767748342,0.0018875414590544897
1326.9127110871923,1326.9127110871923,1.0010364809843475,0.0018850188352167584
1326.9196556372922,1326.9196556372922,1.0017240997778987,0.001882719954157327
1326.9266001873923,1326.9266001873923,1.0001105968390511,0.0018787339561070816
1326.9335447375156,1326.9335447375156,0.9986658794150008,0.001875615050354118
1326.940489287615,1326.940489287615,1.0025242168485178,0.0018737266499828493
1326.9474338377854,1326.9474338377854,0.99941356243773,0.001870980298071629
1326.954378387862,1326.954378387862,0.9973208478803063,0.0018678886143709019
1326.9613229380552,1326.9613229380552,0.9986826223397502,0.0018663783445945052
1326.968267488202,1326.968267488202,1.0003256473910511,0.0018632700611575636
1326.9752120383248,1326.9752120383248,1.0015759710987466,0.001861831835206237
1326.9821565885184,1326.9821565885184,1.0007170864918153,0.0018599523862578404
1326.9891011387112,1326.9891011387112,0.9988052574873031,0.001858280110869761
1326.9960456889048,1326.9960456889048,1.0015737077839706,0.0018581640298430731
1327.0029902390975,1327.0029902390975,0.9979788162421469,0.0018570093757232186
1327.0099347892908,1327.0099347892908,0.9986903335130183,0.001856105639531203
1327.016879339484,1327.016879339484,0.9991495772745218,0.001855123844199173
1327.023823889677,1327.023823889677,1.0019115846959006,0.0018568083481959909
1327.0307684398704,1327.0307684398704,1.0003648452963887,0.0018568548256327894
1327.0377129900862,1327.0377129900862,0.9983252126371702,0.0018568704542722848
1327.044657540373,1327.044657540373,0.9996189128312934,0.001856951207222808
1327.051602090566,1327.051602090566,1.0005585286703818,0.0018589179365107473
1327.0593799868525,1327.0593799868525,0.9993658548567719,0.0018592331874396964
1327.0668801011075,1327.0668801011075,1.0010771652696513,0.0018606584483943256
1327.0738246513706,1327.0738246513706,1.0003049745079386,0.0018609706745407895
1327.08076920161,1327.08076920161,1.0000211695862689,0.0018612887858748186
