time,time,flux,flux_err
1354.11690741795,1354.11690741795,1.0000034238821194,0.0004214147133104431
1354.1257038418535,1354.1257038418535,0.9998546720206819,0.00042142964637106265
1354.133342841466,1354.133342841466,1.0012569500472697,0.000384720578432235
1354.1402873865131,1354.1402873865131,0.995019517159856,0.0003847277577906145
1354.1472319315606,1354.1472319315606,1.0006584727103922,0.0003848017375373225
1354.1541764765614,1354.1541764765614,1.0003455802011094,0.0003848090777114563
1354.1611210215156,1354.1611210215156,0.9980855413487845,0.00038479648726925096
1354.1680655664234,1354.1680655664234,1.0025125318715726,0.0003848161610691144
1354.175010111284,1354.175010111284,0.9979857805734123,0.00038480965480356614
1354.1819546561455,1354.1819546561455,0.9963199912669143,0.0003847165661348896
1354.1888992009597,1354.1888992009597,1.0007354812523805,0.0003847651485533131
1354.1958437457276,1354.1958437457276,0.9962577922070601,0.0003847124367745525
1354.202788290449,1354.202788290449,0.9993672984472475,0.0003846803561007318
1354.209732835124,1354.209732835124,1.0014524083065486,0.00038460273585943675
1354.2166773797985,1354.2166773797985,1.000489065696777,0.00038451468634987485
1354.2236219243805,1354.2236219243805,1.0015353577703432,0.00038442075418337223
1354.2305664690084,1354.2305664690084,1.0001105185609085,0.00038428763453095813
1354.2375110134974,1354.2375110134974,0.9987800094605038,0.0003842186469086863
1354.244455558032,1354.244455558032,0.9995819851190231,0.00038404463440249977
1354.2514001024742,1354.2514001024742,0.9994406946793639,0.0003840251679628641
1354.258344646916,1354.258344646916,0.9997545878113596,0.00038400511248308375
1354.265289191265,1354.265289191265,1.001198639836392,0.0003840592466191405
1354.2722337356136,1354.2722337356136,1.0004933250887358,0.0003841292233960437
1354.2791782799163,1354.2791782799163,0.9997046040312061,0.0003841517369242846
1354.2861228241716,1354.2861228241716,1.0017273417329466,0.0003841126099500555
1354.2930673683811,1354.2930673683811,0.9992867096233586,0.0003840691731077697
1354.3000119125434,1354.3000119125434,0.9975163533490973,0.0003840376651498092
1354.3069564567525,1354.3069564567525,0.9995616699634304,0.0003840971548026936
1354.3139010008222,1354.3139010008222,0.9990287868408265,0.0003841507214851751
1354.320845544845,1354.320845544845,0.999219234496666,0.00038418856295636034
1354.3277900888675,1354.3277900888675,0.9993037672365397,0.00038418620008204193
1354.3347346328906,1354.3347346328906,1.0012691237955802,0.0003842287492708726
1354.3416791767736,1354.3416791767736,1.0013481764749232,0.00038414520796786435
1354.348623720704,1354.348623720704,1.0000976998930178,0.0003841867517750064
1354.3555682644935,1354.3555682644935,0.9991850749061243,0.0003842069826810194
1354.3625128083302,1354.3625128083302,0.9993969195677515,0.000384246546736287
1354.3694573520738,1354.3694573520738,1.0007942787005966,0.0003841962241664154
1354.3764018957704,1354.3764018957704,0.9977558240233357,0.00038416908459049456
1354.3833464395143,1354.3833464395143,0.9996824972183858,0.00038418524400656733
1354.3902909831181,1354.3902909831181,1.0006106628433729,0.00038425866550389825
1354.3972355266749,1354.3972355266749,1.0008098336786293,0.00038437800713766264
1354.4041800702323,1354.4041800702323,0.9985322883513732,0.00038438214626208876
1354.4111246136965,1354.4111246136965,0.9955347499356009,0.00038433031686807594
1354.4180691571605,1354.4180691571605,1.0009047154289958,0.0003843172597472818
1354.4250137005783,1354.4250137005783,1.0002293722595774,0.0003842631219009834
1354.4319582439953,1354.4319582439953,1.0014677155050073,0.0003842927489987763
1354.4389027873199,1354.4389027873199,0.9985090111822394,0.0003842566134508955
1354.4458473305976,1354.4458473305976,1.0010005355901255,0.00038422168164002694
1354.452791873829,1354.452791873829,0.9986013346028463,0.00038415943658603655
1354.4597364170604,1354.4597364170604,0.9974921383746149,0.0003841396926948682
1354.4666809601981,1354.4666809601981,1.0009597814876314,0.0003841089614671408
1354.4736255032897,1354.4736255032897,1.0004379054967103,0.0003840333698172335
1354.4805700463817,1354.4805700463817,1.000267623895225,0.0003840433181747511
1354.4875145893798,1354.4875145893798,0.9990959702069914,0.00038401105663735346
1354.4944591323783,1354.4944591323783,1.00110531464745,0.00038405095952670834
1354.501403675237,1354.501403675237,0.9997328205403433,0.0003840716075863389
1354.5083482180958,1354.5083482180958,1.0003591140605608,0.00038407228216978044
1354.5152927609547,1354.5152927609547,0.9990620158128515,0.0003841201230938277
1354.5222373038132,1354.5222373038132,0.9995172411590705,0.00038422866153440817
1354.5291818465787,1354.5291818465787,1.0031051798485375,0.00038427949553545844
1354.536126389298,1354.536126389298,0.9980934159429795,0.00038424268950253094
1354.5430709319237,1354.5430709319237,0.9992524876966655,0.0003842266290232118
1354.5500154745962,1354.5500154745962,1.0003228292881352,0.000384274624564145
1354.5569600171293,1354.5569600171293,0.9995641569193008,0.00038427075607149657
1354.5639045596613,1354.5639045596613,0.9989729732395893,0.0003842346235063029
1354.5708491021014,1354.5708491021014,1.0004102130158434,0.00038419173398798626
1354.5777936445872,1354.5777936445872,0.9992108769065506,0.0003840901257769238
1354.5847381869805,1354.5847381869805,1.0012185633967672,0.00038422711301468946
1354.5916827293272,1354.5916827293272,1.000511300041126,0.0003841745088751725
1354.5986272715804,1354.5986272715804,1.0004361958079668,0.00038413780398421785
1354.6055718138803,1354.6055718138803,1.0004018634356473,0.0003840055183899831
1354.6125163560405,1354.6125163560405,0.9990866078262031,0.0003839739869240497
1354.6194608982005,1354.6194608982005,1.0006675569570156,0.0003839326298059778
1354.6264054403143,1354.6264054403143,0.9998842384591056,0.0003839322827981904
1354.6333499824282,1354.6333499824282,0.9988792812894977,0.0003839402653642539
1354.640294524402,1354.640294524402,1.0009125444969904,0.00038400525517486093
1354.6472390663762,1354.6472390663762,0.9977413146259737,0.00038403910322288497
1354.65418360835,1354.65418360835,1.0016599146353746,0.00038412696274821604
1354.661128150231,1354.661128150231,1.0018489173428473,0.0003841379483679614
1354.6680726919724,1354.6680726919724,0.9997863759307408,0.00038419005745161694
1354.6750172338993,1354.6750172338993,0.9994875325682067,0.00038418441712411214
1354.6819617755943,1354.6819617755943,0.9993135514959173,0.00038418941065200996
1354.6889063172887,1354.6889063172887,1.0004667069753133,0.00038426340851322935
1354.6958508589828,1354.6958508589828,0.9996599890688241,0.0003842792180931365
1354.7027954004916,1354.7027954004916,0.9983606900198143,0.0003843668254320383
1354.7097399420932,1354.7097399420932,1.000274788152996,0.00038445492712040595
1354.7166844836013,1354.7166844836013,1.0001665776204254,0.0003844510723087643
1354.7236290250632,1354.7236290250632,1.0023606061491646,0.0003845522734345314
1354.7305735664315,1354.7305735664315,0.9999707920350266,0.0003844247110792857
1354.737518107847,1354.737518107847,0.9996663510218431,0.00038434938848992385
1354.7444626491224,1354.7444626491224,0.9972533760817542,0.0003843001647670965
1354.7514071904443,1354.7514071904443,1.000726306442838,0.0003843463147594509
1354.7583517316732,1354.7583517316732,0.9989694802791304,0.00038432925991232667
1354.7652962728555,1354.7652962728555,1.001780489830141,0.00038438184440849754
1354.7722408139448,1354.7722408139448,1.000630139132088,0.0003843222472223518
1354.7791853550807,1354.7791853550807,0.9997886255830544,0.0003842868739931729
1354.786129896123,1354.786129896123,1.0007095573929266,0.0003843155015634988
1354.7930744371192,1354.7930744371192,1.0005423604490276,0.0003843224640630088
1354.8000189780223,1354.8000189780223,0.998491649264593,0.000384272377240526
1354.8069635189718,1354.8069635189718,0.9978953481195324,0.00038423266717750755
1354.8139080597816,1354.8139080597816,0.9998370706434059,0.0003841820966786774
1354.8208526005915,1354.8208526005915,1.0011642921153832,0.00038432065418347416
1354.8277971413547,1354.8277971413547,0.9989290451029109,0.0003843572240440334
1354.8347416820714,1354.8347416820714,0.9993519876367369,0.00038437908599577676
1354.841686222695,1354.841686222695,1.0022069285446085,0.0003844362112976395
1354.8486307633652,1354.8486307633652,0.9990286966565449,0.00038444081697413445
1354.8555753039884,1354.8555753039884,0.9992207313080359,0.00038449315974367545
1354.862519844519,1354.862519844519,1.002005833494367,0.0003844694116757402
1354.8694643848635,1354.8694643848635,0.9994533433538896,0.0003844604102705068
1354.876408925347,1354.876408925347,1.0008587077138582,0.00038452037254390367
1354.8833534656912,1354.8833534656912,0.9982500894300419,0.00038452071171279673
1354.8902980060352,1354.8902980060352,0.9984947557378193,0.0003844240695380724
1354.897242546333,1354.897242546333,1.0002341075628347,0.00038446631926186686
1354.9041870865844,1354.9041870865844,0.9994464950745934,0.0003844948291823084
1354.911131626742,1354.911131626742,1.0019063975546687,0.00038451319668664696
1354.9180761668997,1354.9180761668997,0.9997906752052866,0.00038450043479557804
1354.9250207070113,1354.9250207070113,1.0016117448183752,0.0003845873236744614
1354.9319652470294,1354.9319652470294,1.000292976203982,0.0003845916484304667
1354.940298695014,1354.940298695014,0.999822038443481,0.0003845330052861476
1354.9472432349858,1354.9472432349858,0.9984603946784999,0.00038453060935803236
1354.954187774864,1354.954187774864,1.0003415330495469,0.0003845791979464741
1354.961132314696,1354.961132314696,0.9985385604698965,0.0003845988838903467
1354.9680768545284,1354.9680768545284,0.998714142563043,0.00038459126710099745
1354.9750213942666,1354.9750213942666,1.0019195418500095,0.00038480616346618873
1354.9819659339594,1354.9819659339594,0.9999588762257721,0.00038473745584952665
1354.9889104736515,1354.9889104736515,0.9997099249043091,0.00038473951317910245
1354.99585501325,1354.99585501325,1.0010226301142693,0.0003847711016791751
1355.0027995527564,1355.0027995527564,1.0005941250361663,0.00038476344965509114
1355.0097440923553,1355.0097440923553,1.0000133497457164,0.00038467530314937844
1355.0166886317218,1355.0166886317218,0.9993557748457839,0.0003847086664771327
1355.023633171088,1355.023633171088,0.9991182192544216,0.00038458710423510073
1355.0305777104543,1355.0305777104543,0.9998000605665934,0.0003845858602731239
1355.037522249821,1355.037522249821,0.9997590098788279,0.00038453487475779036
1355.0444667891868,1355.0444667891868,1.0005262476072594,0.0003845544160862752
1355.051411328367,1355.051411328367,0.9996704466240713,0.00038445772237009657
1355.0583558675469,1355.0583558675469,0.9997902267607863,0.00038450577126047925
1355.0653004066803,1355.0653004066803,1.0002669916011468,0.0003844483580228308
1355.0722449457674,1355.0722449457674,1.0016562464344225,0.00038448728822272773
1355.0791894848076,1355.0791894848076,1.000917932923527,0.00038447656103571335
1355.0861340238012,1355.0861340238012,0.9996419875981427,0.00038446808076761103
1355.0930785627484,1355.0930785627484,1.0001236206031154,0.00038449844640267333
1355.1000231016028,1355.1000231016028,0.9994924520079923,0.00038454551739396396
1355.106967640503,1355.106967640503,1.0000611187346329,0.00038466086799167267
1355.1139121793108,1355.1139121793108,0.9982850795640404,0.0003845579393922158
1355.120856718025,1355.120856718025,1.0002259078379376,0.00038466087147718934
1355.1278012567393,1355.1278012567393,0.9991967373523778,0.00038459260879559006
1355.1347457953607,1355.1347457953607,0.9998451461011507,0.00038466057457522235
1355.141690333935,1355.141690333935,1.0010139162655112,0.0003847204527738126
1355.1486348725568,1355.1486348725568,1.0006287985948403,0.00038469772392393055
1355.155579411038,1355.155579411038,0.9992138399266984,0.0003846109272760367
1355.1625239495193,1355.1625239495193,1.0008761864500813,0.00038464362477367295
1355.1694684879546,1355.1694684879546,1.0002322664818708,0.0003846186385490876
1355.1764130262964,1355.1764130262964,0.9998180411477062,0.0003846404437212455
1355.1833575646383,1355.1833575646383,1.0004365640996973,0.0003846506083595921
1355.1903021028406,1355.1903021028406,1.000108557431029,0.000384628979929861
1355.1972466410423,1355.1972466410423,0.9990174521248434,0.00038459411078382996
1355.2041911792446,1355.2041911792446,0.9988001043740811,0.0003846032920477581
1355.2111357174467,1355.2111357174467,1.0017413535231963,0.00038463368700263946
1355.2180802554626,1355.2180802554626,1.0000118860553413,0.0003846530296462205
1355.225024793525,1355.225024793525,0.998348975726258,0.0003845996481179711
1355.2319693314944,1355.2319693314944,1.00002577199249,0.0003846692579696147
1355.2389138694639,1355.2389138694639,1.0005127914883993,0.0003846532175905376
1355.245858407386,1355.245858407386,1.0023935052257174,0.00038467650863860164
1355.2528029451692,1355.2528029451692,1.000298155567855,0.00038469215601642624
1355.2597474829993,1355.2597474829993,0.9989899097633268,0.00038462224637930334
1355.2666920207353,1355.2666920207353,0.9995693117894244,0.0003846128338108015
1355.2736365584253,1355.2736365584253,0.9999762627226284,0.00038460326552247094
1355.2805810960222,1355.2805810960222,0.998102817034553,0.0003845562725230314
1355.2875256336652,1355.2875256336652,1.0005796974488999,0.0003845466923221071
1355.2944701712622,1355.2944701712622,0.9993092751643688,0.00038456123915355374
1355.3014147087658,1355.3014147087658,1.0002557865662323,0.0003845639542212299
1355.308359246223,1355.308359246223,0.9999170436672491,0.00038455505343596786
1355.3153037836337,1355.3153037836337,1.0013176727785924,0.0003846697399488264
1355.3222483209508,1355.3222483209508,1.0013199663604735,0.0003846448502407597
1355.3291928583146,1355.3291928583146,1.0006945734679198,0.00038460229142373335
1355.3369707400302,1355.3369707400302,0.9997267092675675,0.00038465733362707903
1355.3444708402174,1355.3444708402174,0.9995450726497719,0.00038470595782899445
1355.3514153774418,1355.3514153774418,0.9977152469791453,0.0003846918101049433
1355.3583599145265,1355.3583599145265,0.9997158938400672,0.0003847845235661022
1355.3653044515643,1355.3653044515643,1.0014954411468666,0.0003848465441173233
1355.372248988602,1355.372248988602,0.9986551141599204,0.0003848166689182823
1355.3791935256402,1355.3791935256402,1.0006510050197803,0.0003847746445910014
1355.3861380624453,1355.3861380624453,1.000870611746553,0.00038483962618523273
1355.3930825993903,1355.3930825993903,1.0001138917291261,0.0003848722506852971
1355.4011382621215,1355.4011382621215,0.99805300594648,0.0003848240513456784
1355.4083605803612,1355.4083605803612,1.001759396168838,0.00038488328192610316
1355.4153051170736,1355.4153051170736,0.999449289619386,0.0003848807972834143
1355.422249653739,1355.422249653739,0.9999550265954978,0.00038492133546628386
1355.429194190358,1355.429194190358,1.0006929339206005,0.00038504575718406744
1355.4361387269769,1355.4361387269769,1.0025591674764995,0.00038513318618919136
1355.4430832635492,1355.4430832635492,0.9977996220398136,0.0003851845501401539
1355.4500277999816,1355.4500277999816,0.9978827350237973,0.0003853223716043967
1355.456972336461,1355.456972336461,1.0012455308545323,0.0003853033903338541
1355.463916872847,1355.463916872847,1.001468609598232,0.00038530190436223994
1355.4708614091865,1355.4708614091865,0.9981495425687588,0.00038511495963879826
1355.477805945433,1355.477805945433,1.000011076110602,0.0003850790453439226
1355.4847504817258,1355.4847504817258,0.999712403127974,0.00038496921838717453
1355.4916950179256,1355.4916950179256,0.9977890224067331,0.0003848988439545804
1355.4986395540789,1355.4986395540789,1.0000412155727674,0.00038480867795099167
1355.5055840901853,1355.5055840901853,1.0011459145676818,0.00038472112752715385
1355.5125286262921,1355.5125286262921,1.0022781231962994,0.00038466601703261044
1355.5194731622591,1355.5194731622591,1.0010584137630265,0.0003846222158888982
1355.5264176982723,1355.5264176982723,1.0009994978134615,0.00038460421414945965
1355.5333622341461,1355.5333622341461,0.9994101802288131,0.0003845108850700205
1355.5403067700204,1355.5403067700204,0.9992226759458231,0.00038450862508750757
1355.547251305894,1355.547251305894,0.9986918367934716,0.00038444099798770896
1355.5541958416281,1355.5541958416281,0.9996993212533747,0.00038453418198510083
1355.5611403773623,1355.5611403773623,0.9995709529038027,0.0003846846675871509
1355.56808491305,1355.56808491305,1.000901380459911,0.000384805763159615
1355.5750294486445,1355.5750294486445,0.9994214739966031,0.0003847672327194977
1355.5819739842386,1355.5819739842386,1.0010473032536997,0.0003848179811614315
1355.5889185198332,1355.5889185198332,0.9997035556832288,0.00038482879859809806
1355.5958630552882,1355.5958630552882,1.0000834342876739,0.00038486115261726546
1355.6028075907425,1355.6028075907425,1.0008783334607751,0.0003849584859231667
1355.6097521261509,1355.6097521261509,0.9983378263502061,0.00038494050202660015
1355.616696661466,1355.616696661466,0.9996408829847747,0.0003849161809069718
1355.623641196827,1355.623641196827,1.0019560579077673,0.0003849401558497811
1355.6305857320028,1355.6305857320028,0.9968971190078404,0.00038483559757676534
1355.6375302672714,1355.6375302672714,0.999175785481283,0.0003848252275596493
1355.6444748023998,1355.6444748023998,0.9967193980143472,0.0003847455314461056
1355.6514193375288,1355.6514193375288,0.9989849780470632,0.0003847019989874527
1355.6583638725647,1355.6583638725647,1.0011138182466772,0.00038476560056090355
1355.6653084076,1355.6653084076,1.0008035919539764,0.00038470158881853884
1355.6722529425892,1355.6722529425892,1.0015797699427187,0.00038475112740281737
1355.679197477485,1355.679197477485,1.0019875243791168,0.00038475457095917806
1355.6861420124278,1355.6861420124278,0.9996551183455098,0.00038485506867245013
1355.6930865471372,1355.6930865471372,1.001094571536473,0.0003848583524296118
1355.7000310820797,1355.7000310820797,1.0000553410553858,0.0003848479270784133
1355.7069756167896,1355.7069756167896,0.9978246880491495,0.0003847545619297455
1355.7139201514992,1355.7139201514992,0.9982692785912567,0.0003849265578015164
1355.7208646859758,1355.7208646859758,0.9993325607145651,0.0003850217680491224
1355.727809220686,1355.727809220686,1.0003793172909141,0.00038505161682531464
1355.7347537551625,1355.7347537551625,1.0012330080716871,0.000385166878574187
1355.7416982896862,1355.7416982896862,1.0005699680401219,0.0003851642159954564
1355.7500317310116,1355.7500317310116,0.9992245148333471,0.0003851064534332533
1355.756976265442,1355.756976265442,1.001090224912618,0.0003851354645695654
1355.7639207997793,1355.7639207997793,1.0000643270024694,0.00038510963751775394
1355.7708653340699,1355.7708653340699,0.9991831034290619,0.00038508355393283025
1355.7778098683134,1355.7778098683134,0.9996479390974533,0.0003850401305599916
1355.7847544025576,1355.7847544025576,1.0023749573401293,0.00038515781668386584
1355.7916989367086,1355.7916989367086,0.9988087133749003,0.0003851413456106341
1355.7986434708132,1355.7986434708132,0.9989410904924385,0.0003851165868622093
1355.8055880048705,1355.8055880048705,0.9989943360259346,0.00038509298430093044
1355.8125325388817,1355.8125325388817,1.0002231688834544,0.00038514450938332884
1355.8194770728935,1355.8194770728935,1.0000253790915798,0.00038518455282518613
1355.8264216067646,1355.8264216067646,1.0009154120017782,0.00038518351090316574
1355.8333661406825,1355.8333661406825,1.0009567370893186,0.00038525321242540323
1355.8403106744613,1355.8403106744613,0.9992954555667234,0.0003852131586974508
1355.8472552082858,1355.8472552082858,1.0006578465801081,0.00038521902907344494
1355.8541997419713,1355.8541997419713,1.0006556635922725,0.00038525459563675327
1355.861144275703,1355.861144275703,0.9997636094144511,0.0003851684355821981
1355.8680888092485,1355.8680888092485,0.9982257530866377,0.00038518526550624776
1355.875033343027,1355.875033343027,0.9992739435305518,0.0003851396837564121
