time,time,flux,flux_err
1325.298521821579,1325.298521821579,1.00020871038425,0.0017499436823293114
1325.3068551725742,1325.3068551725742,0.9997175334821892,0.001755011539143716
1325.3151885238512,1325.3151885238512,0.9996099235426513,0.001757360367451095
1325.3235218754285,1325.3235218754285,1.0001499636968167,0.0017606655801116126
1325.3311607813055,1325.3311607813055,0.9988709257405624,0.001608334506588964
1325.3381052413815,1325.3381052413815,0.9999621493351454,0.0016121358850286912
1325.345049701679,1325.345049701679,1.0025306458914893,0.0016152024285869572
1325.351994162174,1325.351994162174,0.9999301487868747,0.0016170850831051663
1325.358938622832,1325.358938622832,1.0018963699356331,0.001620409001806945
1325.3658830837117,1325.3658830837117,0.9977859119586914,0.0016223597131756722
1325.3728275447652,1325.3728275447652,0.9984177607703885,0.0016256334310023718
1325.379772005994,1325.379772005994,0.9977597899644293,0.001627361100015432
1325.3867164674205,1325.3867164674205,1.000373969377596,0.0016311511151377886
1325.3936609290445,1325.3936609290445,1.0028469472966575,0.0016338963005496168
1325.4006053908204,1325.4006053908204,0.997933123725429,0.001635464064794128
1325.4075498527823,1325.4075498527823,1.002031728463836,0.0016381992407454194
1325.4144943149306,1325.4144943149306,1.0036603576560181,0.0016423495171940243
1325.4214387772531,1325.4214387772531,0.9999429540175522,0.0016422853670345465
1325.428383239739,1325.428383239739,0.9997010424226438,0.0016444785833720943
1325.435327702423,1325.435327702423,1.0004362095123684,0.001647081128871226
1325.442272165258,1325.442272165258,0.9993921440215792,0.0016487384898975562
1325.4492166282675,1325.4492166282675,0.9977464946021743,0.0016507258338969793
1325.4561610914286,1325.4561610914286,1.0002173183445389,0.0016534298198417
1325.4631055547525,1325.4631055547525,1.0011714907806262,0.0016555619661765095
1325.4700500182512,1325.4700500182512,0.9985737578417002,0.0016570505309785205
1325.4769944818895,1325.4769944818895,1.0015733154578874,0.0016603605491703015
1325.4839389457143,1325.4839389457143,0.9992365913733579,0.0016618778300245916
1325.4908834096786,1325.4908834096786,0.998617017124803,0.001663831211720409
1325.4978278738058,1325.4978278738058,0.9991981200409847,0.0016669830946395888
1325.5047723380728,1325.5047723380728,1.002498322617338,0.001670527756151514
1325.5117168025029,1325.5117168025029,1.000521915772587,0.00167225012556823
1325.518661267084,1325.518661267084,1.0000828868897578,0.0016747017067139484
1325.5256057318165,1325.5256057318165,1.0015265879307846,0.001677978438575001
1325.5325501966888,1325.5325501966888,0.9986785662318312,0.001680460229082395
1325.5394946617125,1325.5394946617125,0.9998606480781298,0.001682998500145998
1325.5464391268763,1325.5464391268763,0.9980217206593436,0.001684947152225897
1325.5533835921674,1325.5533835921674,1.002365288162876,0.00168941575369769
1325.560328057587,1325.560328057587,0.9974201720813051,0.0016912302348703675
1325.567272523193,1325.567272523193,0.9979809574854208,0.0016941688114868324
1325.57421698888,1325.57421698888,1.0041207967728092,0.0016975457159880834
1325.5811614547536,1325.5811614547536,1.000501196793684,0.001699678241234168
1325.5881059207197,1325.5881059207197,1.000077664946206,0.001701730614143987
1325.5950503868498,1325.5950503868498,0.9983481319001065,0.0017038361970151486
1325.601994853084,1325.601994853084,1.0002916221469178,0.0017054849863867739
1325.6089393194582,1325.6089393194582,1.0003473370561196,0.0017070176746058906
1325.6158837859602,1325.6158837859602,1.0006819971551655,0.001708964308796292
1325.622828252579,1325.622828252579,0.9993517187233388,0.001709819320053469
1325.6297727193373,1325.6297727193373,0.9985294971193142,0.0017105537563112633
1325.6367171862003,1325.6367171862003,1.0005443917169603,0.001711904809231347
1325.6436616532028,1325.6436616532028,0.9991227063623154,0.0017125461469322892
1325.6506061203104,1325.6506061203104,1.0019171152889446,0.0017134060252923778
1325.6575505875458,1325.6575505875458,1.0003790960870818,0.0017141440054655472
1325.664495054898,1325.664495054898,1.0003635887081508,0.0017152453880491711
1325.6714395223662,1325.6714395223662,1.0025204566564807,0.0017158198427246183
1325.6783839899394,1325.6783839899394,0.9984005893112295,0.0017158166338768093
1325.685328457641,1325.685328457641,0.9996948865271438,0.0017171040899839993
1325.6922729254468,1325.6922729254468,0.9997318506435746,0.001718115167997852
1325.6992173933581,1325.6992173933581,1.0019116863484518,0.0017195387601671628
1325.7061618613966,1325.7061618613966,0.9985037091748193,0.0017197572468259548
1325.713106329517,1325.713106329517,0.9993335729797366,0.001721028408995877
1325.7200507977534,1325.7200507977534,0.9988235244400394,0.0017224242595865924
1325.7269952661068,1325.7269952661068,1.0004154214075154,0.0017238998395696845
1325.733939734541,1325.733939734541,1.0001636687260285,0.0017254127415228964
1325.7408842030923,1325.7408842030923,1.0012644198659024,0.0017274057574399892
1325.747828671748,1325.747828671748,1.0019312274933114,0.0017295553083953633
1325.754773140497,1325.754773140497,0.999990054192397,0.0017310403432621337
1325.7617176093509,1325.7617176093509,1.000444909447626,0.0017334082797797246
1325.768662078321,1325.768662078321,1.002300550199681,0.0017357436346682742
1325.775606547349,1325.775606547349,0.9980631765854369,0.001736744256747725
1325.7825510164942,1325.7825510164942,0.9998356109281048,0.0017387559283198537
1325.7894954857088,1325.7894954857088,0.9993232643919047,0.001740931998751407
1325.796439955063,1325.796439955063,0.997709771214921,0.0017422616818550053
1325.803384424476,1325.803384424476,1.0010697234583126,0.001746055706942903
1325.8103288939813,1325.8103288939813,1.001140314409334,0.0017466973603483856
1325.8172733636152,1325.8172733636152,1.0001153160349099,0.0017472969457517026
1325.8242178332953,1325.8242178332953,1.0010330933356613,0.0017489312341353023
1325.8311623030688,1325.8311623030688,0.9990177584926816,0.0017492849744179316
1325.8381067729472,1325.8381067729472,1.000233824970233,0.001750257972043269
1325.8450512429067,1325.8450512429067,0.9971237972652531,0.0017492205389818155
1325.8519957129477,1325.8519957129477,1.00115965590806,0.001749942907643991
1325.858940183082,1325.858940183082,0.9987643919318646,0.0017489197391272807
1325.8658846532749,1325.8658846532749,1.0009517033276258,0.0017497064594767706
1325.8728291235718,1325.8728291235718,1.0007190309663077,0.0017475188442487234
1325.8797735939274,1325.8797735939274,1.000165047770591,0.0017462679891065026
1325.8867180643879,1325.8867180643879,0.9985561197088322,0.0017444050578409192
1325.893662534918,1325.893662534918,1.0005541914049023,0.0017439210529419235
1325.9006070055295,1325.9006070055295,0.9977381921630343,0.0017422888892402299
1325.9075514762342,1325.9075514762342,1.0002625546221473,0.0017412220893532604
1325.9144959469854,1325.9144959469854,1.001504192945472,0.0017398854747965608
1325.9214404178183,1325.9214404178183,0.9983152199637189,0.0017395727700237952
1325.9283848887212,1325.9283848887212,0.9985677558246622,0.0017385999723708058
1325.9353293597167,1325.9353293597167,0.9986195359609997,0.0017381392722785462
1325.9422738307705,1325.9422738307705,1.0014893123967175,0.001738441030147328
1325.9492183019065,1325.9492183019065,1.0003553744177025,0.001738197173791517
1325.9561627731116,1325.9561627731116,0.9998902788868307,0.0017384953976245132
1325.9642183597866,1325.9642183597866,1.005347426295669,0.0017406533243999496
1325.9714406100197,1325.9714406100197,1.0002700077635467,0.0017395785946486089
1325.9783850814342,1325.9783850814342,0.9968926286639025,0.0017387882099174762
1325.985329552919,1325.985329552919,0.9973601742475251,0.0017399129565990525
1325.9922740244967,1325.9922740244967,1.0007917862831532,0.0017413890580175464
1325.9992184961097,1325.9992184961097,1.0011749658457427,0.001743003191761499
1326.006162967804,1326.006162967804,0.9969004269804189,0.0017441636003378944
1326.013107439568,1326.013107439568,1.000788203426297,0.001747596212078192
1326.0200519113907,1326.0200519113907,1.0023134025654667,0.0017492192283091808
1326.0269963832593,1326.0269963832593,0.9992618024061762,0.0017511461974879683
1326.0339408552331,1326.0339408552331,1.001010274016117,0.001752740881123646
1326.0408853272297,1326.0408853272297,1.0023243345075319,0.0017521418899225521
1326.047829799297,1326.047829799297,0.9983519768419082,0.0017508382377901018
1326.0547742714448,1326.0547742714448,0.9972398713876831,0.0017518478706010573
1326.0617187436285,1326.0617187436285,0.9997368847709589,0.0017539994860976279
1326.0686632158697,1326.0686632158697,1.0014261812127188,0.0017554907172133596
1326.0756076881923,1326.0756076881923,0.9998116051836952,0.0017553850719278113
1326.0825521605507,1326.0825521605507,0.9989087240513188,0.001755891307946009
1326.0894966329665,1326.0894966329665,0.9988348679718602,0.0017564177128360562
1326.096441105441,1326.096441105441,1.0003411750456215,0.0017570736752079842
1326.103385577997,1326.103385577997,1.0005745656679896,0.0017575120369261207
1326.1103300505754,1326.1103300505754,0.9991356123196511,0.0017574374488705303
1326.1172745232245,1326.1172745232245,0.9989050204403368,0.001758000669921486
1326.1242189959198,1326.1242189959198,1.0005716280248143,0.0017573327568930826
1326.1311634686856,1326.1311634686856,1.0016520784826162,0.0017587454232739733
1326.1381079414853,1326.1381079414853,1.001148992808485,0.0017585997751477015
1326.1450524143324,1326.1450524143324,1.0002772647034788,0.001759343887660669
1326.151996887249,1326.151996887249,0.9996155944044398,0.0017587578389407492
1326.1589413602119,1326.1589413602119,0.9973309581927635,0.0017590827202335635
1326.1658858332105,1326.1658858332105,1.0001592007660327,0.0017605742680719208
1326.172830306278,1326.172830306278,1.0000635578209387,0.0017597421486376032
1326.1797747793812,1326.1797747793812,1.0016695656379093,0.001761414871148818
1326.1867192525422,1326.1867192525422,1.000208316289601,0.001760790417669321
1326.1936637257381,1326.1936637257381,1.0002087798327985,0.0017610177539783747
1326.2006081989925,1326.2006081989925,0.9974889633948596,0.0017609033849097862
1326.2075526722933,1326.2075526722933,1.0006414212874997,0.001761773332299331
1326.2144971456175,1326.2144971456175,0.9993627537044013,0.0017616860750320408
1326.2214416190347,1326.2214416190347,0.9988633968399856,0.0017620217741788672
1326.2283860924751,1326.2283860924751,1.0032833699473238,0.0017634507074325487
1326.2353305659387,1326.2353305659387,1.00128426043626,0.0017631658095250322
1326.242275039484,1326.242275039484,0.9990531039269503,0.0017632542208853498
1326.2492195130415,1326.2492195130415,1.002995753420332,0.0017652349937936323
1326.2561639866447,1326.2561639866447,0.9995468181235203,0.0017646151395651094
1326.2631084603065,1326.2631084603065,0.99958040817302,0.0017644434807650201
1326.270052934015,1326.270052934015,0.9992019329996588,0.0017652863985376493
1326.2769974077462,1326.2769974077462,0.9999171676856085,0.0017662578877155831
1326.2839418815245,1326.2839418815245,0.9990935034242261,0.0017665849463577806
1326.2908863553607,1326.2908863553607,1.0033299046392823,0.001769154015802189
1326.2978308292088,1326.2978308292088,0.9998953921108601,0.0017685003827777354
1326.3047753031262,1326.3047753031262,0.9992219049228004,0.001770233874971483
1326.3117197770675,1326.3117197770675,1.00012452074304,0.0017713914245607084
1326.3186642510436,1326.3186642510436,1.0022595754738641,0.0017726963680195888
1326.325608725066,1326.325608725066,0.9968484973128506,0.0017725395774260827
1326.332553199112,1326.332553199112,1.000388017298019,0.0017746468355885792
1326.339497673216,1326.339497673216,0.9991719686075683,0.0017754813698665248
1326.3475532632092,1326.3475532632092,0.9999570726814244,0.0017777163224906578
1326.3561644111867,1326.3561644111867,0.9999899466121596,0.0017791927714220657
1326.3631088853958,1326.3631088853958,1.0007283999484273,0.0017822239681958446
1326.3700533596743,1326.3700533596743,1.0017810434905137,0.0017842368020752203
1326.3769978339649,1326.3769978339649,0.9990705140790442,0.0017851173206294487
1326.38394230829,1326.38394230829,1.0018791561336298,0.0017872590043312823
1326.3908867826617,1326.3908867826617,1.0011118484824706,0.0017891679647011889
1326.3978312570457,1326.3978312570457,1.0008182436165014,0.0017904724474815086
1326.4047757314752,1326.4047757314752,1.000334103028017,0.001791689767687551
1326.4117202059526,1326.4117202059526,0.9993271440673487,0.0017930860193465896
1326.4186646804287,1326.4186646804287,0.9994045960143054,0.0017948623360338593
1326.4256091549753,1326.4256091549753,0.9987317330458854,0.0017972877705219575
1326.4325536295332,1326.4325536295332,1.0010110601767697,0.0017993709520867987
1326.4394981041264,1326.4394981041264,1.0018689125806621,0.0018013745082359786
1326.4464425787542,1326.4464425787542,0.9982816089992161,0.0018015901587099953
1326.4533870534287,1326.4533870534287,1.0028600706929207,0.001804740010213405
1326.4603315281033,1326.4603315281033,1.0002341835966828,0.0018055025044842626
1326.4672760028243,1326.4672760028243,0.9990221437521262,0.0018069731996702327
1326.47422047758,1326.47422047758,0.9988237564029566,0.0018087573204093755
1326.4811649523483,1326.4811649523483,1.0010178500672944,0.0018111559758522769
1326.488109427162,1326.488109427162,0.9989923988676661,0.0018122991480809263
1326.4950539019999,1326.4950539019999,0.9983092815199764,0.0018138237062116668
1326.5019983768718,1326.5019983768718,1.0018283706810873,0.001816729810136532
1326.508942851768,1326.508942851768,0.997276633891478,0.0018176166553186112
1326.5158873266985,1326.5158873266985,1.0018858657776863,0.0018203506135319228
1326.5228318016525,1326.5228318016525,0.9996320617191514,0.001821662745908044
1326.5297762766297,1326.5297762766297,0.9951887978424911,0.0018236583234685706
1326.5367207516415,1326.5367207516415,1.0011350490180349,0.0018271126761719113
1326.5436652266774,1326.5436652266774,1.0013748735211876,0.001829872796516673
1326.5506097017358,1326.5506097017358,1.0012492137458926,0.0018327588258181958
1326.557554176818,1326.557554176818,1.001524192533908,0.001833740252106457
1326.564498651923,1326.564498651923,0.9986612366357968,0.0018347067023184404
1326.5714431270865,1326.5714431270865,0.9996822687215129,0.0018359550435572917
1326.5783876022501,1326.5783876022501,0.9974839009965576,0.0018369532631568955
1326.5853320774365,1326.5853320774365,1.0005925256839838,0.00184046775228926
1326.5922765526586,1326.5922765526586,1.0016453232811091,0.0018418048900542573
1326.5992210279032,1326.5992210279032,1.000575140514956,0.0018429881428438342
1326.6061655031715,1326.6061655031715,0.9985908638888656,0.0018438801775267355
1326.6131099784518,1326.6131099784518,0.9990228646770634,0.0018450887390338358
1326.6200544537776,1326.6200544537776,1.000694925639964,0.0018462581276496547
1326.6269989291045,1326.6269989291045,1.000252557974386,0.0018470515987396533
1326.6339434044887,1326.6339434044887,0.9985757172045313,0.0018466658966262313
1326.6408878798854,1326.6408878798854,1.00016882228982,0.0018475202648967116
1326.6478323552817,1326.6478323552817,1.001338842389146,0.0018476704457960915
1326.6547768306896,1326.6547768306896,1.0023114152133163,0.001847568063210718
1326.6617213061559,1326.6617213061559,1.0008540217399804,0.0018460398938703777
1326.6686657816215,1326.6686657816215,0.9965998695631368,0.0018444274452175135
1326.675610257123,1326.675610257123,0.9986410000620969,0.0018434655496648376
1326.682554732647,1326.682554732647,0.9986957905582556,0.0018418897555280756
1326.6908881032973,1326.6908881032973,1.00282497139583,0.001842872088092021
1326.6978325788566,1326.6978325788566,1.0010059331945,0.0018419029580216497
1326.704777054439,1326.704777054439,0.9991928658497725,0.0018403553318995206
1326.7125548671393,1326.7125548671393,1.0003336971890646,0.00183952472252947
1326.7200549008005,1326.7200549008005,1.0018238441007112,0.0018384963992843072
1326.726999376464,1326.726999376464,0.9993444441173157,0.0018368877510660058
1326.7339438521165,1326.7339438521165,0.9977858902551139,0.001834909941216272
1326.7408883278042,1326.7408883278042,0.997516830687375,0.0018341510883377876
1326.7478328035493,1326.7478328035493,0.9999898241441828,0.0018348644046253758
1326.75477727926,1326.75477727926,1.0002799455403109,0.0018348036501156222
1326.761721755017,1326.761721755017,1.003836856357105,0.0018359701200956976
1326.768666230786,1326.768666230786,1.0018775564763334,0.0018357762198929067
1326.7756107065663,1326.7756107065663,0.9966610602478922,0.0018335425508292432
1326.7825551823819,1326.7825551823819,1.0006955499983667,0.0018353894183450493
1326.7894996581858,1326.7894996581858,0.9988264884781,0.001836094101225721
1326.7964441340475,1326.7964441340475,0.9987404536399624,0.0018365619538794492
1326.8033886098983,1326.8033886098983,0.9962297470705253,0.001837717721299208
1326.8103330857714,1326.8103330857714,1.0017722545633618,0.001839338069061765
1326.8172775616683,1326.8172775616683,0.9962192071255958,0.0018391964195528774
1326.8242220375766,1326.8242220375766,1.0000871008315262,0.001840546606369615
1326.8311665135086,1326.8311665135086,1.0011882733549302,0.001841299519317757
1326.8381109894638,1326.8381109894638,1.0014132261527318,0.0018417217978108197
1326.845055465407,1326.845055465407,0.9999893677060026,0.0018407468987768402
1326.8519999413854,1326.8519999413854,0.999147628218698,0.0018406493284491177
1326.8589444173988,1326.8589444173988,0.9985215931079529,0.0018384474978290898
1326.8658888933892,1326.8658888933892,1.0018072417793007,0.0018389006512553809
1326.8728333694257,1326.8728333694257,1.001975732341376,0.0018373769619544392
1326.879777845462,1326.879777845462,1.0011777011267966,0.0018359689364814053
1326.886722321522,1326.886722321522,0.9956270050287508,0.0018327538215242062
1326.8936667975931,1326.8936667975931,0.9989577736591464,0.0018318828767290014
1326.900611273677,1326.900611273677,1.0033739467817542,0.0018299149519014836
1326.9075557497831,1326.9075557497831,1.0015176889898316,0.0018270958931396193
1326.9145002259127,1326.9145002259127,0.9971144245895122,0.0018240542639296742
1326.9214447020308,1326.9214447020308,1.0016515504828107,0.001821294452398666
1326.9283891781722,1326.9283891781722,0.9943655932636115,0.0018171633951984845
1326.9353336543486,1326.9353336543486,1.0015939188414646,0.0018160583963056083
1326.9422781305127,1326.9422781305127,1.0009893214574985,0.0018140943583295102
1326.9492226067011,1326.9492226067011,0.9985835081745711,0.00181012886012007
1326.9561670829003,1326.9561670829003,1.0022951711644361,0.0018088410125444393
1326.9631115591121,1326.9631115591121,0.9992283275582843,0.0018059393660845098
1326.9700560353463,1326.9700560353463,1.0008849591201787,0.001804177458472499
1326.9770005115922,1326.9770005115922,0.9991878422752812,0.0018013184369569766
1326.983944987862,1326.983944987862,0.9981403321257201,0.0018001779883846797
1326.9908894641314,1326.9908894641314,1.0002034972053635,0.001799484417025982
1326.9978339404006,1326.9978339404006,1.0008849090756362,0.00179791633122144
1327.0047784166818,1327.0047784166818,0.9983586989362128,0.0017976912509202188
1327.0117228929976,1327.0117228929976,1.0020700892803256,0.0017990620800775175
1327.0186673693254,1327.0186673693254,0.9993376494709576,0.0017986950736407037
1327.025611845653,1327.025611845653,0.9977409182947209,0.0017981085853327199
1327.032556322004,1327.032556322004,1.0012354322861239,0.0017994438841202262
1327.039500798343,1327.039500798343,0.9999958771902386,0.001800216091523624
1327.0464452747174,1327.0464452747174,0.9994474467506924,0.0018001747680205966
1327.053389751103,1327.053389751103,1.0009837361882128,0.0018022664040152063
1327.0614453437156,1327.0614453437156,0.9992222933463939,0.0018031776003694915
1327.0686675991751,1327.0686675991751,1.0008922312868451,0.0018045198923899192
1327.075612075596,1327.075612075596,0.997115571751154,0.001805054717468672
1327.082556552005,1327.082556552005,1.0005849304358372,0.001805872496398182
