time,time,flux,flux_err
1517.3512415831551,1517.3512415831551,,
1517.352630481706,1517.352630481706,,
1517.3540193802573,1517.3540193802573,,
1517.3554082788073,1517.3554082788073,,
1517.3581860759073,1517.3581860759073,,
1517.3595749744586,1517.3595749744586,,
1517.360963873009,1517.360963873009,,
1517.3623527715595,1517.3623527715595,4288.5244,41.771355
1517.3637416701101,1517.3637416701101,4332.681,40.971733
1517.366519467676,1517.366519467676,4215.1196,39.76705
1517.3679083662273,1517.3679083662273,4250.5737,39.31897
1517.3692972647777,1517.3692972647777,4310.8623,38.94855
1517.3706861633277,1517.3706861633277,4302.921,38.61442
1517.3734639608956,1517.3734639608956,4273.914,38.054565
1517.3748528599112,1517.3748528599112,4300.595,37.80043
1517.3762417584617,1517.3762417584617,4333.674,37.548126
1517.377630657012,1517.377630657012,4348.0854,37.327236
1517.3790195560282,1517.3790195560282,4288.029,37.068085
1517.3804084545786,1517.3804084545786,4292.7646,36.858356
1517.3817973535947,1517.3817973535947,4266.2183,36.626595
1517.3831862521454,1517.3831862521454,4290.964,36.409718
1517.3845751511608,1517.3845751511608,4307.3047,36.199097
1517.3859640501778,1517.3859640501778,4289.92,36.00549
1517.387352948729,1517.387352948729,4269.506,35.776894
1517.3887418477443,1517.3887418477443,4385.164,35.591434
1517.39013074676,1517.39013074676,4319.0,35.382484
1517.391519645311,1517.391519645311,4272.0483,35.170624
1517.3929085443278,1517.3929085443278,4279.503,34.96796
1517.3942974433435,1517.3942974433435,4249.415,34.767124
1517.3956863423596,1517.3956863423596,4299.78,34.585827
1517.39707524091,1517.39707524091,4238.747,34.361736
1517.398464139926,1517.398464139926,4298.0425,34.18619
1517.4012419379585,1517.4012419379585,4256.7427,33.794743
1517.4026308369748,1517.4026308369748,4263.645,33.612854
1517.40401973599,1517.40401973599,4297.415,33.421146
1517.405408635007,1517.405408635007,4231.8135,33.22369
1517.406797534024,1517.406797534024,4265.993,33.042057
1517.4081864330392,1517.4081864330392,4295.3555,32.864323
1517.4095753320553,1517.4095753320553,4292.567,32.66624
1517.4109642310723,1517.4109642310723,4320.2256,32.485786
1517.4123531300884,1517.4123531300884,4275.955,32.30449
1517.413742029104,1517.413742029104,4273.565,32.102364
1517.41513092812,1517.41513092812,4293.489,31.933704
1517.4165198271362,1517.4165198271362,4268.7515,31.749178
1517.417908726618,1517.417908726618,4326.886,31.575983
1517.419297625635,1517.419297625635,4238.919,31.395714
1517.420686524651,1517.420686524651,4267.116,31.228388
1517.4220754236667,1517.4220754236667,4257.2593,31.046427
1517.4234643231475,1517.4234643231475,4290.83,30.880522
1517.4248532221645,1517.4248532221645,4295.7583,30.706656
1517.4262421211815,1517.4262421211815,4286.675,30.569815
1517.4276310206624,1517.4276310206624,4228.1064,30.383072
1517.4290199196787,1517.4290199196787,4288.448,30.24151
1517.4304088186955,1517.4304088186955,4246.754,30.075567
1517.4317977181772,1517.4317977181772,4241.159,29.908487
1517.4331866171929,1517.4331866171929,4276.918,29.769201
1517.4345755166746,1517.4345755166746,4272.194,29.605812
1517.4359644156907,1517.4359644156907,4270.568,29.464233
1517.4373533151725,1517.4373533151725,4265.9404,29.320387
1517.4387422141895,1517.4387422141895,4254.0264,29.167015
1517.4401311136712,1517.4401311136712,4280.3013,29.035492
1517.4415200126869,1517.4415200126869,4284.102,28.89629
1517.4429089121686,1517.4429089121686,4273.921,28.759188
1517.4442978116513,1517.4442978116513,4278.353,28.631916
1517.4456867106674,1517.4456867106674,4305.455,28.500313
1517.4470756101482,1517.4470756101482,4280.427,28.370148
1517.4484645096302,1517.4484645096302,4305.578,28.24485
1517.449853408647,1517.449853408647,4328.799,28.136992
1517.4512423081287,1517.4512423081287,4333.9434,28.009508
1517.4526312076107,1517.4526312076107,4344.1157,27.883236
1517.4540201070927,1517.4540201070927,4280.0264,27.769487
1517.4554090061079,1517.4554090061079,4292.6855,27.647732
1517.4567979055896,1517.4567979055896,4288.422,27.544827
1517.4581868050723,1517.4581868050723,4256.8423,27.438213
1517.459575704554,1517.459575704554,4322.179,27.330372
1517.4609646040353,1517.4609646040353,4308.9497,27.225775
1517.462353503517,1517.462353503517,4242.6157,27.112455
1517.4637424029997,1517.4637424029997,4254.248,27.004288
1517.4651313024815,1517.4651313024815,4318.0933,26.924543
1517.4665202019626,1517.4665202019626,4271.8,26.800928
1517.4679091014445,1517.4679091014445,4298.499,26.728985
1517.4692980009268,1517.4692980009268,4251.2275,26.61043
1517.4706869004085,1517.4706869004085,4288.6772,26.534977
1517.4720757998905,1517.4720757998905,4279.573,26.446873
1517.4734646993725,1517.4734646993725,4260.3335,26.339138
1517.4748535988533,1517.4748535988533,4302.6514,26.248274
1517.476242498336,1517.476242498336,4272.095,26.160807
1517.4776313978186,1517.4776313978186,4315.834,26.077827
1517.4790202972995,1517.4790202972995,4282.8955,25.989027
1517.4804091967808,1517.4804091967808,4306.937,25.91377
1517.4817980962625,1517.4817980962625,4288.8804,25.813995
1517.4831869962109,1517.4831869962109,4280.458,25.724894
1517.4845758956926,1517.4845758956926,4275.98,25.645351
1517.4859647951744,1517.4859647951744,4288.4883,25.55501
1517.4873536946561,1517.4873536946561,4295.6494,25.470457
1517.4887425941379,1517.4887425941379,4259.8726,25.38521
1517.4901314940855,1517.4901314940855,4272.119,25.302465
1517.4915203935675,1517.4915203935675,4306.152,25.227499
1517.4929092930493,1517.4929092930493,4316.7627,25.144186
1517.4942981929958,1517.4942981929958,4308.1895,25.062277
1517.4956870924784,1517.4956870924784,4303.9146,24.985735
1517.497075991961,1517.497075991961,4278.242,24.906128
1517.4984648919076,1517.4984648919076,4253.5093,24.804852
1517.499853791389,1517.499853791389,4289.33,24.740583
1517.5012426913363,1517.5012426913363,4253.461,24.651188
1517.502631590819,1517.502631590819,4285.357,24.572643
1517.5040204903007,1517.5040204903007,4274.4766,24.498909
1517.5054093902481,1517.5054093902481,4267.8545,24.400537
1517.5067982897299,1517.5067982897299,4288.132,24.33044
1517.5081871896773,1517.5081871896773,4304.303,24.264156
1517.50957608916,1517.50957608916,4266.9727,24.168365
1517.5109649891074,1517.5109649891074,4304.1606,24.10222
1517.5123538885887,1517.5123538885887,4284.601,24.026209
1517.5137427885354,1517.5137427885354,4289.362,23.947128
1517.5151316884835,1517.5151316884835,4285.423,23.869501
1517.5165205879662,1517.5165205879662,4310.519,23.808731
1517.517909487913,1517.517909487913,4269.8315,23.729156
1517.5192983873949,1517.5192983873949,4312.747,23.647783
1517.5206872873423,1517.5206872873423,4288.3613,23.572563
1517.5220761872897,1517.5220761872897,4263.991,23.494677
1517.5234650867715,1517.5234650867715,4275.861,23.423365
1517.5248539867189,1517.5248539867189,4261.041,23.350534
1517.5262428866663,1517.5262428866663,4295.807,23.292274
1517.527631786614,1517.527631786614,4273.1724,23.216898
1517.5290206860964,1517.5290206860964,4305.3867,23.143044
1517.5304095860438,1517.5304095860438,4292.7925,23.073193
1517.5317984859907,1517.5317984859907,4305.4097,23.007927
1517.5331873859375,1517.5331873859375,4271.205,22.930225
1517.53457628542,1517.53457628542,4282.9385,22.857876
1517.5359651853682,1517.5359651853682,4301.8706,22.803068
1517.537354085315,1517.537354085315,4289.1865,22.72862
1517.5387429852626,1517.5387429852626,4272.7793,22.672525
1517.54013188521,1517.54013188521,4288.316,22.609938
1517.5415207851574,1517.5415207851574,4281.925,22.553982
1517.5429096846392,1517.5429096846392,4303.986,22.480913
1517.5442985845866,1517.5442985845866,4305.2617,22.430685
1517.545687484534,1517.545687484534,4329.259,22.372667
1517.5470763844817,1517.5470763844817,4301.156,22.298649
1517.5484652844298,1517.5484652844298,4285.4585,22.253565
1517.5498541843772,1517.5498541843772,4333.8384,22.195642
1517.5512430843241,1517.5512430843241,4292.5513,22.139694
1517.5526319842716,1517.5526319842716,4259.0474,22.065292
1517.5540208842199,1517.5540208842199,4303.001,22.021864
1517.5554097841673,1517.5554097841673,4313.615,21.96939
1517.5567986841143,1517.5567986841143,4234.6733,21.898338
1517.5581875840617,1517.5581875840617,4322.6426,21.858763
1517.559576484009,1517.559576484009,4288.181,21.79647
1517.5609653839565,1517.5609653839565,4302.7275,21.733812
1517.5623542839048,1517.5623542839048,4288.147,21.682379
1517.5637431838522,1517.5637431838522,4287.0063,21.636768
1517.565132083799,1517.565132083799,4269.2617,21.584543
1517.5665209837466,1517.5665209837466,4298.452,21.540379
1517.5679098841601,1517.5679098841601,4311.534,21.498621
1517.5692987841078,1517.5692987841078,4274.507,21.43764
1517.5706876840545,1517.5706876840545,4273.0337,21.37665
1517.572076584002,1517.572076584002,4293.2993,21.320381
1517.5734654839503,1517.5734654839503,4309.8657,21.283709
1517.5748543838977,1517.5748543838977,4298.6104,21.236488
1517.5762432843103,1517.5762432843103,4330.9653,21.194878
1517.5776321842577,1517.5776321842577,4277.3633,21.12967
1517.5790210842051,1517.5790210842051,4266.52,21.089022
1517.5804099841525,1517.5804099841525,4301.9487,21.037453
1517.5817988841009,1517.5817988841009,4274.6274,20.993929
1517.583187784514,1517.583187784514,4279.992,20.930735
1517.5845766844607,1517.5845766844607,4309.0835,20.911314
1517.5859655844088,1517.5859655844088,4255.368,20.83918
1517.5873544848228,1517.5873544848228,4295.7007,20.810738
1517.5887433847695,1517.5887433847695,4306.467,20.775606
1517.5901322847162,1517.5901322847162,4306.6606,20.722876
1517.5915211846636,1517.5915211846636,4298.5444,20.682966
1517.5929100850776,1517.5929100850776,4312.1797,20.634737
1517.594298985025,1517.594298985025,4268.251,20.579554
1517.5956878849724,1517.5956878849724,4318.998,20.56222
1517.5970767853855,1517.5970767853855,4290.837,20.497791
1517.5984656853325,1517.5984656853325,4303.609,20.462128
1517.5998545857456,1517.5998545857456,4304.8223,20.412754
1517.6012434856939,1517.6012434856939,4303.1274,20.35997
1517.6026323856413,1517.6026323856413,4296.387,20.325443
1517.604021286054,1517.604021286054,4295.776,20.280907
1517.6054101860018,1517.6054101860018,4272.5547,20.226501
1517.6067990864158,1517.6067990864158,4311.7456,20.198677
1517.6081879863627,1517.6081879863627,4289.629,20.15083
1517.609576886775,1517.609576886775,4263.3345,20.096117
1517.6109657867223,1517.6109657867223,4325.827,20.071371
1517.6123546871363,1517.6123546871363,4304.837,20.027386
1517.6137435870837,1517.6137435870837,4299.934,19.980854
1517.6151324874968,1517.6151324874968,4300.1504,19.955584
1517.6165213874444,1517.6165213874444,4318.1465,19.898123
1517.6179102878568,1517.6179102878568,4295.64,19.848932
1517.6192991878052,1517.6192991878052,4313.179,19.814236
1517.620688088219,1517.620688088219,4324.778,19.809132
1517.6220769881656,1517.6220769881656,4293.283,19.728842
1517.6234658885783,1517.6234658885783,4316.931,19.684296
1517.6248547885261,1517.6248547885261,4274.5327,19.635094
1517.6262436889401,1517.6262436889401,4319.257,19.610817
1517.627632588887,1517.627632588887,4280.0957,19.559242
1517.6290214893002,1517.6290214893002,4275.4727,19.518368
1517.6304103897132,1517.6304103897132,4282.683,19.47769
1517.6317992896606,1517.6317992896606,4285.9575,19.441065
1517.6331881900737,1517.6331881900737,4322.5996,19.406687
1517.6345770900211,1517.6345770900211,4284.3223,19.354109
1517.6359659904344,1517.6359659904344,4280.959,19.326973
1517.6373548908468,1517.6373548908468,4305.462,19.27769
1517.6387437907952,1517.6387437907952,4267.0513,19.238104
1517.640132691209,1517.640132691209,4281.533,19.194225
1517.6415215916213,1517.6415215916213,4326.7974,19.183552
1517.6429104915683,1517.6429104915683,4283.684,19.125069
1517.644299391982,1517.644299391982,4341.205,19.108507
1517.6456882923958,1517.6456882923958,4293.994,19.05677
1517.6470771928084,1517.6470771928084,4310.0366,19.015663
1517.6484660927558,1517.6484660927558,4323.5127,18.994978
1517.649854993169,1517.649854993169,4287.1514,18.946846
1517.651243893582,1517.651243893582,4292.6714,18.908442
1517.6526327935303,1517.6526327935303,4325.398,18.872347
1517.6540216939434,1517.6540216939434,4293.0596,18.819994
1517.655410594356,1517.655410594356,4266.467,18.777205
1517.6567994947682,1517.6567994947682,4274.2505,18.742802
1517.6581883947165,1517.6581883947165,4296.8877,18.711721
1517.6595772951305,1517.6595772951305,4333.782,18.685648
1517.6609661955426,1517.6609661955426,4261.802,18.640175
1517.6623550959557,1517.6623550959557,4288.657,18.609222
1517.6637439963697,1517.6637439963697,4293.528,18.563337
1517.6651328963171,1517.6651328963171,4270.2188,18.529974
1517.6665217967297,1517.6665217967297,4301.634,18.489143
1517.6679106971428,1517.6679106971428,4316.3516,18.47171
1517.669299597556,1517.669299597556,4321.761,18.450897
1517.670688497969,1517.670688497969,4297.9355,18.40012
1517.672077398383,1517.672077398383,4331.692,18.350985
1517.6734662983304,1517.6734662983304,4283.9272,18.30805
1517.674855198743,1517.674855198743,4280.9727,18.273445
1517.6762440991552,1517.6762440991552,4275.9956,18.239904
1517.6776329995691,1517.6776329995691,4323.75,18.200684
1517.6790218999831,1517.6790218999831,4310.912,18.171562
1517.6804108003953,1517.6804108003953,4293.6924,18.13414
1517.6817997008086,1517.6817997008086,4285.049,18.095572
1517.6831886012224,1517.6831886012224,4307.2607,18.07066
1517.6845775011698,1517.6845775011698,4277.0625,18.023123
1517.6859664015824,1517.6859664015824,4298.421,17.992376
1517.6873553019955,1517.6873553019955,4304.146,17.955734
1517.6887442024085,1517.6887442024085,4281.627,17.925371
1517.6901331028216,1517.6901331028216,4282.417,17.887228
1517.6915220032356,1517.6915220032356,4301.5884,17.868809
1517.6929109036487,1517.6929109036487,4286.4067,17.817202
1517.6942998040613,1517.6942998040613,4297.8735,17.795591
1517.6956887044744,1517.6956887044744,4267.958,17.75109
1517.6970776048884,1517.6970776048884,4280.33,17.729744
1517.6984665053014,1517.6984665053014,4282.8,17.683245
1517.6998554057136,1517.6998554057136,4309.2593,17.66734
1517.701244306127,1517.701244306127,4292.7617,17.639444
1517.7026332065407,1517.7026332065407,4316.559,17.604593
1517.7040221069537,1517.7040221069537,4299.919,17.56903
1517.705411007367,1517.705411007367,4306.604,17.547298
1517.7067999077804,1517.7067999077804,4315.896,17.51443
1517.7081888081925,1517.7081888081925,4317.068,17.47381
1517.7095777086056,1517.7095777086056,4294.1504,17.435707
1517.7109666090196,1517.7109666090196,4282.3877,17.409332
1517.7123555094327,1517.7123555094327,4308.284,17.378574
1517.7137444098453,1517.7137444098453,4290.6245,17.34023
1517.7151333102584,1517.7151333102584,4291.2314,17.309565
1517.7165222106723,1517.7165222106723,4290.3384,17.297672
1517.7179111110854,1517.7179111110854,4320.3555,17.248632
1517.7193000114978,1517.7193000114978,4274.068,17.199512
1517.720688911911,1517.720688911911,4303.966,17.182741
1517.7220778123246,1517.7220778123246,4281.5356,17.163586
1517.7234667127377,1517.7234667127377,4289.4297,17.114277
1517.724855613151,1517.724855613151,4276.6514,17.078014
1517.7262445135643,1517.7262445135643,4297.723,17.06676
1517.7276334139765,1517.7276334139765,4285.9375,17.01203
1517.7290223143905,1517.7290223143905,4316.778,16.98656
1517.7304112152701,1517.7304112152701,4262.5317,16.938095
1517.7318001156823,1517.7318001156823,4295.0093,16.94701
1517.733189016095,1517.733189016095,4293.8984,16.909681
1517.734577916508,1517.734577916508,4283.44,16.854012
1517.735966816922,1517.735966816922,4294.9116,16.822239
1517.737355717335,1517.737355717335,4293.459,16.789385
1517.7387446177481,1517.7387446177481,4298.7,16.766535
1517.7401335181612,1517.7401335181612,4278.022,16.720833
1517.7415224185743,1517.7415224185743,4285.17,16.691137
1517.7429113194532,1517.7429113194532,4321.52,16.682472
1517.7443002198665,1517.7443002198665,4310.6016,16.629475
1517.7456891202796,1517.7456891202796,4297.2905,16.594732
1517.7470780206918,1517.7470780206918,4274.014,16.560492
1517.7484669211058,1517.7484669211058,4311.693,16.546734
1517.7498558215198,1517.7498558215198,4277.4683,16.509737
1517.751244721932,1517.751244721932,4271.287,16.466673
1517.7526336228102,1517.7526336228102,4287.6123,16.454082
1517.7540225232233,1517.7540225232233,4325.3364,16.416277
1517.7554114236373,1517.7554114236373,4317.5786,16.382942
1517.7568003240503,1517.7568003240503,4296.4385,16.340414
1517.7581892244634,1517.7581892244634,4288.381,16.304232
1517.7595781248765,1517.7595781248765,4297.307,16.278908
1517.7609670257552,1517.7609670257552,4294.6196,16.240147
1517.7623559261685,1517.7623559261685,4283.542,16.21102
1517.7637448265818,1517.7637448265818,4311.9116,16.187052
1517.765133726995,1517.765133726995,4290.72,16.157907
1517.7665226274073,1517.7665226274073,4289.1313,16.107979
1517.7679115282867,1517.7679115282867,4277.18,16.097185
1517.7693004287007,1517.7693004287007,4282.7285,16.052011
1517.770689329113,1517.770689329113,4285.2754,16.011728
1517.7720782295264,1517.7720782295264,4278.758,15.982658
1517.7734671299395,1517.7734671299395,4291.144,15.951746
1517.7748560308182,1517.7748560308182,4283.7764,15.915818
1517.7762449312313,1517.7762449312313,4281.63,15.874679
1517.7776338316444,1517.7776338316444,4277.914,15.8435335
1517.7790227320575,1517.7790227320575,4316.6455,15.8339615
1517.7804116329364,1517.7804116329364,4282.9004,15.78848
1517.7818005333502,1517.7818005333502,4267.039,15.741181
1517.7831894337633,1517.7831894337633,4309.4277,15.724379
1517.7845783341759,1517.7845783341759,4288.332,15.6866455
1517.785967235054,1517.785967235054,4279.07,15.649636
1517.7873561354677,1517.7873561354677,4282.085,15.605864
1517.7887450358817,1517.7887450358817,4281.441,15.5811615
1517.790133936294,1517.790133936294,4301.7383,15.559746
1517.791522837173,1517.791522837173,4276.4,15.514966
1517.792911737586,1517.792911737586,4316.741,15.500334
1517.7943006379992,1517.7943006379992,4308.398,15.466042
1517.7956895384123,1517.7956895384123,4312.458,15.429531
1517.797078439291,1517.797078439291,4326.0454,15.3996105
1517.798467339704,1517.798467339704,4299.501,15.367092
1517.7998562401174,1517.7998562401174,4277.5464,15.323535
1517.8012451405311,1517.8012451405311,4305.484,15.300844
1517.8026340414099,1517.8026340414099,4291.8325,15.264856
1517.8040229418225,1517.8040229418225,4292.497,15.23573
1517.8054118422351,1517.8054118422351,4273.3574,15.184527
1517.8068007431143,1517.8068007431143,4323.5234,15.184299
1517.8081896435283,1517.8081896435283,4292.3804,15.129023
1517.809578543941,1517.809578543941,4265.985,15.104397
1517.810967444354,1517.810967444354,4279.9917,15.07644
1517.8123563452327,1517.8123563452327,4306.0166,15.057146
1517.8137452456458,1517.8137452456458,4289.5938,15.013585
1517.8151341460598,1517.8151341460598,4284.3545,14.981849
1517.8165230469385,1517.8165230469385,4302.572,14.969861
1517.817911947351,1517.817911947351,4309.2295,14.937791
1517.8193008477642,1517.8193008477642,4280.301,14.900188
1517.8206897486434,1517.8206897486434,4304.251,14.8764305
1517.8220786490567,1517.8220786490567,4294.0215,14.836163
1517.8234675494691,1517.8234675494691,4293.732,14.820514
1517.8248564498822,1517.8248564498822,4286.1514,14.785208
1517.8262453507618,1517.8262453507618,4312.981,14.783982
1517.827634251175,1517.827634251175,4284.131,14.735276
1517.8290231515875,1517.8290231515875,4286.9185,14.703098
1517.8304120524663,1517.8304120524663,4305.7515,14.687178
1517.8318009528793,1517.8318009528793,4293.0356,14.663919
1517.8331898532924,1517.8331898532924,4289.9995,14.637972
1517.834578754172,1517.834578754172,4311.772,14.615446
1517.8359676545851,1517.8359676545851,4275.041,14.588891
1517.8373565549975,1517.8373565549975,4274.8984,14.556988
1517.8387454558765,1517.8387454558765,4278.406,14.532678
1517.84013435629,1517.84013435629,4284.6978,14.508657
1517.8415232567033,1517.8415232567033,4309.7407,14.490193
1517.8429121575814,1517.8429121575814,4318.7383,14.4665575
1517.8443010579945,1517.8443010579945,4297.1904,14.436249
1517.8456899584085,1517.8456899584085,4303.951,14.421593
