time,time,flux,flux_err
1354.1119000553763,1354.1119000553763,0.99672663,0.0005652921
1354.11328897559,1354.11328897559,0.9976918,0.000565479
1354.1160668160155,1354.1160668160155,0.9967555,0.00056516274
1354.1174557362292,1354.1174557362292,0.9963918,0.0005651145
1354.1188446564424,1354.1188446564424,0.99602383,0.0005651723
1354.1202335766554,1354.1202335766554,0.9982386,0.0005657145
1354.1216224968684,1354.1216224968684,0.9969225,0.0005653605
1354.1230114170821,1354.1230114170821,0.99695075,0.0005653815
1354.124400337296,1354.124400337296,0.99698627,0.0005652415
1354.125789257509,1354.125789257509,0.99785143,0.0005655842
1354.1271781777223,1354.1271781777223,0.99794877,0.00056545594
1354.128567097935,1354.128567097935,0.9967222,0.0005652372
1354.1299560181483,1354.1299560181483,0.9970719,0.0005654842
1354.131344938362,1354.131344938362,0.99759746,0.000565412
1354.1327338585752,1354.1327338585752,0.9969182,0.0005653902
1354.134122778788,1354.134122778788,0.9963298,0.00056512293
1354.1355116990019,1354.1355116990019,0.9975645,0.00056542474
1354.1369006194477,1354.1369006194477,0.99678487,0.0005652486
1354.1382895396614,1354.1382895396614,0.99723655,0.0005654401
1354.1396784598746,1354.1396784598746,0.9960537,0.00056500296
1354.141067380087,1354.141067380087,0.99729437,0.0005653036
1354.1424563003006,1354.1424563003006,0.9963507,0.00056519447
1354.1438452205143,1354.1438452205143,0.99749315,0.0005655499
1354.1452341407276,1354.1452341407276,0.99843377,0.00056565186
1354.1466230609406,1354.1466230609406,0.9959244,0.00056511664
1354.1480119811536,1354.1480119811536,0.9982829,0.00056556024
1354.1494009013672,1354.1494009013672,0.9977442,0.00056537875
1354.1507898215812,1354.1507898215812,0.9968615,0.0005652491
1354.1521787417937,1354.1521787417937,0.9974888,0.00056538614
1354.1535676620065,1354.1535676620065,0.99721926,0.00056546147
1354.1549565822202,1354.1549565822202,0.9972877,0.00056526944
1354.156345502434,1354.156345502434,0.99841774,0.00056560064
1354.157734422647,1354.157734422647,0.99781746,0.0005653872
1354.1591233428594,1354.1591233428594,0.99701804,0.0005652748
1354.160512263073,1354.160512263073,0.99742216,0.0005655439
1354.161901183287,1354.161901183287,0.99730784,0.0005653771
1354.1632901035,1354.1632901035,0.9972549,0.0005653669
1354.1646790237132,1354.1646790237132,0.9974758,0.00056538486
1354.166067943926,1354.166067943926,0.99789214,0.000565449
1354.16745686414,1354.16745686414,0.99637264,0.00056513393
1354.1688457843538,1354.1688457843538,0.99681455,0.0005652547
1354.1702347045662,1354.1702347045662,0.9980129,0.00056543236
1354.1716236247792,1354.1716236247792,0.9973637,0.0005653602
1354.173012544993,1354.173012544993,0.99719644,0.0005654018
1354.1744014652058,1354.1744014652058,0.99756294,0.0005655024
1354.1757903854195,1354.1757903854195,0.99827766,0.0005655882
1354.1771793056328,1354.1771793056328,0.99666965,0.00056518393
1354.178568225846,1354.178568225846,0.9974252,0.00056526344
1354.1799571460597,1354.1799571460597,0.99723405,0.0005652348
1354.1813460662725,1354.1813460662725,0.9973881,0.0005653946
1354.1827349864864,1354.1827349864864,0.99740994,0.0005652675
1354.1841239066994,1354.1841239066994,0.99725586,0.0005653434
1354.1855128269117,1354.1855128269117,0.99746215,0.0005654521
1354.1869017471256,1354.1869017471256,0.99749184,0.00056541746
1354.1882906673395,1354.1882906673395,0.996886,0.00056514656
1354.1896795875523,1354.1896795875523,0.997344,0.0005653925
1354.1910685077655,1354.1910685077655,0.9972014,0.00056529057
1354.1924574279785,1354.1924574279785,0.99656177,0.00056514237
1354.1938463481924,1354.1938463481924,0.99822044,0.00056542084
1354.1952352684061,1354.1952352684061,0.99804044,0.00056540023
1354.1966241886184,1354.1966241886184,0.9969351,0.00056523323
1354.1980131088314,1354.1980131088314,0.9976542,0.00056535064
1354.1994020290454,1354.1994020290454,0.99750763,0.0005654296
1354.200790949259,1354.200790949259,0.99704504,0.0005652669
1354.2021798694718,1354.2021798694718,0.99670905,0.00056524546
1354.2035687896844,1354.2035687896844,0.99745584,0.00056534883
1354.2049577096655,1354.2049577096655,0.99703914,0.00056526886
1354.2063466298791,1354.2063466298791,0.9980417,0.00056544837
1354.207735550092,1354.207735550092,0.997859,0.0005653599
1354.2091244703051,1354.2091244703051,0.9972841,0.000565149
1354.2105133905184,1354.2105133905184,0.9962087,0.00056500226
1354.211902310732,1354.211902310732,0.99825174,0.00056552206
1354.2132912309457,1354.2132912309457,0.9978737,0.0005653431
1354.214680151158,1354.214680151158,0.99624246,0.0005650192
1354.2160690713713,1354.2160690713713,0.9973219,0.0005654185
1354.217457991585,1354.217457991585,0.998393,0.00056569284
1354.218846911798,1354.218846911798,0.99754614,0.0005651883
1354.220235832012,1354.220235832012,0.9976722,0.00056513277
1354.2216247522247,1354.2216247522247,0.9971737,0.00056525087
1354.223013672438,1354.223013672438,0.99816775,0.0005655511
1354.2244025926516,1354.2244025926516,0.9972482,0.00056525256
1354.2257915128648,1354.2257915128648,0.99830174,0.0005653205
1354.2271804330776,1354.2271804330776,0.99715024,0.00056518154
1354.228569353058,1354.228569353058,0.9970467,0.00056526024
1354.229958273271,1354.229958273271,0.9976972,0.00056541065
1354.231347193485,1354.231347193485,0.99703753,0.00056512764
1354.2327361136986,1354.2327361136986,0.9976554,0.0005653567
1354.2341250339116,1354.2341250339116,0.9984764,0.00056556874
1354.2355139541246,1354.2355139541246,0.9968295,0.0005652018
1354.2369028743378,1354.2369028743378,0.9987489,0.00056560617
1354.2382917945515,1354.2382917945515,0.99755335,0.0005653237
1354.2396807147652,1354.2396807147652,0.997812,0.0005653609
1354.2410696349775,1354.2410696349775,0.9984991,0.0005655454
1354.2424585551908,1354.2424585551908,0.9980289,0.0005654262
1354.2438474751716,1354.2438474751716,0.9971511,0.00056514813
1354.2452363953853,1354.2452363953853,0.9975961,0.00056530593
1354.2466253155985,1354.2466253155985,0.9974258,0.000565139
1354.2480142358108,1354.2480142358108,0.99726254,0.0005652382
1354.2494031560245,1354.2494031560245,0.9962248,0.0005649803
1354.2507920762382,1354.2507920762382,0.99734014,0.00056516833
1354.2521809964514,1354.2521809964514,0.9972341,0.0005652358
1354.2535699166642,1354.2535699166642,0.99765635,0.00056535605
1354.2549588366446,1354.2549588366446,0.9972166,0.00056526973
1354.2563477568583,1354.2563477568583,0.99819726,0.00056552864
1354.257736677072,1354.257736677072,0.9974208,0.00056532904
1354.2591255972843,1354.2591255972843,0.9980422,0.0005654225
1354.2605145174975,1354.2605145174975,0.9972344,0.00056524575
1354.2619034377112,1354.2619034377112,0.998142,0.0005653748
1354.2632923579245,1354.2632923579245,0.9986613,0.0005654583
1354.2646812781381,1354.2646812781381,0.99746233,0.0005652461
1354.2660701981183,1354.2660701981183,0.99729437,0.0005652461
1354.2674591183313,1354.2674591183313,0.99844974,0.00056549447
1354.268848038545,1354.268848038545,0.99831,0.00056544255
1354.2702369587582,1354.2702369587582,0.99721646,0.0005652901
1354.2716258789715,1354.2716258789715,0.9975255,0.00056529406
1354.2730147991842,1354.2730147991842,0.9974747,0.0005652817
1354.2744037191646,1354.2744037191646,0.9973914,0.0005653004
1354.2757926393783,1354.2757926393783,0.99775964,0.00056531874
1354.277181559592,1354.277181559592,0.99691,0.0005651488
1354.2785704798052,1354.2785704798052,0.9969959,0.0005652066
1354.279959400018,1354.279959400018,0.9969665,0.00056505715
1354.2813483202312,1354.2813483202312,0.9969189,0.0005650692
1354.282737240212,1354.282737240212,0.996602,0.0005651702
1354.2841261604253,1354.2841261604253,0.99739856,0.0005651688
1354.2855150806377,1354.2855150806377,0.9974222,0.00056520046
1354.2869040008513,1354.2869040008513,0.9972528,0.0005651912
1354.288292921065,1354.288292921065,0.9975219,0.0005651996
1354.2896818410459,1354.2896818410459,0.99789876,0.0005653762
1354.291070761259,1354.291070761259,0.99770975,0.0005653947
1354.2924596814714,1354.2924596814714,0.9984701,0.00056545733
1354.293848601685,1354.293848601685,0.9978416,0.00056539755
1354.2952375218988,1354.2952375218988,0.9971419,0.00056529796
1354.2966264418785,1354.2966264418785,0.9981718,0.000565477
1354.2980153620915,1354.2980153620915,0.9973264,0.00056531845
1354.2994042823052,1354.2994042823052,0.9978927,0.0005653573
1354.300793202519,1354.300793202519,0.9981652,0.00056549336
1354.3021821225,1354.3021821225,0.99726015,0.0005651354
1354.3035710427125,1354.3035710427125,0.9963646,0.0005648108
1354.3049599629253,1354.3049599629253,0.9962134,0.000564933
1354.306348883139,1354.306348883139,0.9968561,0.0005650597
1354.3077378031194,1354.3077378031194,0.99685615,0.00056504656
1354.309126723333,1354.309126723333,0.9964615,0.0005650734
1354.3105156435463,1354.3105156435463,0.99668366,0.00056501175
1354.3119045637593,1354.3119045637593,0.99722475,0.0005652238
1354.3132934837404,1354.3132934837404,0.9972211,0.0005651189
1354.3146824039532,1354.3146824039532,0.9969529,0.00056526915
1354.3160713241664,1354.3160713241664,0.99675965,0.00056505384
1354.3174602443794,1354.3174602443794,0.9965725,0.0005649934
1354.3188491643596,1354.3188491643596,0.99687856,0.0005651447
1354.3202380845732,1354.3202380845732,0.9975825,0.0005651067
1354.321627004787,1354.321627004787,0.9967454,0.0005650962
1354.3230159250002,1354.3230159250002,0.99805164,0.00056536816
1354.3244048449806,1354.3244048449806,0.996952,0.00056508183
1354.3257937651933,1354.3257937651933,0.9972547,0.00056508475
1354.327182685407,1354.327182685407,0.9962404,0.0005649757
1354.3285716053874,1354.3285716053874,0.9982251,0.0005653867
1354.3299605255997,1354.3299605255997,0.9980941,0.00056527235
1354.3313494458134,1354.3313494458134,0.99778074,0.0005653429
1354.3327383657945,1354.3327383657945,0.9975892,0.0005650922
1354.3341272860084,1354.3341272860084,0.9970627,0.0005651754
1354.3355162062212,1354.3355162062212,0.9971194,0.00056509353
1354.3369051262007,1354.3369051262007,0.99760634,0.000565083
1354.3382940464146,1354.3382940464146,0.9970902,0.0005651001
1354.3396829666285,1354.3396829666285,0.99736345,0.0005650486
1354.341071886608,1354.341071886608,0.9980603,0.000565387
1354.3424608068208,1354.3424608068208,0.997516,0.00056525494
1354.3438497270347,1354.3438497270347,0.9975766,0.00056503667
1354.3452386470158,1354.3452386470158,0.9983445,0.0005654014
1354.3466275672295,1354.3466275672295,0.9970671,0.0005651079
1354.3480164874418,1354.3480164874418,0.9973239,0.00056512223
1354.349405407422,1354.349405407422,0.99789506,0.0005652271
1354.3507943276359,1354.3507943276359,0.99817884,0.00056550064
1354.3521832478486,1354.3521832478486,0.9974432,0.00056511833
1354.353572167829,1354.353572167829,0.9969887,0.0005651256
1354.354961088042,1354.354961088042,0.99790746,0.0005652195
1354.356350008256,1354.356350008256,0.9974636,0.00056505925
1354.3577389282368,1354.3577389282368,0.9984922,0.0005654381
1354.3591278484498,1354.3591278484498,0.9973361,0.00056514627
1354.36051676843,1354.36051676843,0.99814975,0.00056542567
1354.3619056886432,1354.3619056886432,0.99712,0.0005651331
1354.363294608856,1354.363294608856,0.9971416,0.0005650666
1354.364683528837,1354.364683528837,0.99689513,0.00056500174
1354.366072449051,1354.366072449051,0.9979621,0.0005653383
1354.367461369031,1354.367461369031,0.99732697,0.0005651277
1354.3688502892442,1354.3688502892442,0.99720246,0.0005652193
1354.3702392094572,1354.3702392094572,0.99740636,0.00056516245
1354.3716281294382,1354.3716281294382,0.99717975,0.0005649982
1354.373017049651,1354.373017049651,0.9975226,0.0005650513
1354.3744059696305,1354.3744059696305,0.9978664,0.0005652101
1354.3757948898444,1354.3757948898444,0.9975129,0.00056515913
1354.3771838098255,1354.3771838098255,0.9967762,0.00056489237
1354.3785727300392,1354.3785727300392,0.99718225,0.0005650991
1354.3799616502522,1354.3799616502522,0.99678844,0.0005650417
1354.381350570232,1354.381350570232,0.99723554,0.0005649782
1354.3827394904456,1354.3827394904456,0.9970919,0.000565032
1354.3841284104265,1354.3841284104265,0.99733347,0.00056504295
1354.3855173306388,1354.3855173306388,0.9982809,0.0005652851
1354.3869062506192,1354.3869062506192,0.9971821,0.0005651216
1354.3882951708329,1354.3882951708329,0.99823326,0.0005652598
1354.3896840908137,1354.3896840908137,0.99774504,0.00056533783
1354.3910730110274,1354.3910730110274,0.99724466,0.0005650046
1354.392461931007,1354.392461931007,0.997086,0.00056495797
1354.3938508512201,1354.3938508512201,0.9972648,0.0005650838
1354.395239771201,1354.395239771201,0.9984118,0.0005652006
1354.3966286914142,1354.3966286914142,0.9972089,0.0005650648
1354.3980176113942,1354.3980176113942,0.99733275,0.00056516554
1354.3994065316074,1354.3994065316074,0.998127,0.0005652539
1354.4007954515882,1354.4007954515882,0.99781036,0.00056519697
1354.402184371802,1354.402184371802,0.99802166,0.000565182
1354.4035732917823,1354.4035732917823,0.9976141,0.0005650368
1354.404962211995,1354.404962211995,0.99734586,0.0005650726
1354.4063511319755,1354.4063511319755,0.9975294,0.00056513055
1354.4077400521887,1354.4077400521887,0.99738604,0.0005650328
1354.4091289721696,1354.4091289721696,0.9964269,0.00056481466
1354.4105178923833,1354.4105178923833,0.99634004,0.0005647846
1354.4119068123634,1354.4119068123634,0.99684113,0.00056490215
1354.4132957325764,1354.4132957325764,0.9970062,0.0005649814
1354.4146846525568,1354.4146846525568,0.99770856,0.0005651558
1354.4160735725377,1354.4160735725377,0.997377,0.00056516763
1354.417462492751,1354.417462492751,0.99714303,0.00056505663
1354.4188514127304,1354.4188514127304,0.9972301,0.00056507374
1354.420240332944,1354.420240332944,0.9975936,0.0005651619
1354.421629252925,1354.421629252925,0.99677926,0.00056501315
1354.4230181731386,1354.4230181731386,0.99667466,0.00056494836
1354.424407093119,1354.424407093119,0.99729705,0.0005650831
1354.4257960130985,1354.4257960130985,0.99763185,0.00056512194
1354.4271849333122,1354.4271849333122,0.9970688,0.0005649981
1354.428573853293,1354.428573853293,0.99710715,0.000565009
1354.4299627735054,1354.4299627735054,0.99725425,0.00056511257
1354.4313516934858,1354.4313516934858,0.9974409,0.0005649166
1354.4327406134666,1354.4327406134666,0.99662733,0.0005650634
1354.4341295336803,1354.4341295336803,0.99749285,0.00056507543
1354.4355184536612,1354.4355184536612,0.99689245,0.0005649908
1354.4369073736407,1354.4369073736407,0.99685717,0.0005648798
1354.438296293854,1354.438296293854,0.99836874,0.00056536833
1354.4396852138348,1354.4396852138348,0.99691653,0.00056509784
1354.441074134048,1354.441074134048,0.9972235,0.0005650912
1354.4424630540282,1354.4424630540282,0.9968849,0.0005648901
1354.4438519740083,1354.4438519740083,0.9967605,0.00056493335
1354.445240894222,1354.445240894222,0.99724144,0.00056494883
1354.4466298142029,1354.4466298142029,0.9975199,0.00056509586
1354.4480187341833,1354.4480187341833,0.99788254,0.00056520756
1354.4494076543965,1354.4494076543965,0.9973583,0.00056512683
1354.4507965743765,1354.4507965743765,0.9974953,0.00056514627
1354.4521854943569,1354.4521854943569,0.99819005,0.0005653229
1354.4535744143377,1354.4535744143377,0.9966212,0.0005649251
1354.4549633345514,1354.4549633345514,0.9966579,0.00056487403
1354.4563522545318,1354.4563522545318,0.99715656,0.00056495564
1354.457741174512,1354.457741174512,0.99780136,0.0005651154
1354.459130094725,1354.459130094725,0.9980624,0.00056524226
1354.4605190147058,1354.4605190147058,0.9969806,0.0005649878
1354.4619079346862,1354.4619079346862,0.99652696,0.0005649642
1354.4632968548985,1354.4632968548985,0.9973547,0.00056507357
1354.4646857748794,1354.4646857748794,0.99690306,0.0005648957
1354.4660746948603,1354.4660746948603,0.99664116,0.00056485203
1354.467463614841,1354.467463614841,0.9973644,0.00056503824
1354.4688525350543,1354.4688525350543,0.9960854,0.00056470506
1354.4702414550338,1354.4702414550338,0.9973439,0.00056494493
1354.4716303750147,1354.4716303750147,0.99629545,0.0005648055
1354.4730192949955,1354.4730192949955,0.9970044,0.0005647789
1354.474408215208,1354.474408215208,0.9969344,0.0005650506
1354.4757971351883,1354.4757971351883,0.99773246,0.0005649795
1354.477186055169,1354.477186055169,0.9981763,0.00056520087
1354.4785749751502,1354.4785749751502,0.99689233,0.0005649961
1354.4799638951313,1354.4799638951313,0.9969168,0.00056485675
1354.4813528153436,1354.4813528153436,0.99724466,0.00056494144
1354.4827417353235,1354.4827417353235,0.9975869,0.00056495436
1354.4841306553046,1354.4841306553046,0.9970943,0.00056492514
1354.4855195752848,1354.4855195752848,0.9976912,0.00056496356
1354.4869084952652,1354.4869084952652,0.99772155,0.0005650692
1354.488297415478,1354.488297415478,0.99708164,0.00056497694
1354.489686335459,1354.489686335459,0.99818444,0.00056519196
1354.4910752554401,1354.4910752554401,0.9970165,0.00056491967
1354.49246417542,1354.49246417542,0.9974544,0.00056504185
1354.4938530954005,1354.4938530954005,0.9977913,0.0005650585
1354.4952420153807,1354.4952420153807,0.9977214,0.00056513766
1354.4966309355937,1354.4966309355937,0.9978644,0.0005652145
1354.4980198555745,1354.4980198555745,0.9970908,0.00056500814
1354.4994087755556,1354.4994087755556,0.9976155,0.0005650063
1354.5007976955358,1354.5007976955358,0.99827915,0.0005652744
1354.5021866155162,1354.5021866155162,0.996488,0.0005648117
1354.503575535496,1354.503575535496,0.9970265,0.00056483445
1354.5049644554772,1354.5049644554772,0.9963053,0.00056480116
1354.5063533754574,1354.5063533754574,0.9968392,0.0005648692
1354.5077422956697,1354.5077422956697,0.99767905,0.0005649823
1354.5091312156505,1354.5091312156505,0.9974004,0.0005649683
1354.5105201356316,1354.5105201356316,0.99789965,0.00056510937
1354.5119090556127,1354.5119090556127,0.9977123,0.00056495075
1354.5132979755926,1354.5132979755926,0.99704206,0.0005648406
1354.5146868955721,1354.5146868955721,0.9977235,0.00056508277
1354.5160758155532,1354.5160758155532,0.99762017,0.00056500145
1354.5174647355343,1354.5174647355343,0.99722654,0.0005649983
1354.5188536555138,1354.5188536555138,0.9966221,0.00056477595
1354.520242575494,1354.520242575494,0.99758303,0.00056506763
1354.521631495475,1354.521631495475,0.99628246,0.00056466635
1354.523020415456,1354.523020415456,0.9974404,0.0005649911
1354.5244093354368,1354.5244093354368,0.99769413,0.0005650643
1354.5257982554162,1354.5257982554162,0.9965072,0.0005647184
1354.5271871756295,1354.5271871756295,0.99721646,0.00056498236
1354.5285760956103,1354.5285760956103,0.9969506,0.00056490843
1354.5299650155903,1354.5299650155903,0.9971331,0.0005649025
1354.5313539355707,1354.5313539355707,0.9975309,0.0005648941
1354.532742855551,1354.532742855551,0.99800014,0.0005651674
1354.534131775532,1354.534131775532,0.9977984,0.0005650836
1354.5355206955128,1354.5355206955128,0.99589986,0.00056453876
1354.5369096154932,1354.5369096154932,0.9965146,0.0005648473
1354.5382985354731,1354.5382985354731,0.99664575,0.00056487974
1354.5396874554535,1354.5396874554535,0.9972033,0.000564898
1354.5410763754337,1354.5410763754337,0.9967282,0.0005647148
1354.542465295182,1354.542465295182,0.9981513,0.00056510966
1354.5438542151628,1354.5438542151628,0.9978649,0.00056509185
1354.5452431351428,1354.5452431351428,0.9973995,0.00056501955
1354.5466320551232,1354.5466320551232,0.99738693,0.0005649335
1354.5480209751036,1354.5480209751036,0.99656165,0.00056472234
1354.5494098950844,1354.5494098950844,0.99628896,0.00056465087
1354.5507988150644,1354.5507988150644,0.9974026,0.0005650099
1354.552187735044,1354.552187735044,0.99720156,0.0005648999
1354.5535766550252,1354.5535766550252,0.9965275,0.0005647142
1354.554965575006,1354.554965575006,0.99736714,0.00056491845
1354.5563544949869,1354.5563544949869,0.996873,0.0005648744
1354.5577434149673,1354.5577434149673,0.9972231,0.00056498713
1354.5591323349468,1354.5591323349468,0.9966726,0.0005647922
1354.5605212549276,1354.5605212549276,0.99643296,0.0005646481
1354.5619101746756,1354.5619101746756,0.99732155,0.00056495477
1354.5632990946551,1354.5632990946551,0.9966525,0.00056477997
1354.5646880146355,1354.5646880146355,0.9966408,0.00056473765
