time,time,flux,flux_err
1385.9533273679729,1385.9533273679729,1.0005263713409123,0.0006474186722615251
1385.9616608796696,1385.9616608796696,1.0002821239578916,0.0006472699658281149
1385.9699943913267,1385.9699943913267,0.9989996453655885,0.0006469472945734884
1385.9783279028868,1385.9783279028868,1.0003587015976485,0.000647130846142576
1385.9859669552138,1385.9859669552138,1.0000225940161651,0.0005906524790718821
1385.9929115480852,1385.9929115480852,0.9992176646501811,0.0005905111696437695
1385.9998561409338,1385.9998561409338,0.9998792906955971,0.0005906033663916569
1386.0068007337827,1386.0068007337827,0.9997707514136742,0.0005905763284657308
1386.0137453265847,1386.0137453265847,0.9997332263419636,0.0005905022920290976
1386.0206899193395,1386.0206899193395,1.0005625518131755,0.0005906675088640274
1386.027634512049,1386.027634512049,1.0001379576929958,0.0005905043793511302
1386.0345791047343,1386.0345791047343,1.000958218699529,0.0005906444002182275
1386.041523697373,1386.041523697373,0.9997809557668198,0.000590390437292293
1386.0484682899428,1386.0484682899428,0.9996946819246648,0.0005903590501104739
1386.0554128824886,1386.0554128824886,0.9994832906910911,0.0005904089455528922
1386.0623574750339,1386.0623574750339,1.0004833388729892,0.0005905552761861093
1386.0693020675103,1386.0693020675103,1.0001355915617247,0.0005906196144725227
1386.0762466599401,1386.0762466599401,1.0001451301570061,0.0005905276675282389
1386.0831912523456,1386.0831912523456,0.9990789701161791,0.0005904070249774115
1386.090135844682,1386.090135844682,1.000955107549173,0.000590745860593337
1386.0970804370186,1386.0970804370186,0.9995257901295099,0.0005904518581830079
1386.1040250293313,1386.1040250293313,0.9991595033086043,0.0005904249585925476
1386.1109696215512,1386.1109696215512,0.9998553513165817,0.0005904994425989277
1386.1179142137482,1386.1179142137482,1.0002014125029592,0.00059055568451804
1386.1248588059448,1386.1248588059448,1.0006526812619316,0.0005906922773037755
1386.1318033980474,1386.1318033980474,0.9998904887068111,0.0005905260859543904
1386.1387479901284,1386.1387479901284,1.0005521940624402,0.0005905876961737071
1386.1456925821853,1386.1456925821853,1.0005429114303304,0.0005907698118577836
1386.1526371741952,1386.1526371741952,0.9995707500876824,0.0005904208883308219
1386.159581766183,1386.159581766183,0.9993972575738341,0.0005903492034835524
1386.1665263581003,1386.1665263581003,1.000465102068885,0.0005905776423705713
1386.1734709499933,1386.1734709499933,1.0000893451966777,0.0005905630123432006
1386.180415541841,1386.180415541841,0.9999049391486053,0.0005905494661194489
1386.1873601336656,1386.1873601336656,0.9998986298956203,0.0005905224929665002
1386.1943047254192,1386.1943047254192,0.9993615833909528,0.0005903465197716492
1386.2012493171737,1386.2012493171737,0.999234645411487,0.0005902553430392172
1386.208193908858,1386.208193908858,1.000722055766881,0.0005906826421878512
1386.2151385005193,1386.2151385005193,1.0004545138132697,0.0005904914681592848
1386.2220830921335,1386.2220830921335,0.9998671404617994,0.0005903629797541826
1386.229027683702,1386.229027683702,0.999781458148739,0.0005903633162796796
1386.2359722752467,1386.2359722752467,1.0002597937579991,0.00059046739712344
1386.242916866744,1386.242916866744,1.0000404295151306,0.0005904994897234096
1386.2498614581962,1386.2498614581962,1.0002834297575358,0.0005905896588762186
1386.2568060496249,1386.2568060496249,1.0005347635136854,0.0005906678925414262
1386.2637506410288,1386.2637506410288,1.0002280480704377,0.0005906118750554402
1386.2706952323415,1386.2706952323415,0.999641039048145,0.0005904381313099787
1386.2776398236533,1386.2776398236533,0.9994754939926247,0.0005904642443445606
1386.2845844149183,1386.2845844149183,0.9990003023412978,0.0005904176763313845
1386.291529006137,1386.291529006137,1.0006583974922503,0.0005908123739348298
1386.2984735973096,1386.2984735973096,1.0000898701495509,0.0005906786999333783
1386.3054181884818,1386.3054181884818,0.9994220029629546,0.0005905236078422343
1386.3123627795835,1386.3123627795835,1.0002128092898794,0.0005907760604149188
1386.3193073706627,1386.3193073706627,1.0005798242119395,0.000590665926356155
1386.3262519616956,1386.3262519616956,1.0002821004480504,0.0005907187343720283
1386.3331965526575,1386.3331965526575,0.9997142288901685,0.0005905333629995576
1386.3401411436207,1386.3401411436207,0.9997367043022708,0.0005904349000220365
1386.3470857345606,1386.3470857345606,1.0000395338673602,0.0005904819672834518
1386.354030325429,1386.354030325429,1.0001088715618671,0.000590643024660969
1386.3609749162524,1386.3609749162524,1.0004823442017041,0.0005906567109430774
1386.3690306415701,1386.3690306415701,1.0007310896371395,0.0005906336679702035
1386.3762530159458,1386.3762530159458,0.9985719942968411,0.0005903478986462641
1386.3831976066529,1386.3831976066529,1.0000470991780868,0.0005906816324556648
1386.390142197313,1386.390142197313,1.000147339663863,0.0005906649335536071
1386.3970867879962,1386.3970867879962,1.0002458180007168,0.000590580237826171
1386.4040313785858,1386.4040313785858,1.0001959246327465,0.0005905685754082079
1386.4109759691066,1386.4109759691066,0.9991686105191272,0.0005903445606724548
1386.4179205596267,1386.4179205596267,0.9994409687968213,0.0005904163670784252
1386.4248651501,1386.4248651501,1.0012552010068578,0.0005907642206252616
1386.4318097405273,1386.4318097405273,0.9997721039221176,0.0005905434404492663
1386.4387543309085,1386.4387543309085,0.9999444272877531,0.0005904107115169388
1386.445698921288,1386.445698921288,1.0004480166158065,0.000590530130606751
1386.4526435115758,1386.4526435115758,1.000225856760055,0.0005904449972956593
1386.4595881018872,1386.4595881018872,1.0001943849189279,0.0005904672149870898
1386.4665326921274,1386.4665326921274,0.9989695279742412,0.0005901168437977708
1386.4734772823217,1386.4734772823217,0.9987393962332021,0.000589929292104683
1386.480421872493,1386.480421872493,1.0003951528439003,0.0005904516685967535
1386.4873664626173,1386.4873664626173,1.001098586566472,0.0005905589428607087
1386.494311052695,1386.494311052695,0.9996509788754118,0.0005902994169538731
1386.501255642773,1386.501255642773,1.0008732356248449,0.0005905222054429676
1386.5082002327813,1386.5082002327813,1.0001287430205934,0.0005904542610188846
1386.5151448226954,1386.5151448226954,1.000378201269041,0.0005905018140396287
1386.5220894126574,1386.5220894126574,0.9994099212723526,0.0005902752288578416
1386.5290340025263,1386.5290340025263,0.9995278771222663,0.0005902869388536635
1386.535978592394,1386.535978592394,0.9994565155826629,0.0005902816941303873
1386.5429231821922,1386.5429231821922,1.0003179122064338,0.0005905880613106412
1386.5498677719681,1386.5498677719681,1.000046260562239,0.0005906501341470009
1386.5568123616965,1386.5568123616965,1.0000856317684939,0.0005906445574180158
1386.5645903021557,1386.5645903021557,1.0001585839634513,0.0005905304352480928
1386.5720904589925,1386.5720904589925,0.999541961773669,0.0005904680093821938
1386.5790350485818,1386.5790350485818,1.0002237979482242,0.0005904824110505161
1386.5859796381465,1386.5859796381465,1.0001816638230614,0.0005905273491658567
1386.592924227689,1386.592924227689,1.0001235489841622,0.0005905676554309077
1386.5998688171621,1386.5998688171621,1.0001076426348992,0.0005906153704073416
1386.6068134065877,1386.6068134065877,0.9996613836603286,0.0005905965517744804
1386.6137579960136,1386.6137579960136,0.9998188665306319,0.0005905548525188479
1386.6207025854396,1386.6207025854396,1.000813673577287,0.0005909154273073083
1386.6276471747492,1386.6276471747492,1.0008710913477858,0.0005908122598339714
1386.6345917640351,1386.6345917640351,0.9993662468434724,0.0005903996611204634
1386.6415363533217,1386.6415363533217,0.9987988805250898,0.0005904672365392315
1386.648480942515,1386.648480942515,1.0000966175368,0.000590508317991488
1386.6554255317308,1386.6554255317308,1.0001468237634676,0.0005905606566549335
1386.6623701208543,1386.6623701208543,1.000070407408406,0.0005906846820730787
1386.6693147099547,1386.6693147099547,1.0004103538463107,0.0005905899637839219
1386.6762592990308,1386.6762592990308,1.0014134467998381,0.0005908187241526294
1386.683203888038,1386.683203888038,1.0002276990229684,0.0005905940622199355
1386.6901484770217,1386.6901484770217,0.9991160355304158,0.0005904291082621191
1386.6970930659818,1386.6970930659818,0.9999064745047901,0.0005906528848895487
1386.7040376548716,1386.7040376548716,0.999417847070467,0.000590544075837782
1386.710982243786,1386.710982243786,1.000891223992963,0.0005908182450434484
1386.7179268325838,1386.7179268325838,1.0002748104645975,0.0005906333609442
1386.724871421357,1386.724871421357,0.9996815756854394,0.0005905650056230444
1386.7318160101077,1386.7318160101077,0.9990935331652251,0.0005904454320984039
1386.7387605988358,1386.7387605988358,0.9999423931130138,0.000590485554213987
1386.745705187493,1386.745705187493,0.9999903502554781,0.0005906045258943285
1386.752649776127,1386.752649776127,1.0002213457054843,0.0005906869652419807
1386.7595943647389,1386.7595943647389,0.9999148415905765,0.0005905371017820708
1386.7665389532801,1386.7665389532801,1.0007921326895408,0.0005907228221506522
1386.7743168924353,1386.7743168924353,0.9992758930780093,0.0005902031347105112
1386.781817047968,1386.781817047968,1.000259567526895,0.0005905507571633921
1386.7887616364164,1386.7887616364164,1.0000755589886616,0.000590338852190447
1386.795706224794,1386.795706224794,0.9997737899647353,0.0005902825723854328
1386.802650813149,1386.802650813149,1.0000085624358128,0.0005905306071670393
1386.8095954014575,1386.8095954014575,1.0005186321954762,0.0005905803407824593
1386.8165399897894,1386.8165399897894,1.000513644543756,0.0005905696342549066
1386.8234845779575,1386.8234845779575,1.0002405712622133,0.0005905763721772653
1386.8304291661966,1386.8304291661966,0.9995910663383754,0.0005903549237453446
1386.837373754342,1386.837373754342,0.9994294604083075,0.0005903797166172093
1386.8443183424404,1386.8443183424404,0.9995461125873618,0.0005904976391770465
1386.8512629305626,1386.8512629305626,1.0007153279484813,0.0005906985851748105
1386.8582075185689,1386.8582075185689,0.9989685537818879,0.0005902337717938865
1386.8651521065972,1386.8651521065972,0.9995340555313608,0.0005903374113386009
1386.8720966945564,1386.8720966945564,1.000813109533616,0.0005907983502835966
1386.8790412824692,1386.8790412824692,0.9997834761695679,0.0005904928896567143
1386.8859858703586,1386.8859858703586,1.0003793881143777,0.0005907377304830484
1386.8929304582005,1386.8929304582005,1.0002257150087175,0.0005906382130885367
1386.8998750460205,1386.8998750460205,1.00044607571665,0.0005906200741349356
1386.906819633817,1386.906819633817,1.000424754140171,0.0005907382215613374
1386.9137642214966,1386.9137642214966,1.0000678456645233,0.0005906600704590278
1386.9207088091757,1386.9207088091757,0.9990967389178425,0.0005903944553498134
1386.9276533968562,1386.9276533968562,0.9997118316395422,0.0005905574170745097
1386.9345979844895,1386.9345979844895,0.999861002496192,0.0005905533615370418
1386.941542572052,1386.941542572052,1.0004221509734317,0.0005907281306649237
1386.9484871595926,1386.9484871595926,0.9998571513745645,0.0005906301436841498
1386.9554317471093,1386.9554317471093,0.9996664058656565,0.0005905663195794398
1386.9623763345558,1386.9623763345558,1.000033485477426,0.0005908912719234363
1386.9693209219795,1386.9693209219795,0.9999100399191384,0.0005906486134487404
1386.9762655093568,1386.9762655093568,1.0006095842349467,0.0005907490249921157
1386.9845990141534,1386.9845990141534,1.0005577004939272,0.0005907719050250451
1386.9915436014603,1386.9915436014603,0.9996693356492207,0.0005904721783681538
1386.998488188721,1386.998488188721,0.9991877649710525,0.0005903935396246706
1387.0054327759358,1387.0054327759358,1.0002420656739432,0.0005906664022397401
1387.0123773631256,1387.0123773631256,0.9988877839160569,0.0005903175565048661
1387.01932195027,1387.01932195027,1.0001463792987835,0.0005905355672899446
1387.026266537368,1387.026266537368,1.00027861855648,0.0005906699693461442
1387.0332111244425,1387.0332111244425,1.0001853993824645,0.0005905899361255006
1387.0401557114462,1387.0401557114462,1.0000480497533673,0.0005906049680388088
1387.0471002984516,1387.0471002984516,0.9992788673614479,0.0005906078400366867
1387.0540448853633,1387.0540448853633,1.000679121625323,0.0005907505024607496
1387.060989472274,1387.060989472274,1.0007228231027343,0.000590838932009788
1387.0679340591619,1387.0679340591619,0.9996707547847483,0.0005906232054610581
1387.0748786459806,1387.0748786459806,1.0002110689803163,0.0005907140656793556
1387.0818232327758,1387.0818232327758,0.9993200013053574,0.0005906663534819723
1387.088767819547,1387.088767819547,0.9997580997172195,0.0005906651660932346
1387.095712406249,1387.095712406249,0.9995084928564625,0.0005906932081123104
1387.102656992928,1387.102656992928,1.000011439497794,0.0005907374675808347
1387.1096015795592,1387.1096015795592,1.0004477681883555,0.0005907946671007663
1387.116546166145,1387.116546166145,0.9998358786121765,0.000590546598831216
1387.1234907526843,1387.1234907526843,1.0008115888666427,0.0005907868066202703
1387.130435339223,1387.130435339223,0.9998833862307478,0.0005906190705425052
1387.1373799256914,1387.1373799256914,0.999360033621822,0.0005903824218519392
1387.1443245121607,1387.1443245121607,0.9999120510402895,0.0005904585293013336
1387.1512690985605,1387.1512690985605,1.0002584999467137,0.0005904984828734006
1387.1582136849358,1387.1582136849358,0.9999797687172485,0.0005903306921073289
1387.1651582712418,1387.1651582712418,0.9991546705739734,0.0005901489110753535
1387.172102857525,1387.172102857525,1.0008761302530682,0.000590678624373427
1387.1790474437614,1387.1790474437614,0.9998630610071277,0.0005903458651166751
1387.1859920299964,1387.1859920299964,1.0012388250515574,0.00059081361862842
1387.1929366161403,1387.1929366161403,0.9999828587468684,0.0005904295197213405
1387.1998812022834,1387.1998812022834,1.0001218851550455,0.0005905148767485015
1387.2068257883798,1387.2068257883798,0.99994641909549,0.0005904188752288584
1387.2137703744295,1387.2137703744295,0.9989929232530372,0.0005903456216712541
1387.2207149604565,1387.2207149604565,0.9992464256229493,0.000590311840791952
1387.2276595464368,1387.2276595464368,0.9993470611943277,0.0005903845070886809
1387.2346041323697,1387.2346041323697,1.0003224818947207,0.0005906937724353049
1387.24154871828,1387.24154871828,1.0015823359862743,0.0005909496137027044
1387.248493304121,1387.248493304121,0.9999382192247837,0.0005904144156890585
1387.255437889938,1387.255437889938,0.9997563543141605,0.0005905097310441335
1387.262382475708,1387.262382475708,1.0000215113517439,0.0005904372713373278
1387.2693270614557,1387.2693270614557,1.0001440124510665,0.0005905181621837106
1387.2762716471798,1387.2762716471798,0.9996250835218566,0.0005903795605886924
1387.2832162328332,1387.2832162328332,0.9996658058057625,0.0005903807752138334
1387.2901608184643,1387.2901608184643,0.9993454160374817,0.0005903125399406285
1387.2971054040488,1387.2971054040488,1.000781602285116,0.0005906220212712557
1387.30404998961,1387.30404998961,1.0001867604228611,0.0005905415927314814
1387.3126612756314,1387.3126612756314,1.0004709234686602,0.0005905037386444975
1387.3207169947557,1387.3207169947557,1.000481184287077,0.0005906425815374147
1387.3276615801544,1387.3276615801544,0.9988508465279187,0.0005902661865876801
1387.335995082575,1387.335995082575,1.0003768959351114,0.0005905075460565517
1387.3429396679269,1387.3429396679269,1.0001222358001531,0.0005905600952372012
1387.3507176034745,1387.3507176034745,1.0000463269888882,0.0005904307437135943
1387.358217755537,1387.358217755537,0.9998655614471167,0.0005904440175249948
1387.3651623407488,1387.3651623407488,0.9997033125502526,0.0005904833237861175
1387.3721069259377,1387.3721069259377,0.999437536434146,0.0005904063326425877
1387.3790515110563,1387.3790515110563,1.0001120172595688,0.0005905548353548945
1387.3859960961506,1387.3859960961506,1.0000212312122545,0.0005904531551007987
1387.3929406812001,1387.3929406812001,1.0005556264636193,0.0005906894762902206
1387.3998852662257,1387.3998852662257,1.000786161356115,0.0005907306837148719
1387.406829851181,1387.406829851181,1.0003513909035588,0.0005908124772274971
1387.413774436113,1387.413774436113,0.9996263353097483,0.0005905438719826329
1387.4207190210227,1387.4207190210227,0.9992833739632712,0.0005904337636793938
1387.4276636058623,1387.4276636058623,1.0003066167819203,0.0005906242445054522
1387.434608190724,1387.434608190724,0.9991335042411471,0.0005903153708062199
1387.4415527754932,1387.4415527754932,0.999485708207122,0.0005905455045702838
1387.44849736024,1387.44849736024,0.999858223078957,0.0005904948659097508
1387.4554419449164,1387.4554419449164,1.0006446291860347,0.0005908181058002582
1387.462386529592,1387.462386529592,1.0007249198617552,0.0005907602074891437
1387.4693311141987,1387.4693311141987,1.0003046827989048,0.000590565390332323
1387.4762756988052,1387.4762756988052,1.0001193104775064,0.0005903822264117016
1387.4832202833416,1387.4832202833416,1.000084598001657,0.0005903792919243087
1387.4901648678547,1387.4901648678547,0.9993186524575881,0.0005900800865583728
1387.4971094523448,1387.4971094523448,0.9998123447895614,0.0005903737408443795
1387.5040540367654,1387.5040540367654,1.0003948714261122,0.0005903961384949037
1387.5109986211614,1387.5109986211614,0.9999262011833961,0.0005903675016871219
1387.5179432054886,1387.5179432054886,0.9998960254336866,0.0005904489461948586
1387.5248877898161,1387.5248877898161,1.0001518214376692,0.0005905317011988167
1387.5318323741199,1387.5318323741199,1.0000360436345026,0.0005904196983079023
1387.5387769583067,1387.5387769583067,0.9996667552992669,0.0005902720663886544
1387.545721542494,1387.545721542494,1.00008384842228,0.000590384177726661
1387.5526661266817,1387.5526661266817,0.9997397670519664,0.0005903243711325389
1387.5596107108222,1387.5596107108222,1.0004701097248612,0.0005904193955979706
1387.5665552948929,1387.5665552948929,1.000024715950532,0.0005903684886692736
1387.5734998789408,1387.5734998789408,0.999568122516995,0.0005902654470031289
1387.5804444629653,1387.5804444629653,1.0005266196392548,0.0005903601289291206
1387.587389046919,1387.587389046919,0.9999030372486635,0.000590430200315273
1387.5943336308505,1387.5943336308505,0.9996654754919485,0.0005903589267159232
1387.6012782147354,1387.6012782147354,1.0002841897169188,0.0005905416160951009
1387.6082227985967,1387.6082227985967,0.9997523803400707,0.0005904552242124324
1387.6151673823874,1387.6151673823874,0.9997576363391187,0.0005904619159018264
1387.6221119661793,1387.6221119661793,1.0005880259944375,0.0005906704917499918
1387.6290565499016,1387.6290565499016,1.0002060263388486,0.0005905703685449133
1387.6360011335764,1387.6360011335764,0.9998852014323951,0.000590581062408317
1387.6429457172744,1387.6429457172744,0.9996901883506645,0.0005904706860323841
1387.64989030088,1387.64989030088,0.999744065261383,0.0005904411024152561
1387.6568348844855,1387.6568348844855,0.9996205137180866,0.0005902444515882752
1387.6637794679734,1387.6637794679734,0.9997064446024453,0.0005903467332842012
1387.6707240514859,1387.6707240514859,1.0004620582738273,0.0005905750830941613
1387.6776686349515,1387.6776686349515,1.0006281286783922,0.0005904984481138255
1387.684613218371,1387.684613218371,1.0003474433839181,0.0005904103604458799
1387.6915578017656,1387.6915578017656,0.9990174489396526,0.0005900991485315683
1387.6985023850916,1387.6985023850916,0.999901924092703,0.0005904354673548246
1387.7054469684178,1387.7054469684178,0.9999179843062354,0.0005905025279804423
1387.712391551674,1387.712391551674,0.9997644220989441,0.000590352294024658
1387.7193361349057,1387.7193361349057,1.000311096690255,0.0005905025359113761
1387.726280718116,1387.726280718116,0.9993941598716454,0.0005902528945537072
1387.733225301256,1387.733225301256,1.0001541650484198,0.0005904048583550279
