time,time,flux,flux_err
1325.302521845202,1325.302521845202,0.9994934776062107,0.0002933446693186446
1325.3108553400864,1325.3108553400864,0.9999991008426189,0.00029344793450786065
1325.3191888349327,1325.3191888349327,0.999868268386335,0.00029350041807503816
1325.3268278718099,1325.3268278718099,1.0002068296834072,0.00026800786229322403
1325.3337724507342,1325.3337724507342,0.9999745091534891,0.0002680148698851068
1325.3407170296118,1325.3407170296118,1.000056174863917,0.0002680994113508249
1325.34766160849,1325.34766160849,0.9997601149195677,0.00026811865976637025
1325.3546061873212,1325.3546061873212,0.9999055096841817,0.00026820436855197287
1325.361550766106,1325.361550766106,1.00014675061073,0.00026830990951783127
1325.3684953448442,1325.3684953448442,1.0000652259164542,0.0002683842084166017
1325.3754399235356,1325.3754399235356,0.9995323247429002,0.00026838628665087704
1325.382384502181,1325.382384502181,1.0001929784715062,0.00026852529904457907
1325.3893290807794,1325.3893290807794,1.0000905456518387,0.00026858699032955596
1325.3962736593778,1325.3962736593778,0.9999240654663177,0.00026864901564678506
1325.4032182379294,1325.4032182379294,0.9998224838211526,0.0002687191032336488
1325.4101628164817,1325.4101628164817,1.000105845811621,0.00026878296776957895
1325.4171073948935,1325.4171073948935,1.0002058747368623,0.0002688486973348119
1325.424051973399,1325.424051973399,0.9997385544836253,0.0002688336858970872
1325.4309965517646,1325.4309965517646,0.9998453209476944,0.0002688967627007623
1325.4379411301302,1325.4379411301302,1.000090758727254,0.0002689727562338499
1325.4448857084494,1325.4448857084494,1.0000427617376673,0.00026898169160427315
1325.451830286815,1325.451830286815,0.9996782029714579,0.00026899429397055964
1325.4587748649942,1325.4587748649942,1.0002316707329815,0.0002690963382050415
1325.4657194433132,1325.4657194433132,0.9997795918534536,0.00026907961883369097
1325.472664021446,1325.472664021446,1.0005578063282492,0.00026920843390741873
1325.479608599579,1325.479608599579,0.9997581239545321,0.0002691386618907971
1325.4865531777116,1325.4865531777116,1.0003047883071683,0.00026921690888442277
1325.4934977558446,1325.4934977558446,0.9995715625868972,0.0002691689576715479
1325.5004423339774,1325.5004423339774,0.9999123349076747,0.00026922331720067644
1325.5073869119703,1325.5073869119703,1.0001682469456927,0.0002693039465460983
1325.5143314900101,1325.5143314900101,0.999905033008915,0.0002692887703382796
1325.5212760679565,1325.5212760679565,1.0000066570628863,0.0002692937647745404
1325.5282206459033,1325.5282206459033,0.9998066705742689,0.0002693372243514432
1325.535165223803,1325.535165223803,1.0001514057417098,0.00026939048724396685
1325.5421098017027,1325.5421098017027,0.9999429723337411,0.0002694187545830278
1325.5490543795568,1325.5490543795568,1.0001277333115408,0.00026945221036531246
1325.5559989573633,1325.5559989573633,1.0002501331829514,0.00026946361331782546
1325.5629435351705,1325.5629435351705,0.9997262472296574,0.0002694633092465685
1325.569888112884,1325.569888112884,0.9999157530516121,0.00026948721061194596
1325.576832690644,1325.576832690644,1.0002251847115575,0.00026954542260434626
1325.5837772683583,1325.5837772683583,1.0001497674172835,0.0002695636792461321
1325.590721846025,1325.590721846025,0.9997559932714027,0.0002695720437015128
1325.597666423692,1325.597666423692,0.9998264338509812,0.0002695610980440645
1325.6046110013128,1325.6046110013128,0.9999502593189613,0.0002696028641788137
1325.6115555789333,1325.6115555789333,1.000111584229268,0.0002696852479388016
1325.6185001564609,1325.6185001564609,1.0000054749109568,0.0002696442260328131
1325.6254447339882,1325.6254447339882,0.9996618600234741,0.0002696170197632749
1325.632389311469,1325.632389311469,1.0000281377870017,0.0002696299020424562
1325.63933388895,1325.63933388895,0.999896531666154,0.00026961526229473504
1325.646278466384,1325.646278466384,0.9998721076177011,0.00026964816977210224
1325.6532230438186,1325.6532230438186,1.0000469518411055,0.0002696255684865728
1325.6601676212063,1325.6601676212063,0.9999436425160138,0.00026963585615924745
1325.6671121985942,1325.6671121985942,1.00016034459892,0.0002696721081212502
1325.6740567758884,1325.6740567758884,1.0002069728390437,0.0002696680067627367
1325.68100135323,1325.68100135323,1.0003966007900824,0.0002696970565266944
1325.6879459304778,1325.6879459304778,1.0001514680549197,0.00026967834418524256
1325.6948905077725,1325.6948905077725,0.9993147957695039,0.00026959070619339
1325.7018350849744,1325.7018350849744,0.9996481561420163,0.0002696549815344025
1325.7087796621759,1325.7087796621759,1.0001456124397161,0.00026972515622705463
1325.7157242393303,1325.7157242393303,0.999726785582455,0.000269719268295384
1325.722668816532,1325.722668816532,1.0003080804921456,0.0002698404309006093
1325.7296133936402,1325.7296133936402,0.9998935047709858,0.0002698349220574489
1325.7365579707018,1325.7365579707018,1.0003634653651812,0.000269952641622748
1325.743502547764,1325.743502547764,1.0001731094522541,0.0002699630521301304
1325.7504471248717,1325.7504471248717,1.000270210063401,0.0002699622977973273
1325.7573917018408,1325.7573917018408,0.9996654692750809,0.000269962069419968
1325.7643362788094,1325.7643362788094,0.9996229178641103,0.00027000114478829574
1325.7712808557778,1325.7712808557778,0.9999177856642563,0.00027009933811514487
1325.7782254327467,1325.7782254327467,1.000184353189165,0.00027019089125167653
1325.785170009715,1325.785170009715,1.0002231362544094,0.0002702539371102062
1325.7921145864511,1325.7921145864511,0.9999341014336419,0.0002702860402544962
1325.79905916342,1325.79905916342,1.000183644187309,0.0002703757525316979
1325.8060037401558,1325.8060037401558,0.9998836974229629,0.00027036063366271554
1325.8129483170314,1325.8129483170314,0.999991132135376,0.0002704394773803337
1325.8198928938134,1325.8198928938134,1.0000100758167705,0.00027049215301109386
1325.8268374705494,1325.8268374705494,0.999841647554543,0.0002704828346243651
1325.8337820472852,1325.8337820472852,0.9997657951111247,0.00027048329826691585
1325.8407266239744,1325.8407266239744,0.9999358699619568,0.0002705319866513589
1325.8476712006639,1325.8476712006639,0.9999886164786004,0.00027057055328993034
1325.854615777306,1325.854615777306,1.0001064171412013,0.00027058103304762355
1325.8615603539492,1325.8615603539492,1.0003624478832696,0.00027061453110424573
1325.8685049305452,1325.8685049305452,1.0001331703691478,0.00027055732454644353
1325.8754495071414,1325.8754495071414,0.9995748843214249,0.00027047410005140015
1325.882394083691,1325.882394083691,1.0003055779744243,0.00027053339600394187
1325.889338660194,1325.889338660194,1.0001201579748213,0.00027052529518521826
1325.8962832366967,1325.8962832366967,0.9998050017948927,0.00027047717292468535
1325.9032278131535,1325.9032278131535,1.0000156221505712,0.00027047204394681137
1325.9101723896097,1325.9101723896097,0.9997998645791009,0.00027043413823795044
1325.9171169660196,1325.9171169660196,1.0001132064889866,0.00027045979716783404
1325.9240615423828,1325.9240615423828,1.0000048572691729,0.000270434493546247
1325.931006118793,1325.931006118793,1.0000948065766042,0.0002704502136038335
1325.937950695156,1325.937950695156,0.9996941219608741,0.00027042060083534616
1325.944895271473,1325.944895271473,0.9997982580090043,0.00027041559672957806
1325.9518398477896,1325.9518398477896,1.0005548620405125,0.00027050519864431626
1325.95878442406,1325.95878442406,0.9999870673838822,0.00027046439156091167
1325.9665623494734,1325.9665623494734,1.0002561968293122,0.00027047908346102635
1325.9740624917608,1325.9740624917608,0.9997663252004123,0.00027044600361529175
1325.9810070679846,1325.9810070679846,0.9995489426191362,0.00027041303653804803
1325.9879516440683,1325.9879516440683,1.0002694302852255,0.00027052433432644556
1325.9948962202918,1325.9948962202918,0.9998276255135389,0.00027049039335456314
1326.001840796376,1326.001840796376,0.999877459341624,0.00027051929341108556
1326.0087853724594,1326.0087853724594,1.0001277877907706,0.000270615037338482
1326.0157299484972,1326.0157299484972,1.0002059536924972,0.0002706577977182405
1326.0226745245811,1326.0226745245811,1.0000658712426826,0.0002707095818669823
1326.029619100572,1326.029619100572,1.0001764292691955,0.00027076612986641697
1326.0365636765625,1326.0365636765625,0.9999113134801814,0.00027076374390832094
1326.0435082525066,1326.0435082525066,1.0000132780291444,0.0002707607051563929
1326.0504528284978,1326.0504528284978,0.9998587290678793,0.0002707604350337286
1326.057397404302,1326.057397404302,0.9999860495308337,0.0002707993770005229
1326.0643419803393,1326.0643419803393,1.0001943676166132,0.00027081994269245545
1326.071286556144,1326.071286556144,0.9996699851218376,0.000270784599295461
1326.0782311319479,1326.0782311319479,0.9997710069454083,0.0002708338850757674
1326.0851757077533,1326.0851757077533,1.0003707938867092,0.00027092806884323957
1326.0921202835573,1326.0921202835573,0.9999854576897821,0.0002708882112654373
1326.099064859362,1326.099064859362,0.9995474675583594,0.0002708460611500991
1326.1060094350269,1326.1060094350269,1.0006065143444227,0.00027098431023330686
1326.1129540107381,1326.1129540107381,0.9999822625997437,0.0002709244404627077
1326.119898586403,1326.119898586403,0.9998773301702553,0.0002709207171178291
1326.126843162114,1326.126843162114,0.9999573559939524,0.0002709406107975807
1326.1337877376861,1326.1337877376861,0.9996723555194613,0.000270917990626999
1326.140732313304,1326.140732313304,1.0003083445275618,0.00027097464009434244
1326.1476768888758,1326.1476768888758,0.9998995155348801,0.0002709426270059761
1326.1546214644475,1326.1546214644475,1.0001587677361414,0.00027099213774034215
1326.161566040019,1326.161566040019,0.9999159844454016,0.00027095759931089426
1326.1685106154514,1326.1685106154514,1.0001755124155483,0.0002709965957929787
1326.175455190976,1326.175455190976,1.0000748161206219,0.00027098090634589676
1326.1823997663619,1326.1823997663619,0.9998653292757232,0.0002709384242485295
1326.1893443417935,1326.1893443417935,0.9998228879783964,0.00027097897543079674
1326.196288917225,1326.196288917225,1.0002334676591567,0.00027102899456808396
1326.2032334926112,1326.2032334926112,0.9999217135535672,0.0002709893613725122
1326.2101780679498,1326.2101780679498,0.9998913765978141,0.0002709956197803412
1326.2171226432424,1326.2171226432424,1.000423214251152,0.0002710718159174216
1326.2240672185344,1326.2240672185344,0.99986588866833,0.000271007337851057
1326.2310117938266,1326.2310117938266,0.9999044213814502,0.00027101353700360024
1326.2379563691188,1326.2379563691188,1.0000006567102369,0.0002709939529600135
1326.2449009443176,1326.2449009443176,0.9995046827786194,0.00027094665159952986
1326.2518455194245,1326.2518455194245,0.9999991653386406,0.0002710434498459576
1326.2587900946696,1326.2587900946696,1.0001233606340514,0.00027104480404248094
1326.265734669776,1326.265734669776,1.0001195472880122,0.00027108442268086334
1326.2726792448818,1326.2726792448818,1.0002357302273868,0.0002710614758001171
1326.2796238199412,1326.2796238199412,0.9999313750642222,0.0002710064016508151
1326.2865683950474,1326.2865683950474,1.0000103039433688,0.00027101717562329707
1326.2935129701068,1326.2935129701068,1.0003398746617571,0.0002710477079469177
1326.3004575450263,1326.3004575450263,0.9997671535631962,0.0002709854425723577
1326.3074021200857,1326.3074021200857,0.9997002670704696,0.00027098923707121386
1326.3143466950055,1326.3143466950055,1.000128389387364,0.000271064891887288
1326.3212912699255,1326.3212912699255,0.9999772029644707,0.0002711022633541122
1326.3282358447982,1326.3282358447982,1.0002002719322167,0.0002711163145202197
1326.3351804197187,1326.3351804197187,0.999832112250882,0.0002711206196148972
1326.3421249945452,1326.3421249945452,1.0002288909998176,0.00027116252717889914
1326.349625135343,1326.349625135343,1.0000029242441442,0.00027117710717645667
1326.3587919740544,1326.3587919740544,0.9998800293258044,0.0002711860856252829
1326.3657365488343,1326.3657365488343,0.9999131937428618,0.0002712256251645019
1326.3726811234749,1326.3726811234749,0.9995946803114478,0.0002712064624937246
1326.3796256983012,1326.3796256983012,1.0000245747429446,0.00027129204489877395
1326.3865702729884,1326.3865702729884,1.0001959648574092,0.0002712995892001688
1326.3935148476287,1326.3935148476287,1.0001834935503464,0.00027131503931339233
1326.400459422269,1326.400459422269,1.0003030392410015,0.0002713932071895108
1326.4074039967695,1326.4074039967695,0.9993722886269529,0.0002713118173287458
1326.414348571317,1326.414348571317,1.0005800749449674,0.00027149155437887577
1326.4212931459108,1326.4212931459108,0.9999401331682936,0.00027142454357509827
1326.4282377203647,1326.4282377203647,0.999743954895869,0.0002714653439293958
1326.4351822948652,1326.4351822948652,1.0000871454764926,0.000271478323117736
1326.442126869366,1326.442126869366,1.0002784914928045,0.00027154546497608584
1326.4490714437736,1326.4490714437736,0.999996999720846,0.0002715484263042239
1326.4560160181811,1326.4560160181811,0.999336094362565,0.00027152724328096507
1326.462960592542,1326.462960592542,1.0000087618082554,0.00027163814697458814
1326.4699051669027,1326.4699051669027,1.0002486198536342,0.0002716421433464395
1326.4768497412174,1326.4768497412174,1.0000921325181638,0.00027167625022985587
1326.4837943155321,1326.4837943155321,0.9999152081819649,0.00027167737190894
1326.4907388897996,1326.4907388897996,0.9998259591692287,0.0002717003435333139
1326.497683464021,1326.497683464021,1.0000444565299178,0.0002717233516658017
1326.504628038242,1326.504628038242,1.0002991634989784,0.00027177930230585297
1326.5115726124168,1326.5115726124168,1.0001863915107638,0.0002718074054709723
1326.5185171865448,1326.5185171865448,0.9999305051608086,0.0002718440932389
1326.5254617607197,1326.5254617607197,0.9999928509469378,0.00027187434621704995
1326.5324063348012,1326.5324063348012,0.9997534780823486,0.0002719136953413479
1326.539350908836,1326.539350908836,0.9999987967905744,0.0002719750943919602
1326.5462954829177,1326.5462954829177,1.000058402913179,0.00027201449952876015
1326.5532400569061,1326.5532400569061,0.9999632198800752,0.0002720381091290072
1326.5601846308946,1326.5601846308946,0.9999539840942742,0.00027212024476439955
1326.5671292048828,1326.5671292048828,1.0002247446560943,0.000272138883646129
1326.5740737788249,1326.5740737788249,1.000177810096244,0.00027212534595589687
1326.581018352674,1326.581018352674,0.999897686174579,0.000272112914387529
1326.5879629265223,1326.5879629265223,0.9999889386943954,0.00027217773656983634
1326.5949075004178,1326.5949075004178,0.9994409004189182,0.00027214921952190045
1326.6018520742198,1326.6018520742198,0.9998391803072384,0.00027220100527932685
1326.6087966480222,1326.6087966480222,0.9999967359007582,0.0002722203170043336
1326.6157412217776,1326.6157412217776,1.000505407836339,0.00027230299065539516
1326.622685795533,1326.622685795533,1.0002878191387174,0.00027231457138026467
1326.6296303692422,1326.6296303692422,1.000019035275547,0.00027229066787968256
1326.6365749429046,1326.6365749429046,0.9999652190529259,0.0002722835361283029
1326.6435195165207,1326.6435195165207,0.9997401683363414,0.00027227043518529613
1326.6504640902297,1326.6504640902297,1.0003002326190056,0.0002723086575209553
1326.6574086637058,1326.6574086637058,0.9994742844748161,0.0002722573219713598
1326.6643532373685,1326.6643532373685,0.9995102029308172,0.0002722748304983418
1326.671297810891,1326.671297810891,1.0002663705445014,0.00027231680309475887
1326.6782423843674,1326.6782423843674,1.0005295609415281,0.0002723208131808428
1326.6851869578436,1326.6851869578436,1.000041009153506,0.0002722477027861175
1326.693242663076,1326.693242663076,0.9999518395400351,0.0002722836473926171
1326.700465019398,1326.700465019398,1.00033522557568,0.00027226400407298374
1326.7074095927344,1326.7074095927344,0.9998398329191449,0.00027221622575715465
1326.7149097319957,1326.7149097319957,0.9997846945702147,0.00027216185324641334
1326.7226876541495,1326.7226876541495,0.9997644038127147,0.00027220058636773486
1326.7296322273928,1326.7296322273928,1.000099138654798,0.0002722226439335717
1326.7365768006362,1326.7365768006362,1.0003624816490304,0.0002722332732277675
1326.7435213738797,1326.7435213738797,1.0001816076972354,0.0002722005893918126
1326.750465947076,1326.750465947076,0.9995730450004461,0.00027212158620408685
1326.757410520273,1326.757410520273,0.9999975585694191,0.00027218647490089194
1326.7643550934233,1326.7643550934233,0.999931447278849,0.00027214704943981306
1326.7712996665268,1326.7712996665268,0.9996045096755392,0.0002721407334836565
1326.7782442396306,1326.7782442396306,0.9998046771440127,0.0002721107992192329
1326.7851888126877,1326.7851888126877,1.0003801523247333,0.0002722188574680749
1326.7921333856982,1326.7921333856982,1.000213958070022,0.0002721841705855579
1326.7990779587087,1326.7990779587087,1.0001854095227871,0.0002722369615478368
1326.806022531673,1326.806022531673,0.9999495767434519,0.00027220999060118743
1326.8129671046368,1326.8129671046368,0.9998323267678716,0.0002721985981417988
1326.8199116775072,1326.8199116775072,1.0001477135161845,0.00027225904210695633
1326.826856250425,1326.826856250425,1.000080585890571,0.0002722517212213186
1326.833800823249,1326.833800823249,0.9999544122047878,0.0002722418567415139
1326.8407453960738,1326.8407453960738,0.9999816280214707,0.0002722598429384253
1326.8476899688515,1326.8476899688515,1.000121158679593,0.00027232285641155915
1326.8546345415823,1326.8546345415823,1.0000823274218014,0.0002722975621946318
1326.86157911436,1326.86157911436,0.9998543374407587,0.0002722666629822714
1326.868523687045,1326.868523687045,0.9995023634506138,0.00027222003004817656
1326.8754682597296,1326.8754682597296,1.0003482816125382,0.0002722765942328508
1326.8824128323672,1326.8824128323672,0.9997542297136114,0.0002721871376433794
1326.8893574049591,1326.8893574049591,1.000000992519393,0.0002721735121417303
1326.8963019775501,1326.8963019775501,1.000138470468079,0.00027215805408138563
1326.9032465500952,1326.9032465500952,1.0003876247038324,0.00027213486133723417
1326.91019112264,1326.91019112264,1.0003410555670402,0.0002720778049757277
1326.9171356951385,1326.9171356951385,0.9997434858085772,0.00027196613073776936
1326.9240802675436,1326.9240802675436,0.9998434374411085,0.00027192208728524236
1326.931024840042,1326.931024840042,0.9996212400845443,0.00027182951749136006
1326.937969412354,1326.937969412354,1.000129298805946,0.0002718493340236894
1326.9449139846656,1326.9449139846656,0.9999774411762887,0.00027178559594650924
1326.951858557211,1326.951858557211,0.9994240351578618,0.00027168963917521843
1326.9588031294297,1326.9588031294297,1.0003152724104543,0.00027172969831090515
1326.9657477016021,1326.9657477016021,1.0002066962700118,0.0002716905795311275
1326.9726922739144,1326.9726922739144,1.0002528084460436,0.00027164036512154885
1326.9796368461793,1326.9796368461793,1.0000625200276336,0.00027160839251676524
1326.9865814183056,1326.9865814183056,1.0002480376445295,0.00027157866362841326
1326.9935259904778,1326.9935259904778,0.9999162603615076,0.00027151598801066466
1327.0004705626038,1327.0004705626038,0.999567409118247,0.00027146555047952164
1327.0074151347294,1327.0074151347294,0.9997655562663313,0.00027151665198449934
1327.0143597067622,1327.0143597067622,1.0001556494978732,0.00027154507113212053
1327.0213042787948,1327.0213042787948,1.0000763499678467,0.00027154389150208386
1327.0282488508274,1327.0282488508274,0.9998751487374948,0.0002715318022502848
1327.035193422767,1327.035193422767,1.000093569176195,0.00027158338589191737
1327.042137994706,1327.042137994706,1.0002283305919697,0.000271609847192449
1327.0490825666461,1327.0490825666461,1.0004062547129426,0.00027165066853894297
1327.0560271384923,1327.0560271384923,0.9999747286833169,0.0002716393575360789
1327.06380505897,1327.06380505897,0.9996867262326485,0.00027163495210841786
