time,time,flux,flux_err,quality,centroid_col,centroid_row
2384.4634632719535,2384.4634632719535,,,524288,886.0519559892102,560.8715006246488
2384.483895616526,2384.483895616526,237571.62,14.609055,0,886.0290003367884,560.870170852826
2384.5043280606405,2384.5043280606405,237553.08,14.617363,0,886.0075784379184,560.8701258777756
2384.5247603038224,2384.5247603038224,237540.27,14.625834,0,885.9875167680315,560.8687277244495
2384.5451926469977,2384.5451926469977,237583.94,14.632764,0,885.9702136196587,560.8687998329034
2384.56562508925,2384.56562508925,237594.31,14.635358,0,885.9526989881629,560.8666907745929
2384.5860573315003,2384.5860573315003,237621.36,14.640085,0,885.9353966032933,560.864670726424
2384.6064896732787,2384.6064896732787,237588.02,14.644222,0,885.9215646750315,560.8622238068027
2384.626922114134,2384.626922114134,237540.73,14.644013,0,885.9078897173573,560.8596349391597
2384.6473543549873,2384.6473543549873,237572.4,14.648706,0,885.8908813586257,560.8584183792891
2384.667786794904,2384.667786794904,237602.89,14.651,0,885.8770961095332,560.857376931685
2384.688219134827,2384.688219134827,237616.56,14.6513815,0,885.8660652198829,560.855536522039
2384.7086513738177,2384.7086513738177,237623.75,14.651953,0,885.8531790549584,560.854503188012
2384.729083812803,2384.729083812803,237597.34,14.654582,0,885.8358808199433,560.853480849745
2384.749516150863,2384.749516150863,237600.23,14.651796,0,885.8147336694366,560.8538474785469
2384.769948388457,2384.769948388457,237604.47,14.652969,0,885.7993419708221,560.853572773211
2384.7903808260453,2384.7903808260453,237580.73,14.649492,393216,885.7807276276679,560.8531652396714
2384.8108131627087,2384.8108131627087,237643.97,14.645426,0,885.7611574642517,560.8533838687406
2384.8312453989056,2384.8312453989056,237632.22,14.64187,0,885.7412795246822,560.8530009784322
2384.851677834631,2384.851677834631,237657.16,14.641524,0,885.7279034075183,560.8521012076594
2384.8721101698975,2384.8721101698975,237614.6,14.638041,0,885.7179770748731,560.8507352836921
2384.912974839026,2384.912974839026,237166.14,14.541716,0,886.1656178350108,560.839116506718
2384.9334071728954,2384.9334071728954,237209.3,14.542428,0,886.158964916016,560.838403493576
2384.9538396062926,2384.9538396062926,237235.22,14.546802,0,886.1484349267231,560.8372083003684
2384.97427183923,2384.97427183923,237203.44,14.550645,0,886.1450538488627,560.8359802823358
2384.9947041717023,2384.9947041717023,237219.97,14.546628,0,886.1416410297148,560.8347596614337
2385.0151366037026,2385.0151366037026,237212.14,14.55288,0,886.1339742033116,560.8347762761559
2385.0355689352436,2385.0355689352436,237187.72,14.553999,0,886.1255425702228,560.8335280168237
2385.0560011663183,2385.0560011663183,237195.16,14.555469,0,886.1120558168082,560.8337785964218
2385.0764335969216,2385.0764335969216,237201.19,14.563658,0,886.0976022645175,560.832606163181
2385.0968659266,2385.0968659266,237148.0,14.565077,0,886.0831536979133,560.8322345129436
2385.1172982562784,2385.1172982562784,237202.9,14.5743685,0,886.0663753619467,560.8320433805532
2385.137730585484,2385.137730585484,237227.81,14.579316,0,886.0500335143886,560.8308133918687
2385.1581629137654,2385.1581629137654,237167.3,14.579453,0,886.041166395017,560.8303270307159
2385.178595242047,2385.178595242047,237110.88,14.5815525,0,886.0384525541273,560.828598241104
2385.1990275698554,2385.1990275698554,237145.42,14.583382,0,886.0382531737329,560.826992343848
2385.21945989674,2385.21945989674,237166.9,14.58084,0,886.0388398469614,560.826368580214
2385.2398922236243,2385.2398922236243,237182.98,14.580973,0,886.0295015335365,560.8268452786123
2385.26032454957,2385.26032454957,237134.61,14.585845,0,886.017495052358,560.8253667227194
2385.2807568755234,2385.2807568755234,237228.88,14.589505,0,886.0068095483472,560.8248021747223
2385.301189200545,2385.301189200545,237176.73,14.591902,0,885.9982758925908,560.823759303101
2385.321621525094,2385.321621525094,237250.86,14.595008,0,885.9901622068612,560.8242497238148
2385.342053949651,2385.342053949651,237226.19,14.596733,0,885.9801309152353,560.823111799652
2385.362486173275,2385.362486173275,237235.27,14.597212,0,885.9668763797431,560.8230230956799
2385.382918496427,2385.382918496427,237278.98,14.597367,0,885.9554063355062,560.823234467293
2385.403350919587,2385.403350919587,237229.86,14.601413,0,885.946883659062,560.8222816700478
2385.423783141814,2385.423783141814,237358.52,14.60291,0,885.9380534484511,560.822888758499
2385.444215463569,2385.444215463569,237269.48,14.604843,0,885.9284516789052,560.8229947045226
2385.4646478848663,2385.4646478848663,237295.48,14.60498,0,885.9217118710513,560.8221063236642
2385.4850801056964,2385.4850801056964,237301.94,14.605493,0,885.9107903606881,560.8228037547917
2385.50551242652,2385.50551242652,237321.58,14.606997,0,885.9019833031952,560.8208577771967
2385.5259448464203,2385.5259448464203,237326.14,14.606108,0,885.890216699103,560.8200947820293
2385.5463770658534,2385.5463770658534,237317.12,14.608322,0,885.8802124687027,560.8186992091636
2385.566809484815,2385.566809484815,237352.94,14.606709,0,885.8655847524138,560.8182607303212
2385.5872418033177,2385.5872418033177,237394.11,14.606128,0,885.8534087531376,560.8175064000029
2385.6076741213546,2385.6076741213546,237369.69,14.606707,0,885.8439871662196,560.8167721337226
2385.6281064389186,2385.6281064389186,237405.25,14.605836,0,885.8361964581413,560.8166007345544
2385.648538756024,2385.648538756024,237365.88,14.598997,0,885.8239574573454,560.8168421082074
2385.668971072664,2385.668971072664,237414.89,14.599262,0,885.8113950291407,560.816566391225
2385.689403388831,2385.689403388831,237428.81,14.595455,0,885.8025122015424,560.8174653335135
2385.7098357045397,2385.7098357045397,237426.44,14.59478,0,885.7921476345273,560.8178085673919
2385.7302680197827,2385.7302680197827,237438.5,14.594002,0,885.7863082740865,560.8180204030779
2385.750700434088,2385.750700434088,237428.75,14.589868,0,885.7784848098335,560.8180427593995
2385.7711326483986,2385.7711326483986,237461.69,14.587668,0,885.7753015166807,560.8169137066129
2385.7915650622454,2385.7915650622454,237418.05,14.581801,0,885.7699068890422,560.8151424517613
2385.8119973756184,2385.8119973756184,237450.61,14.58457,0,885.7662405021881,560.8147831409938
2385.8324295885322,2385.8324295885322,237420.94,14.583419,0,885.7637158612313,560.8134711109161
2385.852862000509,2385.852862000509,237434.94,14.579,0,885.7587949281857,560.8133151977449
2385.8732943124924,2385.8732943124924,237450.47,14.579596,0,885.7537718624654,560.8126201503613
2385.8937265240093,2385.8937265240093,237387.11,14.570113,393216,885.7435623633061,560.8120570622908
2385.9141589345963,2385.9141589345963,237420.61,14.568585,0,885.7290967860413,560.8121090447728
2385.9345912451754,2385.9345912451754,237465.77,14.564649,0,885.7163692566552,560.8119662642928
2385.9550234552953,2385.9550234552953,237428.9,14.555011,0,885.7021946314361,560.8113920374667
2385.975455864478,2385.975455864478,237430.23,14.545025,0,885.6898430245639,560.8108040220462
2385.9958880736667,2385.9958880736667,237470.45,14.540093,0,885.679020875679,560.8111207371652
2386.0163203819247,2386.0163203819247,237459.52,14.52689,0,885.6648592453917,560.8121888784557
2386.0367527901835,2386.0367527901835,237505.34,14.513582,0,885.6509806740654,560.8126906300604
2386.057184997502,2386.057184997502,237540.05,14.506279,0,885.6365362787606,560.8129311455144
2386.0776174048297,2386.0776174048297,237555.67,14.496199,0,885.6224720071621,560.8127372699197
2386.0980497112178,2386.0980497112178,237621.25,14.489073,8192,885.6105633305365,560.81096288603
2386.138914323077,2386.138914323077,237107.81,14.279733,0,886.5014529956362,560.7951876177406
2386.1593466285412,2386.1593466285412,237085.67,14.296042,0,886.4897799196185,560.7943528839448
2386.1797789330667,2386.1797789330667,237112.77,14.305661,0,886.4795165241501,560.7940784794259
2386.2002112375994,2386.2002112375994,237147.33,14.32123,0,886.4657281510044,560.7943311224032
2386.2206435411936,2386.2206435411936,237150.89,14.335116,0,886.4494187370937,560.794293901832
2386.2410758443293,2386.2410758443293,237109.69,14.348944,0,886.4366506021879,560.7944353511682
2386.261508247466,2386.261508247466,237180.1,14.357994,0,886.4270080729831,560.793850557622
2386.2819404496695,2386.2819404496695,237150.28,14.368869,393216,886.4131308002208,560.7935848154816
2386.302372751401,2386.302372751401,237115.98,14.381687,0,886.3960122996825,560.793998479266
2386.3228051531405,2386.3228051531405,237188.92,14.396819,0,886.3792346087491,560.7944818878576
2386.34323735394,2386.34323735394,237188.89,14.402272,0,886.3689512313921,560.7947740254974
2386.3841020546242,2386.3841020546242,237067.72,14.535756,0,886.099850733779,560.7996344409714
2386.404534254034,2386.404534254034,237016.62,14.536427,0,886.1030393009959,560.7980311377793
2386.424966652972,2386.424966652972,237004.08,14.535744,0,886.1029941433787,560.7968999139877
2386.4453989514514,2386.4453989514514,237051.0,14.539208,0,886.094187386742,560.796219249043
2386.4658311499225,2386.4658311499225,237017.14,14.542269,0,886.0836876732631,560.7955636089895
2386.486263547471,2386.486263547471,237002.47,14.543593,0,886.0732680911779,560.7954479957124
2386.506695844553,2386.506695844553,236956.12,14.547028,0,886.0616600133964,560.7950806246755
2386.527128041169,2386.527128041169,236958.53,14.552312,0,886.0516627523555,560.7946614049591
2386.547560437313,2386.547560437313,236957.52,14.552404,0,886.0408860630131,560.794900236534
2386.5679927329984,2386.5679927329984,236954.27,14.555038,0,886.0322557483956,560.7951029498954
2386.5884250286763,2386.5884250286763,236991.48,14.558065,0,886.0238983878313,560.7971959925741
2386.60885732343,2386.60885732343,236997.1,14.562567,0,886.006512158787,560.7980016129325
2386.6292896177183,2386.6292896177183,237011.61,14.564928,0,885.9981444715213,560.7984792904263
2386.6497220115343,2386.6497220115343,237072.08,14.565632,0,885.9897290286751,560.7991493855461
2386.6701542048904,2386.6701542048904,237021.62,14.570567,0,885.9781103091976,560.7984779727444
2386.6905864977816,2386.6905864977816,237033.98,14.569466,0,885.972955204834,560.7984633819955
2386.7110187902,2386.7110187902,237000.86,14.57183,0,885.9705851298778,560.7966034436168
2386.7314510821598,2386.7314510821598,237009.61,14.571353,0,885.9644096844196,560.796463498403
2386.751883373654,2386.751883373654,237043.78,14.572049,0,885.9593072909153,560.7961564696153
2386.772315665141,2386.772315665141,237009.56,14.573949,0,885.9548439483386,560.7963855281972
2386.792747955704,2386.792747955704,237008.0,14.574047,0,885.9499065813726,560.7969629080466
2386.813180245801,2386.813180245801,237027.67,14.570475,0,885.9466412034659,560.7963264656082
2386.833612635426,2386.833612635426,237078.72,14.572923,0,885.9388851282707,560.7963673376195
2386.8540448245913,2386.8540448245913,237070.94,14.573649,0,885.931210811818,560.7968026861125
2386.8744771132915,2386.8744771132915,237048.17,14.574096,0,885.9252657097073,560.7962792398467
2386.8949095015196,2386.8949095015196,237056.08,14.575955,0,885.9181261775167,560.7967064810284
2386.9153416892877,2386.9153416892877,237120.2,14.576818,0,885.9102835545644,560.7974674512118
2386.935773976591,2386.935773976591,237054.36,14.57811,0,885.9021906313236,560.7979819939486
2386.956206363422,2386.956206363422,237123.67,14.578542,0,885.8947777306806,560.7975825569597
2386.9766385497933,2386.9766385497933,237100.44,14.577303,0,885.8884548493003,560.7971513312756
2386.9970709357003,2386.9970709357003,237100.05,14.576897,0,885.8880259962532,560.7968498706828
2387.0175032211337,2387.0175032211337,237079.47,14.575034,0,885.8825606178212,560.7959516738118
2387.037935406108,2387.037935406108,237153.97,14.57488,393216,885.8710110337411,560.7953379542377
2387.0583677906106,2387.0583677906106,237229.78,14.574732,0,885.8594663193212,560.7958643762562
2387.0788000746543,2387.0788000746543,237254.16,14.572762,0,885.8524216195291,560.795981566933
2387.0992323582323,2387.0992323582323,237270.12,14.574791,0,885.8438439544051,560.795763155834
2387.1196646413446,2387.1196646413446,237255.97,14.572902,0,885.8363785416744,560.795877862357
2387.140096923984,2387.140096923984,237220.06,14.569846,0,885.8276495378466,560.7966077007338
2387.160529206165,2387.160529206165,237269.14,14.570808,0,885.8221064899259,560.7964264686483
2387.180961487873,2387.180961487873,237268.5,14.56776,0,885.8181037975114,560.7964576454864
2387.2013937691227,2387.2013937691227,237290.78,14.567203,0,885.8156785974033,560.7958098305523
2387.2218260499067,2387.2218260499067,237238.67,14.568162,0,885.8175059982481,560.7969872436421
2387.2422584302185,2387.2422584302185,237214.64,14.565528,0,885.8145275231946,560.7988445887438
2387.2626906100704,2387.2626906100704,237256.81,14.565552,0,885.8041700875222,560.7990879866483
2387.2831228894574,2387.2831228894574,237235.34,14.557899,0,885.7931083655981,560.7990193037963
2387.3035552683723,2387.3035552683723,237256.61,14.555252,0,885.7847991189852,560.797343335622
2387.3239874468272,2387.3239874468272,237268.44,14.55364,393216,885.7755230196422,560.7973487906854
2387.344419824818,2387.344419824818,237303.56,14.549478,0,885.7672781994571,560.7966356551678
2387.364852102335,2387.364852102335,237264.9,14.544223,0,885.7580056982882,560.7953372364254
2387.385284279393,2387.385284279393,237294.27,14.542664,0,885.7495741128511,560.7952936457738
2387.405716655987,2387.405716655987,237328.25,14.535964,0,885.7403296053595,560.7952276022029
2387.4261488321063,2387.4261488321063,237348.22,14.534535,0,885.729667624722,560.7959403475843
2387.4465811073023,2387.4465811073023,237303.45,14.528163,0,885.7206735287825,560.7960240434172
2387.467013482499,2387.467013482499,235436.8,14.481771,0,885.7107410670185,560.79653578591
2387.4874456576945,2387.4874456576945,233477.38,14.422873,262144,885.6992434787938,560.7971042146734
2387.5078779314863,2387.5078779314863,,,262144,885.6873896218355,560.7978551433771
2387.528310305286,2387.528310305286,,,0,885.6771090134293,560.798373300937
2387.548742479077,2387.548742479077,,,0,885.6663978568771,560.7988778273109
2387.569174751945,2387.569174751945,,,0,885.6518258780845,560.7989193398101
2387.6100392962835,2387.6100392962835,237142.17,14.431212,0,886.3107888215454,560.7866678077332
2387.630471567747,2387.630471567747,237114.23,14.4440975,0,886.2917678196904,560.7856318458695
2387.650903938753,2387.650903938753,237115.78,14.454152,0,886.2762867385386,560.7860027614854
2387.671336209285,2387.671336209285,237137.45,14.462157,0,886.2588765757823,560.7862740964101
2387.691768479359,2387.691768479359,237132.1,14.464622,0,886.2523346035534,560.7861137151485
2387.712200748967,2387.712200748967,237124.42,14.467437,0,886.2453952461412,560.7860457312042
2387.732633018102,2387.732633018102,237137.02,14.474329,0,886.235899635486,560.7854307954974
2387.75306538678,2387.75306538678,237109.33,14.478635,0,886.2250538856093,560.7846320632227
2387.77349755499,2387.77349755499,237096.73,14.485806,0,886.2089522678116,560.7848531004687
2387.7939298227284,2387.7939298227284,237064.77,14.492872,0,886.1951091997457,560.7855774371872
2387.814362190009,2387.814362190009,237116.6,14.498125,0,886.1788599496637,560.7867631992463
2387.8347943568224,2387.8347943568224,237143.95,14.505516,0,886.1645130803068,560.78702709377
2387.8552266231636,2387.8552266231636,237080.1,14.509134,0,886.149899926583,560.7879930412049
2387.875658989047,2387.875658989047,237083.84,14.516706,0,886.1332794196747,560.7881548123609
2387.8960911544636,2387.8960911544636,237055.0,14.5182705,0,886.1232440975283,560.78782570628
2387.9165234198736,2387.9165234198736,237013.97,14.521106,0,886.1149158822559,560.7867894804047
2387.93695578436,2387.93695578436,236977.78,14.521815,0,886.1120346530713,560.7860963804546
2387.9573879483796,2387.9573879483796,236991.19,14.527719,393216,886.1020282395078,560.7863297025463
2387.977820211927,2387.977820211927,236924.66,14.53095,0,886.0891110354355,560.7868928376099
2387.9982525750165,2387.9982525750165,236985.95,14.535648,0,886.073179711279,560.7858447327826
2388.018684737639,2388.018684737639,236936.97,14.537578,0,886.0607632582871,560.7863167718997
2388.0391171002557,2388.0391171002557,236905.64,14.541115,0,886.0552085574636,560.785963283772
2388.0595493619476,2388.0595493619476,236911.45,14.541662,0,886.044098585092,560.7859723563411
2388.079981623174,2388.079981623174,236911.48,14.547315,0,886.0354510453636,560.7867948406114
2388.100413883927,2388.100413883927,236965.44,14.546541,0,886.0279090664145,560.7872223262957
2388.1208461446877,2388.1208461446877,236973.83,14.551848,0,886.012967915742,560.7880648710089
2388.141278404517,2388.141278404517,237002.34,14.554621,0,885.9952700283667,560.7893130950953
2388.1617106638732,2388.1617106638732,236942.7,14.559679,0,885.9763049511707,560.788971842345
2388.182142922771,2388.182142922771,236990.5,14.56221,0,885.9569137603938,560.7895412456662
2388.2025750816683,2388.2025750816683,236958.4,14.562549,0,885.9492931675261,560.7895431632207
2388.2230074396284,2388.2230074396284,236959.69,14.563113,0,885.9450616801045,560.7880939244983
2388.2434396971294,2388.2434396971294,236940.19,14.566201,0,885.9404682121896,560.7870101420023
2388.2638718546295,2388.2638718546295,236957.34,14.565557,0,885.9391568586885,560.7870804366686
2388.2843042111926,2388.2843042111926,236974.73,14.566364,0,885.9335282292734,560.7871603969602
2388.3047364672966,2388.3047364672966,236971.56,14.568256,0,885.9204426149945,560.7868876656763
2388.3660332337386,2388.3660332337386,236988.31,14.546762,0,886.0349919424505,560.7855155859476
2388.3864655879734,2388.3864655879734,237036.33,14.544066,0,886.0413099574099,560.7852330256736
2388.406897742214,2388.406897742214,236987.8,14.545834,0,886.0359770870016,560.7849131120863
2388.427329995524,2388.427329995524,236994.73,14.546831,0,886.0288187099421,560.7851290725122
2388.4477623488347,2388.4477623488347,236971.19,14.549606,0,886.0226735372854,560.7861004959954
2388.4681945012053,2388.4681945012053,236996.36,14.551607,0,886.0149204140125,560.7855957097918
2388.488626753584,2388.488626753584,237022.94,14.55406,0,886.0101830688257,560.7859296096368
2388.509059105025,2388.509059105025,237043.36,14.553947,0,886.0033420906896,560.7855357272849
2388.5294912564714,2388.5294912564714,237013.39,14.553118,0,886.0021133393288,560.7845999940395
2388.5499235069874,2388.5499235069874,237019.7,14.554444,0,886.0046831758832,560.7838535481811
2388.570355857504,2388.570355857504,236969.08,14.553597,0,886.0086435144067,560.7847802648686
2388.5907881075473,2388.5907881075473,236988.33,14.5519085,0,886.0140620814061,560.7847180617231
2388.6112202566655,2388.6112202566655,236941.52,14.549627,0,886.020034644131,560.784683199652
2388.631652605778,2388.631652605778,236970.19,14.546995,0,886.0273071145716,560.783828345551
2388.6520848544315,2388.6520848544315,236971.83,14.546597,0,886.030687815926,560.7840399523033
2388.6725170021527,2388.6725170021527,236964.1,14.547532,0,886.0360913689115,560.7833489468558
2388.6929493498756,2388.6929493498756,237001.36,14.543913,0,886.0412693689626,560.7842272272543
2388.7133815971247,2388.7133815971247,237016.38,14.543701,0,886.0458471747636,560.7842048403711
2388.7338137439147,2388.7338137439147,236936.39,14.541786,0,886.050651573885,560.784856512875
2388.7542460897675,2388.7542460897675,237029.42,14.543574,0,886.053568189212,560.7857577667635
2388.774678335627,2388.774678335627,236956.72,14.543596,0,886.0523637359807,560.785196351285
2388.7951106810215,2388.7951106810215,237020.39,14.542499,0,886.0426659934558,560.7851548320663
2388.815542825949,2388.815542825949,236992.8,14.544172,0,886.0381165918448,560.7845616409616
2388.835975070404,2388.835975070404,236971.38,14.546802,0,886.0336574945727,560.7835031130774
2388.8564074144015,2388.8564074144015,236974.9,14.546967,0,886.0317040938638,560.7825822801425
2388.8768395579245,2388.8768395579245,236965.39,14.547109,0,886.036948257451,560.7825168434266
