time,time,flux,flux_err
1385.9567992584464,1385.9567992584464,1.0001690692771927,0.00011091645012255663
1385.9651328515947,1385.9651328515947,1.0000082727684834,0.00011091293256679108
1385.9727719784737,1385.9727719784737,0.9999303038309628,0.00010124806445775652
1385.9797166392386,1385.9797166392386,0.9998042878236066,0.00010124666925773345
1385.986661299818,1385.986661299818,0.9999611074356751,0.00010125769696326984
1385.9936059603037,1385.9936059603037,0.9999414318138751,0.0001012599851155735
1386.0005506207888,1386.0005506207888,1.0000120178078056,0.00010126369050040957
1386.007495281089,1386.007495281089,0.9999680228000838,0.00010126625450027405
1386.0144399412954,1386.0144399412954,0.9999800799897244,0.00010127050995401299
1386.0213846015013,1386.0213846015013,1.0000632490108499,0.00010127532079253504
1386.028329261522,1386.028329261522,1.0000835063849611,0.00010128815838079522
1386.0352739214495,1386.0352739214495,0.9999505170204319,0.00010128468132492915
1386.0422185812827,1386.0422185812827,0.9998615209931032,0.00010128445848837185
1386.0491632410237,1386.0491632410237,1.0001424055042396,0.0001012984283539564
1386.0561079006718,1386.0561079006718,1.0000141582598658,0.00010129156803067721
1386.063052560226,1386.063052560226,1.0000372873481542,0.00010130965899575212
1386.0699972196871,1386.0699972196871,1.0001545399575436,0.0001013136550935211
1386.0769418789628,1386.0769418789628,1.0000157989064262,0.00010131790080867172
1386.0838865382377,1386.0838865382377,0.9998714915346081,0.00010130478835124665
1386.0908311975122,1386.0908311975122,0.9998848145651396,0.00010130694488923498
1386.0977758564154,1386.0977758564154,0.999919042429808,0.00010132264533946575
1386.1047205155041,1386.1047205155041,0.9999858314135741,0.00010132595186315837
1386.1116651743132,1386.1116651743132,0.9998473693820407,0.0001013222778813834
1386.1186098330302,1386.1186098330302,0.9999595862895305,0.00010133031110985506
1386.1255544917465,1386.1255544917465,1.000198616969715,0.00010134217213793531
1386.132499150369,1386.132499150369,1.000196487918751,0.00010134502762446341
1386.1394438088064,1386.1394438088064,1.0000074991826398,0.00010133652665399473
1386.1463884671507,1386.1463884671507,0.9999029663266775,0.00010133790585440056
1386.1533331254936,1386.1533331254936,1.0000379055486193,0.00010134800875811348
1386.1602777836513,1386.1602777836513,0.9999787107688659,0.00010134455973311463
1386.1672224417161,1386.1672224417161,1.0001215969026547,0.00010135602802099427
1386.1741670997803,1386.1741670997803,0.9999039693847083,0.00010134889856714034
1386.1811117576583,1386.1811117576583,0.9998166784475666,0.00010134510005511958
1386.1880564154437,1386.1880564154437,1.0001324261766578,0.00010136630581355816
1386.1950010731355,1386.1950010731355,1.0000020883948615,0.00010136445585039835
1386.2019457307338,1386.2019457307338,0.9997743780876883,0.00010135482372236867
1386.20889038824,1386.20889038824,0.9999904793293855,0.00010137117963269297
1386.215835045746,1386.215835045746,1.0001019856226523,0.00010137746627476095
1386.2227797030641,1386.2227797030641,0.9999636114892855,0.00010137919557032075
1386.229724360198,1386.229724360198,0.9999959369927,0.0001013824711668434
1386.2366690174244,1386.2366690174244,0.9999827309566165,0.00010138320371213982
1386.2436136745569,1386.2436136745569,0.9999308878801647,0.00010138549418306989
1386.250558331504,1386.250558331504,1.0000760784629756,0.00010139508395144883
1386.2575029881716,1386.2575029881716,0.9999065008716416,0.0001013999080711237
1386.2644476449318,1386.2644476449318,1.0001022950274197,0.00010140233838784149
1386.2713923015992,1386.2713923015992,1.0000286608518631,0.00010140644882182554
1386.278336958174,1386.278336958174,1.000159540778069,0.00010141675850646617
1386.285281614655,1386.285281614655,0.9998799497301858,0.00010140531338340908
1386.2922262710426,1386.2922262710426,0.9999351327201367,0.00010141579637115408
1386.2991709272446,1386.2991709272446,0.9998585450781297,0.00010141085100310984
1386.3061155834469,1386.3061155834469,0.9999027744167887,0.00010141878307429471
1386.3130602395545,1386.3130602395545,1.0000500244181416,0.00010143214307337487
1386.3200048954773,1386.3200048954773,1.000254658967283,0.00010144601001270466
1386.3269495514,1386.3269495514,0.9998241866127856,0.00010142669651687171
1386.3338942072285,1386.3338942072285,0.9999667093012382,0.00010143409652348593
1386.3408388628718,1386.3408388628718,1.0002391589772723,0.00010144788765468812
1386.3477835185154,1386.3477835185154,1.0001066404806,0.00010144756844693516
1386.3547281740648,1386.3547281740648,0.9998867102310248,0.00010144606879394448
1386.3616728294285,1386.3616728294285,0.999817563595504,0.0001014454893127728
1386.369173057255,1386.369173057255,0.9999925565503188,0.00010145672762526981
1386.3769510709863,1386.3769510709863,0.9999909382271197,0.00010146519812416014
1386.3838957261632,1386.3838957261632,1.000102278126533,0.00010147267109293222
1386.3908403811547,1386.3908403811547,0.9998530512846846,0.00010146012883189136
1386.39778503596,1386.39778503596,1.0000989461080019,0.00010148010495374849
1386.404729691043,1386.404729691043,1.0000618978233415,0.00010147822246440007
1386.4116743456618,1386.4116743456618,1.0000234429286743,0.00010147890171968749
1386.4186190002808,1386.4186190002808,0.9999869806006257,0.00010148441698120235
1386.4255636548987,1386.4255636548987,0.9999227588310073,0.00010148331375742139
1386.4325083093313,1386.4325083093313,1.0001502237770756,0.00010150312269989651
1386.4394529636706,1386.4394529636706,0.9999903544506946,0.00010149597877549842
1386.4463976179165,1386.4463976179165,0.999741460405383,0.00010148935781764273
1386.4533422720692,1386.4533422720692,1.0000290972458163,0.0001015098377729175
1386.4602869262224,1386.4602869262224,1.0000147405585198,0.00010151321515827034
1386.4672315800958,1386.4672315800958,1.0001202057579377,0.00010151504709775059
1386.4741762341553,1386.4741762341553,1.000096190878405,0.00010151503824874547
1386.4811208878427,1386.4811208878427,0.9998291124456691,0.00010151336185145374
1386.4880655416232,1386.4880655416232,0.9999783732662086,0.00010152160213136314
1386.4950101951233,1386.4950101951233,0.9999871393527693,0.00010152750121524394
1386.5019548487176,1386.5019548487176,0.9999991424168186,0.00010153485423198252
1386.5088995020328,1386.5088995020328,1.000146255148807,0.00010154586433606433
1386.5158441555336,1386.5158441555336,1.0000562525511314,0.00010154431551897433
1386.5227888086615,1386.5227888086615,1.0000313327372718,0.00010154891201607178
1386.5297334618838,1386.5297334618838,0.9999236737868523,0.00010155018469716701
1386.536678115012,1386.536678115012,1.0001572584378724,0.0001015612692827985
1386.5436227678606,1386.5436227678606,0.9999008958610551,0.00010155222615324284
1386.5505674207102,1386.5505674207102,0.9997766844974428,0.00010154922266964925
1386.5575120735596,1386.5575120735596,0.9999042319402797,0.0001015596062717573
1386.564734512313,1386.564734512313,1.0000259013592427,0.00010157301767067413
1386.5727903093425,1386.5727903093425,1.00006369937837,0.00010157191238822474
1386.5797349618194,1386.5797349618194,0.9999866608870469,0.00010157615880354887
1386.5866796141095,1386.5866796141095,1.0001258421768846,0.0001015847368593678
1386.5936242663993,1386.5936242663993,1.0000096682955413,0.00010158235270489053
1386.6005689186898,1386.6005689186898,1.0000711551862929,0.00010158815805921943
1386.6075135707938,1386.6075135707938,1.0000196511419865,0.00010158047786895088
1386.614458222804,1386.614458222804,1.0003158781487527,0.00010160725299135512
1386.6214028747222,1386.6214028747222,0.9999294479656722,0.00010159596045828066
1386.6283475265473,1386.6283475265473,0.9999173290616827,0.00010160141505861644
1386.6352921781845,1386.6352921781845,1.0000450450838447,0.00010161113552035912
1386.6422368299168,1386.6422368299168,1.0000599280026854,0.00010161679437186843
1386.6491814814622,1386.6491814814622,0.9999432685199847,0.00010161634106140551
1386.6561261329136,1386.6561261329136,1.0000163967288966,0.00010162516931027194
1386.6630707842728,1386.6630707842728,0.9999135443688987,0.00010162597721194956
1386.6700154356317,1386.6700154356317,1.0000769651773513,0.00010163946727397859
1386.6769600868042,1386.6769600868042,0.9999652571855474,0.00010163064771966806
1386.6839047378833,1386.6839047378833,0.9999386923900367,0.00010163715773836839
1386.69084938887,1386.69084938887,1.0000301810568548,0.00010164777237090073
1386.6977940397637,1386.6977940397637,0.9998976810763075,0.00010164434978154356
1386.7047386906559,1386.7047386906559,1.000032107959735,0.00010165415402098313
1386.7116833413634,1386.7116833413634,1.0000420732331943,0.00010165906155193694
1386.7186279919777,1386.7186279919777,1.0000522242336203,0.00010166643414068399
1386.7255726424983,1386.7255726424983,1.0000009299437904,0.00010166318571958254
1386.7325172929254,1386.7325172929254,1.0000216282134216,0.00010166751891788487
1386.7394619433533,1386.7394619433533,0.999995894764079,0.00010166594228250739
1386.746406593502,1386.746406593502,0.9999536469532251,0.00010167252012475629
1386.7533512438356,1386.7533512438356,1.0000122663369333,0.00010167236903233377
1386.7602958938908,1386.7602958938908,1.0000355228511293,0.00010168796217623908
1386.767240543853,1386.767240543853,1.0000567460487724,0.00010169066255815166
1386.7744629798133,1386.7744629798133,0.9999096404186603,0.00010167761817475823
1386.7825187734895,1386.7825187734895,1.0001540072209278,0.00010170137463985779
1386.7894634232655,1386.7894634232655,0.9999005885257762,0.00010170168542040414
1386.7964080727618,1386.7964080727618,0.9999390186945692,0.00010169887310229828
1386.8033527223506,1386.8033527223506,0.9999391123489747,0.00010169431812489904
1386.8102973718474,1386.8102973718474,1.000089427306566,0.00010171468452207571
1386.8172420210644,1386.8172420210644,0.999885956067055,0.00010170729928986758
1386.8241866704668,1386.8241866704668,1.0000970207944957,0.00010171995708946578
1386.8311313194981,1386.8311313194981,0.9999465057873245,0.00010172356916329152
1386.8380759686218,1386.8380759686218,1.000002979127337,0.0001017249530990578
1386.845020617559,1386.845020617559,0.9999300524564179,0.00010172098455888293
1386.8519652664963,1386.8519652664963,1.0002401772385905,0.00010174562219074972
1386.858909915341,1386.858909915341,0.9999055161764614,0.00010173242601618222
1386.8658545639062,1386.8658545639062,1.0001475743904074,0.00010174169622106917
1386.8727992125637,1386.8727992125637,0.9999557018157447,0.00010174004125012258
1386.8797438611286,1386.8797438611286,0.9999365211195558,0.00010173643422345677
1386.886688509508,1386.886688509508,0.9999375402563933,0.00010174850127340092
1386.893633157886,1386.893633157886,1.0000999672188298,0.00010175518483669966
1386.9005778060784,1386.9005778060784,0.999805834907785,0.00010174478422268903
1386.9075224542714,1386.9075224542714,0.9999542487299422,0.00010176232311132107
1386.9144671023707,1386.9144671023707,1.0000626579664256,0.00010176765097639982
1386.921411750283,1386.921411750283,1.0000986686214766,0.00010177891847713292
1386.9283563982895,1386.9283563982895,1.0000175516254002,0.00010176755976915471
1386.9353010459236,1386.9353010459236,1.0000828074443295,0.00010178357474964393
1386.9422456935567,1386.9422456935567,0.9998793421005343,0.00010177685828780725
1386.9491903411902,1386.9491903411902,1.0000430626099879,0.00010177497625226028
1386.956134988824,1386.956134988824,1.0000063868189772,0.00010178946017815541
1386.9630796364577,1386.9630796364577,0.9999990776202807,0.00010179083873315185
1386.9700242836252,1386.9700242836252,0.9999059351773164,0.00010178826024718984
1386.9769689309799,1386.9769689309799,0.9998704914804065,0.00010179014408537442
1386.9847469358642,1386.9847469358642,1.0000329386744709,0.00010180802324767928
1386.9922471545628,1386.9922471545628,1.0001119165460943,0.00010180721043947139
1386.9991918015446,1386.9991918015446,0.9999071379579908,0.0001018009724224983
1387.0061364485268,1387.0061364485268,1.0000464329482268,0.00010181669004442273
1387.0130810952287,1387.0130810952287,1.0002408937947012,0.00010183053476185765
1387.0200257420238,1387.0200257420238,1.0000337905223389,0.00010182197941811921
1387.0269703885401,1387.0269703885401,0.9999346212784126,0.00010182467029305485
1387.033915035243,1387.033915035243,1.000021147352804,0.00010183084989754052
1387.040859681479,1387.040859681479,0.9997567951656354,0.00010181847925151164
1387.0478043279022,1387.0478043279022,1.0001708293123384,0.00010184914281870019
1387.054748974139,1387.054748974139,0.9998731862461886,0.0001018385650171173
1387.0616936202825,1387.0616936202825,0.9999120791050728,0.0001018449275004253
1387.0686382663323,1387.0686382663323,1.0001312938317723,0.00010185537090173202
1387.0755829124764,1387.0755829124764,0.9999368873780309,0.00010185830773278995
1387.0825275583406,1387.0825275583406,1.0000751386050513,0.00010186116176401259
1387.0894722041107,1387.0894722041107,1.0000443415401545,0.00010186691759297148
1387.0964168498824,1387.0964168498824,1.0000025526027074,0.00010186426592880799
1387.1033614953742,1387.1033614953742,1.000091010298282,0.00010187684845225134
1387.1103061411454,1387.1103061411454,0.9997510890907231,0.00010186160115545076
1387.1172507864499,1387.1172507864499,1.0000096239134635,0.00010187078507283321
1387.1241954317552,1387.1241954317552,0.999972445134549,0.00010187005365634448
1387.1311400770614,1387.1311400770614,0.9999375838313191,0.0001018830998637676
1387.1380847223659,1387.1380847223659,1.0000415865492696,0.00010188750657224397
1387.1450293673918,1387.1450293673918,1.0000036333350595,0.0001018982407137177
1387.1519740125116,1387.1519740125116,1.0002603036840476,0.00010191003284880352
1387.1589186573508,1387.1589186573508,1.0000820336768288,0.0001019025271716663
1387.1658633021902,1387.1658633021902,0.9999579526148146,0.00010190587076021227
1387.1728079469372,1387.1728079469372,0.999931656316565,0.00010191156801317464
1387.1797525915908,1387.1797525915908,0.9999732128461494,0.00010191297625279003
1387.1866972362438,1387.1866972362438,0.9998699195175961,0.00010190608204749545
1387.1936418806176,1387.1936418806176,1.0000822187212868,0.00010192173826912928
1387.2005865250853,1387.2005865250853,0.9998309975745349,0.00010192023711858413
1387.2075311693666,1387.2075311693666,1.0001309037973924,0.00010194067416538864
1387.214475813646,1387.214475813646,1.0000730390084112,0.00010193963849534126
1387.2214204577413,1387.2214204577413,1.0000776813166392,0.00010194911258395845
1387.228365101743,1387.228365101743,0.999919173983127,0.00010193715049194194
1387.2353097457444,1387.2353097457444,1.0000723494884451,0.0001019580385415221
1387.2422543895595,1387.2422543895595,0.9999934324356164,0.00010195225085167204
1387.2491990332817,1387.2491990332817,0.9998967850670253,0.00010194541754469015
1387.2561436770043,1387.2561436770043,1.0000958554092994,0.00010197136217992664
1387.2630883207255,1387.2630883207255,0.9997526096575274,0.00010195281303117598
1387.2700329641684,1387.2700329641684,0.9999603065130064,0.00010196422599329888
1387.2769776075183,1387.2769776075183,0.999967614080067,0.00010196683377802513
1387.2839222509606,1387.2839222509606,1.000089202945645,0.00010197882081674584
1387.2908668942168,1387.2908668942168,1.0000746655516715,0.0001019827797008206
1387.2978115373803,1387.2978115373803,1.0000320530228062,0.00010199020086356624
1387.3047561803578,1387.3047561803578,1.0001549512488663,0.0001019738708026602
1387.3125341804912,1387.3125341804912,0.9997880069451599,0.00010197484470485406
1387.321145537783,1387.321145537783,1.0000901120492003,0.00010200126656703685
1387.3283679662004,1387.3283679662004,1.0000601904538722,0.00010199654329139712
1387.3361459659616,1387.3361459659616,1.0000014737807574,0.00010199521852125052
1387.3436461800043,1387.3436461800043,1.000050246037025,0.00010201244811443447
1387.3508686082353,1387.3508686082353,0.9999476075161906,0.00010200457706278625
1387.3589243934366,1387.3589243934366,0.999894549799342,0.00010200321275051507
1387.3658690356679,1387.3658690356679,1.0001419287178004,0.00010202523216292258
1387.3728136779002,1387.3728136779002,0.9999230498865022,0.00010201653721864489
1387.3797583200394,1387.3797583200394,0.9999019353115337,0.0001020168158765992
1387.3867029620847,1387.3867029620847,0.9997794426953786,0.0001020148439205079
1387.393647604037,1387.393647604037,1.0000464233278048,0.00010202001238593583
1387.4005922458969,1387.4005922458969,0.9999832738609999,0.00010203188819817473
1387.4075368876634,1387.4075368876634,1.000271824309363,0.00010204506348425789
1387.4144815293357,1387.4144815293357,1.0000889113662095,0.00010203962870937412
1387.4214261710094,1387.4214261710094,0.999988560998229,0.0001020393387509584
1387.4283708124963,1387.4283708124963,0.999951333564106,0.00010203495155414308
1387.43531545389,1387.43531545389,1.0000832249168707,0.00010204144273192142
1387.4422600952835,1387.4422600952835,0.9999123042621477,0.00010204119868584701
1387.4492047364915,1387.4492047364915,1.0000851363876038,0.00010205418460798444
1387.4561493776996,1387.4561493776996,0.9998376907641197,0.00010204794850066314
1387.463094018813,1387.463094018813,0.9998818748061163,0.00010205407214964879
1387.4700386598342,1387.4700386598342,1.0000221112075613,0.00010205962143027133
1387.4769833005764,1387.4769833005764,1.000070167665381,0.0001020599189557344
1387.483927941598,1387.483927941598,1.0000376230852333,0.00010206142039936771
1387.490872582339,1387.490872582339,0.9999800513076156,0.00010206091170664865
1387.4978172229883,1387.4978172229883,1.0001237458500933,0.00010207954188264516
1387.504761863544,1387.504761863544,1.0002031825535591,0.00010207691391229041
1387.51170650382,1387.51170650382,0.9997523979037218,0.00010205924993629085
1387.5186511443753,1387.5186511443753,0.999994176166903,0.0001020726902799865
1387.525595784652,1387.525595784652,1.0000693982896967,0.00010207855313719918
1387.5325404248354,1387.5325404248354,0.9998090197206129,0.00010206962571908645
1387.539485064925,1387.539485064925,0.9999822330351767,0.00010208151373516938
1387.5464297050144,1387.5464297050144,0.9999664367240613,0.00010208324867238697
1387.553374344919,1387.553374344919,1.0000101000773003,0.00010209250091713974
1387.5603189848227,1387.5603189848227,1.0003079778412272,0.000102106035618693
1387.5672636246322,1387.5672636246322,0.9997921728341577,0.00010207891423204432
1387.57420826435,1387.57420826435,0.9999974258267562,0.00010209899339956665
1387.5811529038815,1387.5811529038815,1.0000477397405452,0.00010209999615888045
1387.5880975434127,1387.5880975434127,1.000054886264891,0.00010211029805462046
1387.59504218285,1387.59504218285,1.000101267799693,0.00010211325970913852
1387.6019868222884,1387.6019868222884,0.9997779407145465,0.00010209939305417112
1387.6089314615406,1387.6089314615406,0.9999750559712439,0.00010210461025747003
1387.6158761006986,1387.6158761006986,0.9999069845364552,0.00010211294881588633
1387.622820739764,1387.622820739764,0.9997667781528243,0.00010210595560430128
1387.6297653788301,1387.6297653788301,1.0000606984452733,0.00010211434706156028
1387.6367100177097,1387.6367100177097,0.9998302538899134,0.00010210777141038668
1387.643654656588,1387.643654656588,1.0004039524787467,0.0001021544582565878
1387.6505992953741,1387.6505992953741,1.0000593806239209,0.00010213572827441977
1387.6575439340675,1387.6575439340675,0.999911809243709,0.000102133372012549
1387.664488572481,1387.664488572481,1.000068113346171,0.00010212397418352588
1387.6714332111733,1387.6714332111733,0.9999305268980271,0.00010213284672744431
1387.6783778495872,1387.6783778495872,0.9999534281038713,0.0001021349119455501
1387.6853224879083,1387.6853224879083,1.0001487220790881,0.00010215012494327316
1387.692267126228,1387.692267126228,0.9997721417009167,0.00010212376884937734
1387.6992117640825,1387.6992117640825,0.9998421111715062,0.0001021484927562494
1387.7061564023102,1387.7061564023102,1.0000816719660308,0.0001021475865288066
1387.7131010402584,1387.7131010402584,1.000114035047811,0.00010215341895488894
