time,time,flux,flux_err
1570.683961066606,1570.683961066606,1.0001609702024972,0.0008012208958789914
1570.692294578218,1570.692294578218,0.9996491145925321,0.0007991032269106543
1570.700628089908,1570.700628089908,1.0005052803094234,0.0007977120256866622
1570.7082671423946,1570.7082671423946,1.0002824087042685,0.0007264207432499245
1570.7152117355834,1570.7152117355834,1.0006554513177737,0.0007249118102601013
1570.7221563288651,1570.7221563288651,0.9994082273207324,0.0007229946680248222
1570.7291009220537,1570.7291009220537,0.999430555345181,0.0007216593126736882
1570.7360455153357,1570.7360455153357,0.9993924482685081,0.0007198777463255455
1570.7429901087119,1570.7429901087119,1.0003369423104727,0.0007191847007576914
1570.7499347019934,1570.7499347019934,1.0003329287080955,0.0007169522245879983
1570.7568792954619,1570.7568792954619,1.001307826169644,0.0007150652569629547
1570.7638238889294,1570.7638238889294,1.001336812359097,0.0007135320255770836
1570.7707684823044,1570.7707684823044,0.9991838090019094,0.0007116839601333418
1570.777713075867,1570.777713075867,0.9998474867942433,0.0007104978388984717
1570.7846576694278,1570.7846576694278,0.9989284876111416,0.0007089725008561712
1570.791602262896,1570.791602262896,0.9990918963224896,0.0007081096218617302
1570.798546856457,1570.798546856457,0.9993336085641426,0.0007068246631446639
1570.8054914502045,1570.8054914502045,1.001417795568984,0.0007061337774973516
1570.8124360437673,1570.8124360437673,0.9991766583546665,0.0007046908476907757
1570.8193806374215,1570.8193806374215,1.0010217828199754,0.0007038003802166963
1570.8263252311685,1570.8263252311685,1.0004029478966796,0.00070266858286446
1570.833269824916,1570.833269824916,0.9996674228484839,0.0007016943369140731
1570.8402144186634,1570.8402144186634,1.0008226131612923,0.0007007391964014175
1570.8471590124122,1570.8471590124122,0.9999481353828028,0.0006997734311066491
1570.854103606253,1570.854103606253,0.9996321639561382,0.0006990435525372311
1570.8610482000931,1570.8610482000931,1.0000750747524318,0.0006982962467228659
1570.8679927938406,1570.8679927938406,0.9994155894155465,0.000698042530243325
1570.8749373877743,1570.8749373877743,0.9997857091497837,0.0006973297551384728
1570.882993116746,1570.882993116746,0.9999893225237774,0.0006968285021432807
1570.8902154942994,1570.8902154942994,0.9998083562335907,0.0006961099846457009
1570.897160088326,1570.897160088326,0.9993211686005015,0.0006949594277472869
1570.9041046822597,1570.9041046822597,1.000680809033883,0.0006943195567800005
1570.9110492762868,1570.9110492762868,1.001257179254116,0.0006934979193018076
1570.9179938702216,1570.9179938702216,0.9998737675227911,0.0006928020412470095
1570.9249384642485,1570.9249384642485,1.0002472591845826,0.0006920546487174842
1570.9318830584614,1570.9318830584614,1.0009768097683172,0.0006908181292761973
1570.938827652395,1570.938827652395,1.000165954399315,0.0006902693528344952
1570.9457722465154,1570.9457722465154,0.999232461782779,0.0006892984690787492
1570.9527168406362,1570.9527168406362,0.9990541240967197,0.0006879370275931799
1570.9596614346633,1570.9596614346633,0.999061352847626,0.0006880410225416407
1570.966606028783,1570.966606028783,1.0006349750283139,0.0006870216390631467
1570.9735506229965,1570.9735506229965,1.000685924582268,0.0006863593148961048
1570.9804952171164,1570.9804952171164,0.9995056123822611,0.0006858134800758599
1570.9874398113302,1570.9874398113302,0.999958025325126,0.0006849890901827885
1570.9943844054505,1570.9943844054505,0.9998003098990624,0.0006839485135328537
1571.0013289996634,1571.0013289996634,1.000701443279952,0.0006832105526079397
1571.0082735938765,1571.0082735938765,0.9990342186185813,0.0006818738403748801
1571.0152181880899,1571.0152181880899,0.9995620425834699,0.0006807841494559455
1571.022162782397,1571.022162782397,1.0005879362927104,0.0006802882759273636
1571.0291073766105,1571.0291073766105,1.000359011073644,0.0006798094002049579
1571.0360519708233,1571.0360519708233,1.000412167000827,0.0006787246109613805
1571.0429965651292,1571.0429965651292,0.999521426476997,0.0006776105018725354
1571.0499411594355,1571.0499411594355,1.0000893113460707,0.000676686091744239
1571.0568857536496,1571.0568857536496,0.999959406107698,0.0006760690779133659
1571.0638303479561,1571.0638303479561,1.000678458982839,0.0006753155032407649
1571.0707749422625,1571.0707749422625,0.9991835193198704,0.0006740597660826966
1571.0777195365688,1571.0777195365688,0.9993897407697908,0.0006736329321993888
1571.084664130968,1571.084664130968,1.000304238744603,0.000672321374481611
1571.0916087251817,1571.0916087251817,0.9993552228466187,0.0006713568456596785
1571.0985533194885,1571.0985533194885,1.0004083086489228,0.0006705969326776936
1571.1054979138878,1571.1054979138878,1.00080915044292,0.000670344962556684
1571.1124425082876,1571.1124425082876,1.0000312303579473,0.0006693422493609494
1571.1193871025932,1571.1193871025932,1.0000090796280559,0.0006685810264413259
1571.126331696993,1571.126331696993,0.9995199974247319,0.0006680930729774702
1571.133276291207,1571.133276291207,1.0008695413296935,0.0006674743770670951
1571.1402208856066,1571.1402208856066,0.9998628696693153,0.0006668669420957713
1571.147165479913,1571.147165479913,0.999523018529987,0.0006662441365779594
1571.154110074312,1571.154110074312,1.0001481538911847,0.0006658916289639476
1571.1610546687116,1571.1610546687116,1.0006498225180194,0.0006652546646559517
1571.1679992630186,1571.1679992630186,1.0000555457872906,0.0006649788819419497
1571.1749438574184,1571.1749438574184,0.9998655827530765,0.0006644690023556518
1571.1818884518177,1571.1818884518177,0.9986690369281039,0.0006635526688562054
1571.1888330461238,1571.1888330461238,1.0004717520322235,0.0006635436856191469
1571.1957776405231,1571.1957776405231,1.0010267873395198,0.000663006847737549
1571.2027222349236,1571.2027222349236,1.000038667456857,0.0006621387738064536
1571.2096668293232,1571.2096668293232,0.9995058401126963,0.000661515933169437
1571.2166114238157,1571.2166114238157,1.0002539737145126,0.0006611604334053939
1571.2235560181218,1571.2235560181218,1.0004872091606027,0.0006612219384302597
1571.230500612521,1571.230500612521,0.9999020955087617,0.0006606017159569681
1571.2374452069212,1571.2374452069212,0.9999895598576657,0.0006599890763886341
1571.244389801228,1571.244389801228,0.9987679769044652,0.0006591485192723507
1571.2513343956273,1571.2513343956273,1.0007688412264655,0.0006593059492011205
1571.2582789898404,1571.2582789898404,1.0002266217320386,0.0006590276134498496
1571.2652235842393,1571.2652235842393,1.0003777792059452,0.0006586982822866621
1571.272168178546,1571.272168178546,1.0003498901245993,0.0006584587533538648
1571.2791127729465,1571.2791127729465,1.0000967432649142,0.0006581639931085072
1571.2860573673456,1571.2860573673456,0.9998944425513085,0.0006569770251574071
1571.2930019616522,1571.2930019616522,0.9988209709111804,0.000656617278400684
1571.299946556051,1571.299946556051,1.000005610497945,0.000656679830117827
1571.3068911502646,1571.3068911502646,1.000065025477235,0.0006561525292211439
1571.3138357446646,1571.3138357446646,1.0005119739134836,0.0006555919526703001
1571.3207803389712,1571.3207803389712,0.9998928042584485,0.0006550199007989264
1571.3277249332778,1571.3277249332778,0.9992428261501496,0.0006540748875915167
1571.3346695275839,1571.3346695275839,1.0004128221184778,0.0006542304447394869
1571.34161412189,1571.34161412189,0.9996696885616092,0.0006534292084979783
1571.3485587161963,1571.3485587161963,1.000385869217364,0.000653329128203602
1571.3555033104105,1571.3555033104105,0.9994548651712813,0.0006522303342615913
1571.3624479047169,1571.3624479047169,1.000100374046609,0.0006518990282096819
1571.36939249893,1571.36939249893,1.000857631152399,0.000651376337742022
1571.376337093236,1571.376337093236,1.0012520271194674,0.0006513680927345564
1571.3832816874492,1571.3832816874492,0.9989815780379583,0.0006505642650892266
1571.390226281756,1571.390226281756,1.0000239930524253,0.0006495233750079887
1571.3971708759698,1571.3971708759698,0.9994434767086637,0.0006492543235945157
1571.4041154701831,1571.4041154701831,0.9999846127959696,0.000648826652663039
1571.4110600643955,1571.4110600643955,0.9997393447149054,0.0006485360716991955
1571.4180046585157,1571.4180046585157,1.0011128431982583,0.0006489048388175375
1571.424949252729,1571.424949252729,0.9998106871782404,0.0006485573191719865
1571.431893846943,1571.431893846943,0.9993680891528349,0.0006476383954725045
1571.4388384410634,1571.4388384410634,1.0002537836661007,0.0006476709759134691
1571.445783035276,1571.445783035276,1.0004964812098354,0.0006473925675114105
1571.4527276293031,1571.4527276293031,0.9990120714807469,0.0006469963799387617
1571.4596722235162,1571.4596722235162,0.999700524923341,0.0006471540604922728
1571.4666168175434,1571.4666168175434,1.000284823563519,0.0006468582288105866
1571.4735614117574,1571.4735614117574,0.9998895499590563,0.0006464528783790295
1571.480506005691,1571.480506005691,0.9998318486749644,0.0006466901298747084
1571.487450599904,1571.487450599904,1.0002342477442552,0.0006463851785069166
1571.494395193931,1571.494395193931,1.0005461909625069,0.000646484333496343
1571.501339787865,1571.501339787865,1.000075430034163,0.0006464365748847082
1571.508284381986,1571.508284381986,0.9996452292200235,0.0006462086933904494
1571.5152289761058,1571.5152289761058,1.000344227374241,0.0006464491446528145
1571.5221735700393,1571.5221735700393,0.9996575688943926,0.0006466930971220538
1571.5291181640662,1571.5291181640662,1.0000619461620919,0.0006462163426832195
1571.5360627579998,1571.5360627579998,1.0004098766493987,0.0006458125117603176
1571.5430073519342,1571.5430073519342,0.999238518935616,0.0006455253769793597
1571.5499519457755,1571.5499519457755,0.9997604537692597,0.0006455681815745408
1571.556896539709,1571.556896539709,1.0006903404907073,0.0006462064295888546
1571.5638411337359,1571.5638411337359,0.9998236253504448,0.0006452646769633749
1571.5707857274833,1571.5707857274833,0.9997990714697241,0.0006453758108781466
1571.5777303214168,1571.5777303214168,1.000480730736934,0.0006462137299541059
1571.5846749151656,1571.5846749151656,1.0000729330948543,0.0006454959956054082
1571.591619509099,1571.591619509099,1.0004233338763304,0.0006459432762069205
1571.5985641029397,1571.5985641029397,0.9996881515144374,0.0006452587906771669
1571.6055086966874,1571.6055086966874,0.9996425602231644,0.000645673297945185
1571.6124532904346,1571.6124532904346,0.9999849875345698,0.0006453029365282068
1571.6193978841825,1571.6193978841825,0.9998219998548376,0.000645614121098504
1571.6263424779308,1571.6263424779308,0.9996632162878528,0.0006450683548477788
1571.6332870716783,1571.6332870716783,1.000478642308018,0.0006453145900751835
1571.6402316653325,1571.6402316653325,0.9995751439340831,0.0006448748692050213
1571.6471762590797,1571.6471762590797,1.0004192349185006,0.0006448674081104249
1571.6541208527342,1571.6541208527342,1.000334608046808,0.0006453036851807329
1571.661065446296,1571.661065446296,0.9996390383307567,0.0006448134860477356
1571.6680100398578,1571.6680100398578,1.0006230135577736,0.0006451879372096993
1571.674954633512,1571.674954633512,1.0004617933876374,0.0006446228580430613
1571.6818992270732,1571.6818992270732,0.9993746107906871,0.000644262409231617
1571.688843820634,1571.688843820634,0.9992623721899487,0.0006443358128287205
1571.6957884142885,1571.6957884142885,1.0001731136905583,0.0006441419553408067
1571.7027330076648,1571.7027330076648,1.0000062278816197,0.0006440563034563016
1571.7096776012258,1571.7096776012258,0.999930880802616,0.0006438971752521654
1571.716622194694,1571.716622194694,0.9990505398761609,0.000643495215806275
1571.7235667880686,1571.7235667880686,0.9999165131797156,0.0006433624912791519
1571.7305113815366,1571.7305113815366,1.001328770752322,0.0006437755935797219
1571.737455974912,1571.737455974912,1.0015213713874096,0.0006437248388245331
1571.7444005682878,1571.7444005682878,1.000087531459334,0.0006428781952241053
1571.7513451616628,1571.7513451616628,1.0001746039765878,0.0006428543507204429
1571.7582897549446,1571.7582897549446,0.9988079529623108,0.0006420766520750309
1571.7652343483192,1571.7652343483192,1.0004705039874975,0.0006420824634509999
1571.7721789416014,1571.7721789416014,0.9993269235469917,0.000642005711253248
1571.7791235348834,1571.7791235348834,0.9996394015627494,0.0006415038466834995
1571.7860681280729,1571.7860681280729,1.0009217916953208,0.0006412533457070865
1571.7930127212614,1571.7930127212614,1.0004618145921094,0.0006412583335577792
1571.7999573144502,1571.7999573144502,0.9995229699940594,0.0006417391971645833
1571.8069019075458,1571.8069019075458,0.9992541552892762,0.0006404058564938257
1571.8138465008271,1571.8138465008271,0.9999661704773366,0.0006405895407994202
1571.8207910938304,1571.8207910938304,0.9994159945505039,0.000640390329722379
1571.8277356869264,1571.8277356869264,1.000781219637187,0.0006403950069854676
1571.834680280022,1571.834680280022,1.0010019515770956,0.0006402551859403086
1571.8416248730243,1571.8416248730243,1.0008170578888766,0.0006403634944853506
1571.8485694659335,1571.8485694659335,0.9997203611898131,0.0006401002731361588
1571.855514059122,1571.855514059122,0.9989568452880885,0.000639566657952614
1571.8624586519393,1571.8624586519393,0.9999951227170019,0.0006408504101229995
1571.8694032447554,1571.8694032447554,1.000299513214599,0.0006396361447360221
1571.8763478375715,1571.8763478375715,0.9992201604725872,0.0006393288687590295
1571.8832924308535,1571.8832924308535,0.9998119486605213,0.0006394267658725908
1571.8902370236692,1571.8902370236692,1.0004920776465194,0.0006396064911063754
1571.8971816164856,1571.8971816164856,1.000325239541016,0.0006395535221485483
1571.9041262092094,1571.9041262092094,0.9992918229864459,0.0006390696819081619
1571.911070801653,1571.911070801653,0.9995677224530759,0.0006393625639297257
1571.9180153944696,1571.9180153944696,1.0009381118419767,0.0006400146361093471
1571.9249599872855,1571.9249599872855,0.9999182176897268,0.0006389945598082789
1571.9319045801017,1571.9319045801017,1.000496955065261,0.0006394130156549662
1571.9388491724521,1571.9388491724521,1.0006302189969019,0.0006392512455348357
1571.945793765269,1571.945793765269,0.9998825284876294,0.0006389790788312267
1571.952738357713,1571.952738357713,0.9994909345771106,0.0006389830022392878
1571.9596829504362,1571.9596829504362,0.9992464442280944,0.0006389536406674382
1571.9666275427865,1571.9666275427865,1.0001100954072981,0.0006390046273023394
1571.9735721353231,1571.9735721353231,0.9999521768181239,0.0006389325009612569
1571.9805167278596,1571.9805167278596,0.9990058238749384,0.0006387101298711237
1571.9874613203042,1571.9874613203042,1.0008138486013851,0.0006389497734777621
1571.994405912655,1571.994405912655,1.000438483079022,0.000639186002138824
1572.0013505050053,1572.0013505050053,1.000578227321639,0.0006388594836587535
1572.008295097356,1572.008295097356,1.0001089907449938,0.0006386212104447214
1572.0152396897063,1572.0152396897063,0.9999212230016307,0.0006385386946940326
1572.0221842819635,1572.0221842819635,0.9992082380481992,0.0006383286878809459
1572.029128874222,1572.029128874222,0.999101249092883,0.0006386266055264705
1572.0360734664794,1572.0360734664794,1.0009400870998086,0.0006393072515535822
1572.0430180586436,1572.0430180586436,1.0003183950848944,0.0006381904536948689
1572.0499626508079,1572.0499626508079,0.9996122807936626,0.0006381466854149726
1572.056907242972,1572.056907242972,1.0003293945320861,0.0006380987935807609
1572.0638518350431,1572.0638518350431,0.9997974372854639,0.0006380257943334247
1572.0707964271146,1572.0707964271146,1.0003106931509986,0.0006379381764197032
1572.0777410191863,1572.0777410191863,0.9999043382065846,0.0006379102327957267
1572.0846856111643,1572.0846856111643,0.9998669874930792,0.0006376823701599487
1572.091630203049,1572.091630203049,0.9993450069650376,0.0006374557930589939
1572.098574795027,1572.098574795027,1.0000182491026623,0.0006370380010155043
1572.1055193869117,1572.1055193869117,1.000662656566453,0.0006370931228846228
1572.1124639787972,1572.1124639787972,0.9997509586407229,0.0006368489306444818
1572.1194085706827,1572.1194085706827,1.0004493250452657,0.0006368443057995002
1572.1263531624743,1572.1263531624743,1.0001549810419508,0.0006371337870367804
1572.1332977541724,1572.1332977541724,1.0005781234675397,0.0006368845959850167
1572.140242345871,1572.140242345871,0.9993691814245851,0.0006369279591898823
1572.1471869376628,1572.1471869376628,0.9998131366041079,0.0006368405086522002
1572.1541315293616,1572.1541315293616,0.999829908793094,0.0006365456092107798
1572.1610761209681,1572.1610761209681,0.9996844743714707,0.0006363424139806249
1572.16802071248,1572.16802071248,1.000176419807256,0.0006364629165339216
1572.1749653040854,1572.1749653040854,0.998996426898821,0.0006360716485747074
1572.181909895598,1572.181909895598,1.0001620269912632,0.0006367212406677043
1572.1888544871101,1572.1888544871101,0.9998387827975085,0.0006365823078596075
1572.195799078529,1572.195799078529,1.000814904290984,0.0006364878236295142
1572.2027436699495,1572.2027436699495,1.0003261958371807,0.0006363518179373398
1572.2096882613685,1572.2096882613685,0.9998763565071009,0.0006361172267375537
1572.2166328526948,1572.2166328526948,0.9990133315508578,0.0006359537805832244
1572.2235774441137,1572.2235774441137,0.9999486401794083,0.0006363640386614054
1572.2305220353467,1572.2305220353467,0.9997464035353723,0.0006361150717521342
1572.2374666265791,1572.2374666265791,0.999777753390196,0.0006360867557914914
1572.2444112178132,1572.2444112178132,0.9999264669033341,0.0006360069417352803
1572.2513558089536,1572.2513558089536,1.0011149865838926,0.0006361385370125819
1572.2583004000928,1572.2583004000928,1.0003527682004134,0.0006360796209386757
1572.2652449912325,1572.2652449912325,1.000303162564628,0.0006357844560982841
1572.2721895822792,1572.2721895822792,0.9991435823071454,0.0006354683966393272
1572.2791341732327,1572.2791341732327,0.9992615429691775,0.0006354903222125119
1572.2860787642799,1572.2860787642799,0.9996532300579355,0.0006354684512815653
1572.2930233552338,1572.2930233552338,1.000748739225495,0.0006359100194355722
1572.2999679461873,1572.2999679461873,1.0001866568102666,0.0006356035536101104
1572.3069125370478,1572.3069125370478,1.0004144039080458,0.0006353546428418067
1572.313857127815,1572.313857127815,0.9992423070047367,0.0006354151701639917
1572.3208017186753,1572.3208017186753,0.9998179289361937,0.0006348701215075959
1572.3277463095358,1572.3277463095358,1.0001667740499898,0.0006348107092754963
1572.3346909001175,1572.3346909001175,1.0003978984068747,0.0006350573107599194
1572.3416354909782,1572.3416354909782,1.00010038083667,0.0006350405528746532
1572.3485800815592,1572.3485800815592,1.000454441394543,0.0006351594330761773
1572.3555246720466,1572.3555246720466,0.9999277417678751,0.0006343900367459387
1572.3624692625347,1572.3624692625347,0.9993573191426514,0.0006348462096165847
1572.369413853488,1572.369413853488,1.0004197659284038,0.0006344356292393336
1572.3763584439766,1572.3763584439766,0.9997243393217564,0.0006343198958402468
1572.383303034372,1572.383303034372,0.9999662056720592,0.0006346120728220738
1572.390247624487,1572.390247624487,1.0000653349240836,0.0006342840637694113
1572.3971922149747,1572.3971922149747,1.0000252836087775,0.000634324155046167
1572.4041368054625,1572.4041368054625,1.0001700941864753,0.0006342867317746242
1572.4110813956709,1572.4110813956709,0.9994544170384516,0.0006342195193243586
1572.4180259859727,1572.4180259859727,0.9998479871692274,0.0006336805843215608
1572.424970576182,1572.424970576182,0.99980412049416,0.0006337361882895339
1572.4319151664836,1572.4319151664836,1.0003905491735992,0.0006336857116188172
1572.4388597565055,1572.4388597565055,1.0005480372179363,0.0006336237009399096
1572.445804346621,1572.445804346621,0.9997139910040629,0.0006336072597542741
1572.4527489367363,1572.4527489367363,1.0001974367451514,0.0006338663936797648
