time,time,flux,flux_err
1354.112865335369,1354.112865335369,1.000031,0.00220748
1354.1142542423113,1354.1142542423113,0.9995216,0.0022078305
1354.1170320566598,1354.1170320566598,0.9981281,0.0022054906
1354.118420963835,1354.118420963835,0.99925417,0.0022095996
1354.1198098710097,1354.1198098710097,0.9958929,0.0022061353
1354.1211987779513,1354.1211987779513,0.99860305,0.0022091554
1354.1225876851258,1354.1225876851258,0.9971212,0.0022066978
1354.123976592301,1354.123976592301,0.99866515,0.0022094978
1354.1253654994764,1354.1253654994764,1.0006437,0.0022080787
1354.126754406418,1354.126754406418,1.0002248,0.0022073358
1354.1281433135928,1354.1281433135928,0.9941851,0.0022061972
1354.129532220767,1354.129532220767,1.000344,0.002207248
1354.1309211279417,1354.1309211279417,0.9987942,0.002207671
1354.132310034884,1354.132310034884,0.9949019,0.0022064697
1354.1336989420588,1354.1336989420588,1.003295,0.0022102543
1354.135087849233,1354.135087849233,0.99966425,0.0022077481
1354.1364767561756,1354.1364767561756,0.99642634,0.0022080974
1354.13786566335,1354.13786566335,0.99987805,0.002209106
1354.1392545705253,1354.1392545705253,1.0026202,0.002211397
1354.1406434774672,1354.1406434774672,1.0012087,0.0022084776
1354.142032384641,1354.142032384641,1.0034128,0.0022086329
1354.1434212918161,1354.1434212918161,0.99942696,0.002209031
1354.1448101987585,1354.1448101987585,0.9989154,0.0022079938
1354.1461991059332,1354.1461991059332,0.9979095,0.002207483
1354.1475880131077,1354.1475880131077,1.00229,0.0022090003
1354.1489769200493,1354.1489769200493,0.9999718,0.0022083286
1354.1503658272245,1354.1503658272245,1.000789,0.0022067798
1354.151754734167,1354.151754734167,1.0025889,0.0022102515
1354.153143641341,1354.153143641341,0.9991579,0.0022074848
1354.1545325482825,1354.1545325482825,1.0013124,0.0022078254
1354.1559214554577,1354.1559214554577,0.99910843,0.002208716
1354.1573103624003,1354.1573103624003,1.0015776,0.0022094408
1354.1586992695748,1354.1586992695748,0.9952746,0.0022049446
1354.1600881765157,1354.1600881765157,0.99915594,0.0022101803
1354.161477083691,1354.161477083691,0.9993518,0.0022080455
1354.1628659906335,1354.1628659906335,0.9957258,0.002206821
1354.164254897808,1354.164254897808,0.99859416,0.002206772
1354.1656438047498,1354.1656438047498,1.0016652,0.0022084794
1354.167032711924,1354.167032711924,0.99944973,0.0022068685
1354.1684216188667,1354.1684216188667,1.001424,0.0022082299
1354.169810526042,1354.169810526042,0.9989204,0.0022050955
1354.171199432983,1354.171199432983,1.0030546,0.002210453
1354.1725883401575,1354.1725883401575,0.99804723,0.0022064054
1354.1739772471,1354.1739772471,1.0025411,0.0022088212
1354.1753661540415,1354.1753661540415,1.0002596,0.0022063737
1354.1767550612167,1354.1767550612167,1.0003811,0.0022078091
1354.1781439681586,1354.1781439681586,0.9962696,0.0022056897
1354.1795328753333,1354.1795328753333,1.0026914,0.0022085577
1354.1809217822756,1354.1809217822756,1.0018107,0.002210135
1354.182310689217,1354.182310689217,1.0017536,0.002209939
1354.1836995963924,1354.1836995963924,0.998859,0.0022066466
1354.185088503334,1354.185088503334,1.0051489,0.0022092708
1354.186477410275,1354.186477410275,0.9983393,0.0022067833
1354.1878663172176,1354.1878663172176,0.9949048,0.0022059088
1354.189255224393,1354.189255224393,1.0009087,0.0022072345
1354.1906441313345,1354.1906441313345,0.9958982,0.002206957
1354.1920330382763,1354.1920330382763,1.0034992,0.0022110702
1354.1934219454508,1354.1934219454508,1.0020535,0.0022084166
1354.1948108523934,1354.1948108523934,0.9987291,0.0022073176
1354.1961997593357,1354.1961997593357,1.0009602,0.0022090666
1354.1975886662767,1354.1975886662767,0.99928784,0.0022067586
1354.1989775734512,1354.1989775734512,0.99585056,0.0022036787
1354.2003664803938,1354.2003664803938,0.9994623,0.002205888
1354.201755387336,1354.201755387336,0.9966267,0.0022065965
1354.2031442942775,1354.2031442942775,0.9994895,0.0022066007
1354.2045332012187,1354.2045332012187,1.0003746,0.002207595
1354.2059221081613,1354.2059221081613,0.9984168,0.0022066857
1354.2073110153365,1354.2073110153365,0.99960256,0.0022076876
1354.208699922278,1354.208699922278,0.99872965,0.0022069465
1354.2100888292198,1354.2100888292198,0.9986087,0.0022058764
1354.2114777361617,1354.2114777361617,0.9982774,0.0022074098
1354.212866643104,1354.212866643104,0.9972156,0.0022072995
1354.2142555500463,1354.2142555500463,0.99980086,0.0022103125
1354.2156444569873,1354.2156444569873,0.99930334,0.0022066187
1354.2170333639292,1354.2170333639292,0.99737275,0.0022070897
1354.2184222711044,1354.2184222711044,1.0014839,0.0022075363
1354.219811178046,1354.219811178046,1.0011777,0.0022094354
1354.2212000849886,1354.2212000849886,1.0009601,0.0022084066
1354.22258899193,1354.22258899193,1.0008581,0.0022081248
1354.223977898872,1354.223977898872,0.99916524,0.0022067388
1354.2253668058142,1354.2253668058142,0.99896145,0.0022091314
1354.2267557127561,1354.2267557127561,1.000431,0.0022070257
1354.2281446196976,1354.2281446196976,1.0033404,0.0022101821
1354.2295335266394,1354.2295335266394,0.9975045,0.0022052557
1354.230922433581,1354.230922433581,0.998971,0.0022078585
1354.2323113405237,1354.2323113405237,0.9995242,0.0022086077
1354.233700247466,1354.233700247466,0.9967268,0.0022062303
1354.2350891544077,1354.2350891544077,1.0012857,0.0022083488
1354.2364780613493,1354.2364780613493,1.0002898,0.0022086278
1354.2378669680584,1354.2378669680584,1.0000447,0.002208693
1354.2392558750007,1354.2392558750007,0.9990965,0.0022062461
1354.240644781943,1354.240644781943,0.9965137,0.0022070128
1354.242033688884,1354.242033688884,0.9979732,0.0022067886
1354.243422595826,1354.243422595826,1.000597,0.0022076145
1354.2448115027682,1354.2448115027682,1.0069222,0.00221074
1354.2462004097106,1354.2462004097106,1.001788,0.0022071553
1354.2475893166525,1354.2475893166525,1.0041701,0.0022092455
1354.2489782235934,1354.2489782235934,1.0031797,0.0022099994
1354.250367130303,1354.250367130303,1.0006243,0.002209705
1354.2517560372453,1354.2517560372453,0.9984153,0.0022094522
1354.2531449441872,1354.2531449441872,0.99488246,0.002204469
1354.2545338511286,1354.2545338511286,0.9984168,0.0022064438
1354.2559227580705,1354.2559227580705,0.9996802,0.0022105281
1354.25731166478,1354.25731166478,1.0013162,0.0022087947
1354.2587005717223,1354.2587005717223,0.9996623,0.0022051446
1354.2600894786633,1354.2600894786633,0.9993931,0.002207636
1354.2614783856052,1354.2614783856052,0.9989645,0.0022096932
1354.2628672923147,1354.2628672923147,1.0030222,0.002209786
1354.2642561992566,1354.2642561992566,1.0013777,0.0022092492
1354.265645106199,1354.265645106199,1.0001534,0.0022082056
1354.2670340131406,1354.2670340131406,1.0000297,0.0022065288
1354.2684229198494,1354.2684229198494,1.0023388,0.002208744
1354.2698118267917,1354.2698118267917,0.9965572,0.0022055889
1354.2712007337336,1354.2712007337336,0.9960886,0.0022056852
1354.2725896404427,1354.2725896404427,1.0018746,0.002208276
1354.273978547384,1354.273978547384,0.99729306,0.0022060873
1354.275367454326,1354.275367454326,0.99611944,0.0022056894
1354.2767563610355,1354.2767563610355,1.0011412,0.0022084247
1354.2781452679778,1354.2781452679778,1.0012263,0.002207688
1354.2795341749197,1354.2795341749197,0.99947923,0.0022066764
1354.2809230816283,1354.2809230816283,0.9982702,0.002207626
1354.2823119885702,1354.2823119885702,0.99960786,0.0022064638
1354.2837008952797,1354.2837008952797,1.00003,0.0022071942
1354.2850898022216,1354.2850898022216,0.99972856,0.0022063863
1354.2864787091626,1354.2864787091626,0.9977522,0.002205994
1354.287867615872,1354.287867615872,0.9982596,0.002209303
1354.2892565228144,1354.2892565228144,0.9987393,0.002207716
1354.290645429524,1354.290645429524,0.99934155,0.0022082014
1354.2920343364658,1354.2920343364658,1.0004467,0.002208263
1354.293423243174,1354.293423243174,1.0002375,0.0022107095
1354.2948121501163,1354.2948121501163,1.0011995,0.00220905
1354.2962010568258,1354.2962010568258,1.0016451,0.0022078292
1354.297589963767,1354.297589963767,0.99915093,0.002207849
1354.2989788704758,1354.2989788704758,0.9994558,0.0022092538
1354.3003677774182,1354.3003677774182,1.0013338,0.0022100625
1354.3017566841277,1354.3017566841277,0.99788356,0.0022088408
1354.3031455910702,1354.3031455910702,0.9972123,0.0022055304
1354.3045344977786,1354.3045344977786,1.0006332,0.0022071905
1354.30592340472,1354.30592340472,1.0018744,0.0022086357
1354.3073123114295,1354.3073123114295,1.0009154,0.0022087796
1354.3087012181386,1354.3087012181386,1.000364,0.0022096222
1354.310090125081,1354.310090125081,1.002537,0.0022069558
1354.31147903179,1354.31147903179,0.9991696,0.0022049851
1354.3128679384988,1354.3128679384988,1.0016029,0.0022072769
1354.3142568454414,1354.3142568454414,0.99503326,0.0022043076
1354.31564575215,1354.31564575215,0.9989195,0.0022088597
1354.3170346590919,1354.3170346590919,0.9992531,0.002205429
1354.3184235658007,1354.3184235658007,0.99750173,0.00220518
1354.3198124725095,1354.3198124725095,0.9994001,0.0022083293
1354.3212013794518,1354.3212013794518,0.99820024,0.0022052613
1354.3225902861614,1354.3225902861614,0.99596876,0.002204142
1354.3239791928704,1354.3239791928704,1.0041492,0.0022100657
1354.3253680995795,1354.3253680995795,0.9981771,0.002204569
1354.326757006521,1354.326757006521,0.9988199,0.0022060026
1354.3281459132304,1354.3281459132304,1.0023062,0.002208376
1354.3295348199395,1354.3295348199395,0.9985568,0.002206159
1354.3309237266476,1354.3309237266476,1.0005025,0.0022090732
1354.33231263359,1354.33231263359,0.99999446,0.0022087821
1354.3337015402997,1354.3337015402997,0.9981989,0.0022078613
1354.3350904470094,1354.3350904470094,0.99532455,0.002206008
1354.336479353718,1354.336479353718,0.99663293,0.0022059127
1354.337868260659,1354.337868260659,0.9976497,0.0022067477
1354.3392571673687,1354.3392571673687,0.99594736,0.0022043814
1354.3406460740784,1354.3406460740784,0.9975069,0.0022064494
1354.3420349807866,1354.3420349807866,0.99789983,0.0022058901
1354.3434238874952,1354.3434238874952,0.9976777,0.0022071374
1354.344812794205,1354.344812794205,0.9962132,0.0022049518
1354.3462017009147,1354.3462017009147,0.99942845,0.0022078096
1354.347590607857,1354.347590607857,0.9994458,0.0022082308
1354.3489795145651,1354.3489795145651,0.9994614,0.002205316
1354.350368421274,1354.350368421274,0.9974154,0.002205017
1354.3517573279837,1354.3517573279837,1.004181,0.0022098164
1354.3531462346923,1354.3531462346923,0.9990344,0.0022060936
1354.3545351414014,1354.3545351414014,0.9976897,0.0022052275
1354.3559240481102,1354.3559240481102,0.9988218,0.0022066182
1354.35731295482,1354.35731295482,1.0005704,0.0022063686
1354.3587018615294,1354.3587018615294,0.9968494,0.0022069428
1354.3600907682383,1354.3600907682383,0.99861574,0.0022073905
1354.361479674947,1354.361479674947,1.0024892,0.0022105007
1354.3628685816561,1354.3628685816561,1.0014645,0.0022082615
1354.3642574883647,1354.3642574883647,0.9994609,0.0022069674
1354.3656463950745,1354.3656463950745,0.99931896,0.0022069032
1354.3670353017842,1354.3670353017842,0.9985195,0.0022051574
1354.3684242084928,1354.3684242084928,1.0008986,0.002208424
1354.3698131152019,1354.3698131152019,1.0027469,0.0022080715
1354.3712020219107,1354.3712020219107,0.9985599,0.002205367
1354.3725909286204,1354.3725909286204,0.9985837,0.002209869
1354.373979835329,1354.373979835329,1.0024855,0.0022090094
1354.3753687420372,1354.3753687420372,1.0001699,0.0022078974
1354.376757648747,1354.376757648747,1.0007676,0.0022078962
1354.3781465554566,1354.3781465554566,1.0015901,0.002209366
1354.3795354619333,1354.3795354619333,0.999208,0.0022066243
1354.3809243686421,1354.3809243686421,0.9980402,0.0022052103
1354.3823132753505,1354.3823132753505,1.0006739,0.0022080196
1354.38370218206,1354.38370218206,0.9983766,0.0022056925
1354.3850910887695,1354.3850910887695,0.99945027,0.0022055777
1354.3864799954777,1354.3864799954777,0.99823684,0.002207653
1354.3878689021867,1354.3878689021867,1.0019556,0.0022078392
1354.3892578086634,1354.3892578086634,1.0003258,0.0022073095
1354.390646715373,1354.390646715373,1.0010998,0.0022083172
1354.3920356220824,1354.3920356220824,1.0009607,0.0022081367
1354.3934245287905,1354.3934245287905,0.9990802,0.0022070915
1354.3948134352668,1354.3948134352668,0.99987805,0.0022061344
1354.3962023419763,1354.3962023419763,1.0002961,0.0022083162
1354.3975912486853,1354.3975912486853,0.9966828,0.0022053046
1354.398980155394,1354.398980155394,0.99955714,0.002205744
1354.4003690618702,1354.4003690618702,1.0002304,0.002206888
1354.4017579685797,1354.4017579685797,0.9975633,0.0022037548
1354.4031468752892,1354.4031468752892,1.0006045,0.002208689
1354.4045357819982,1354.4045357819982,1.0019947,0.002208798
1354.405924688474,1354.405924688474,1.0028057,0.0022085821
1354.407313595183,1354.407313595183,1.0039088,0.0022102082
1354.408702501892,1354.408702501892,1.0011798,0.0022069558
1354.4100914083688,1354.4100914083688,0.9966993,0.002205849
1354.4114803150783,1354.4114803150783,0.9998664,0.0022065265
1354.412869221787,1354.412869221787,1.001467,0.0022101714
1354.414258128263,1354.414258128263,0.9969946,0.00220577
1354.4156470349722,1354.4156470349722,0.99632907,0.0022058862
1354.4170359414488,1354.4170359414488,0.99819934,0.0022046843
1354.4184248481579,1354.4184248481579,1.0017183,0.002207937
1354.419813754866,1354.419813754866,0.9986024,0.002205471
1354.4212026613427,1354.4212026613427,0.99874943,0.0022050429
1354.4225915680522,1354.4225915680522,1.001056,0.0022087356
1354.423980474529,1354.423980474529,1.0009878,0.0022076366
1354.425369381238,1354.425369381238,1.0025454,0.002208246
1354.4267582877133,1354.4267582877133,1.0024693,0.0022075009
1354.4281471944228,1354.4281471944228,0.99826753,0.002207673
1354.4295361008994,1354.4295361008994,1.0001504,0.0022071041
1354.4309250076076,1354.4309250076076,1.000997,0.0022072839
1354.4323139140838,1354.4323139140838,1.0017742,0.002208694
1354.4337028207933,1354.4337028207933,0.99776345,0.002204506
1354.43509172727,1354.43509172727,0.99917835,0.0022069828
1354.4364806339795,1354.4364806339795,1.0017806,0.0022074569
1354.4378695404548,1354.4378695404548,0.9960249,0.0022039786
1354.4392584471639,1354.4392584471639,1.0036998,0.0022100916
1354.4406473536405,1354.4406473536405,1.0007176,0.0022085
1354.4420362603496,1354.4420362603496,0.9962005,0.0022046089
1354.4434251668256,1354.4434251668256,1.0034385,0.0022084895
1354.4448140733016,1354.4448140733016,1.0015162,0.0022093414
1354.446202980011,1354.446202980011,0.99771684,0.0022068748
1354.4475918864878,1354.4475918864878,0.9990635,0.002206654
1354.4489807931968,1354.4489807931968,1.0000614,0.0022078163
1354.450369699673,1354.450369699673,1.0032346,0.0022094424
1354.4517586061488,1354.4517586061488,1.0002099,0.0022063002
1354.4531475128579,1354.4531475128579,1.0001537,0.0022069693
1354.4545364193345,1354.4545364193345,0.99919194,0.0022050554
1354.4559253258112,1354.4559253258112,0.99955845,0.0022061332
1354.4573142325203,1354.4573142325203,0.99826014,0.0022059686
1354.4587031389963,1354.4587031389963,0.99959433,0.0022058259
1354.4600920454723,1354.4600920454723,0.9969919,0.0022063463
1354.461480951949,1354.461480951949,0.9960318,0.002204812
1354.462869858658,1354.462869858658,1.0001645,0.0022089905
1354.4642587651333,1354.4642587651333,0.9997229,0.002207237
1354.46564767161,1354.46564767161,0.99791306,0.0022046962
1354.4670365780867,1354.4670365780867,0.99924886,0.002205604
1354.4684254847962,1354.4684254847962,0.9978778,0.0022059542
1354.4698143912724,1354.4698143912724,0.99929816,0.002206349
1354.4712032977477,1354.4712032977477,1.0004903,0.0022087852
1354.4725922042244,1354.4725922042244,0.9986592,0.0022079211
1354.473981110934,1354.473981110934,0.99983793,0.0022053826
1354.4753700174094,1354.4753700174094,0.99769306,0.0022073174
1354.4767589238854,1354.4767589238854,0.99931735,0.0022062676
1354.478147830362,1354.478147830362,0.9963948,0.002204819
1354.479536736839,1354.479536736839,0.9955169,0.0022030764
1354.480925643316,1354.480925643316,0.9996276,0.0022078978
1354.4823145497912,1354.4823145497912,0.9985443,0.0022070012
1354.4837034564998,1354.4837034564998,0.99872696,0.0022054985
1354.4850923629767,1354.4850923629767,1.0012677,0.0022060962
1354.4864812694527,1354.4864812694527,0.9969426,0.0022044475
1354.487870175929,1354.487870175929,0.99891776,0.0022060922
1354.4892590824047,1354.4892590824047,0.99820745,0.002207208
1354.4906479888816,1354.4906479888816,0.9988043,0.002206376
1354.4920368953585,1354.4920368953585,0.9994494,0.0022066848
1354.4934258018343,1354.4934258018343,0.99698883,0.0022054566
1354.4948147083105,1354.4948147083105,1.0020136,0.002207693
1354.4962036147865,1354.4962036147865,1.0006025,0.0022084736
1354.4975925212625,1354.4975925212625,1.0022992,0.0022071914
1354.4989814277392,1354.4989814277392,0.9984562,0.002205526
1354.500370334216,1354.500370334216,0.9994671,0.0022048969
1354.501759240692,1354.501759240692,0.99894685,0.0022070184
1354.5031481471683,1354.5031481471683,1.0025715,0.0022079241
1354.504537053644,1354.504537053644,0.9943449,0.0022039758
1354.505925960121,1354.505925960121,1.0012327,0.002205668
1354.507314866597,1354.507314866597,0.9993478,0.0022065213
1354.5087037730723,1354.5087037730723,0.9982658,0.002204873
1354.510092679549,1354.510092679549,1.0016166,0.0022090618
1354.5114815860259,1354.5114815860259,0.9997177,0.0022054466
1354.5128704925028,1354.5128704925028,1.0003635,0.002208707
1354.5142593989785,1354.5142593989785,1.0011252,0.0022075372
1354.515648305221,1354.515648305221,1.0003998,0.0022073952
1354.517037211698,1354.517037211698,1.004025,0.0022086008
1354.5184261181748,1354.5184261181748,0.9960498,0.0022039595
1354.5198150246501,1354.5198150246501,1.0026443,0.0022074245
1354.5212039311261,1354.5212039311261,1.0014753,0.0022084299
1354.522592837603,1354.522592837603,0.9989739,0.0022051057
1354.5239817440797,1354.5239817440797,0.9972485,0.002206922
1354.5253706503236,1354.5253706503236,0.99897945,0.0022061476
1354.5267595567989,1354.5267595567989,1.0012193,0.0022082718
1354.528148463275,1354.528148463275,1.0039506,0.0022107805
1354.5295373697518,1354.5295373697518,0.999823,0.0022061365
1354.5309262762275,1354.5309262762275,1.0011892,0.0022081968
1354.532315182471,1354.532315182471,1.0013794,0.002208792
1354.5337040889472,1354.5337040889472,0.997929,0.002205189
1354.5350929954238,1354.5350929954238,0.99907464,0.0022075889
1354.5364819019005,1354.5364819019005,0.99660456,0.0022063283
1354.537870808144,1354.537870808144,0.999745,0.002208478
1354.5392597146197,1354.5392597146197,0.99917644,0.002205763
1354.540648621096,1354.540648621096,0.9958137,0.0022040815
1354.542037527339,1354.542037527339,1.0000942,0.0022057816
1354.543426433816,1354.543426433816,0.9993372,0.0022064012
1354.5448153402926,1354.5448153402926,1.0020266,0.0022072538
1354.5462042465356,1354.5462042465356,0.99533826,0.0022040766
1354.5475931530118,1354.5475931530118,0.9991361,0.0022066566
1354.548982059488,1354.548982059488,1.0030112,0.002207133
1354.5503709657319,1354.5503709657319,0.998578,0.0022066084
1354.5517598722076,1354.5517598722076,0.99908245,0.002208224
1354.5531487786832,1354.5531487786832,1.0037367,0.0022094673
1354.5545376849273,1354.5545376849273,1.0006527,0.0022064094
1354.555926591404,1354.555926591404,1.0075002,0.0022116587
1354.5573154976478,1354.5573154976478,1.0052356,0.0022104876
1354.558704404124,1354.558704404124,1.0038357,0.002208429
1354.5600933103665,1354.5600933103665,1.0037364,0.002208338
1354.5614822168432,1354.5614822168432,1.0038131,0.0022080038
1354.5628711233198,1354.5628711233198,0.9990847,0.0022073798
1354.5642600295623,1354.5642600295623,1.000781,0.0022070077
1354.5656489360385,1354.5656489360385,1.0030109,0.0022097651
1354.5670378422824,1354.5670378422824,1.0054176,0.0022114522
1354.568426748759,1354.568426748759,1.0029733,0.0022096909
1354.569815655003,1354.569815655003,1.0028721,0.0022085663
1354.5712045614782,1354.5712045614782,1.0058066,0.0022120234
1354.5725934677216,1354.5725934677216,1.0020374,0.0022088932
