time,time,flux,flux_err
1385.953653448861,1385.953653448861,0.9999060313086963,0.0007784504100198358
1385.9619869831422,1385.9619869831422,1.0005242714977685,0.0007786138814141659
1385.9703205173646,1385.9703205173646,0.9988441246763102,0.0007782648258268242
1385.9786540514897,1385.9786540514897,1.0005391725422037,0.0007788111102374184
1385.986293124426,1385.986293124426,1.0006620278836202,0.0007112321447168939
1385.9932377361104,1385.9932377361104,0.9996405743528392,0.000710801895678924
1386.000182347725,1386.000182347725,1.000729259498756,0.0007112272257433536
1386.0071269593632,1386.0071269593632,0.999564519954362,0.0007110799630670996
1386.0140715709315,1386.0140715709315,1.0000651752593706,0.0007112273615264726
1386.0210161823825,1386.0210161823825,0.9992509727058183,0.0007108671346965294
1386.0279607938583,1386.0279607938583,1.0004596415118219,0.0007112371227085201
1386.0349054052633,1386.0349054052633,1.0005992957486152,0.0007113219686963596
1386.0418500166447,1386.0418500166447,0.9994368517494223,0.0007110126681819426
1386.0487946279572,1386.0487946279572,0.9995021886324487,0.000711078663632198
1386.0557392392461,1386.0557392392461,0.9996388368781808,0.0007111206396519191
1386.0626838504643,1386.0626838504643,1.000214433944989,0.0007108844106777116
1386.0696284616602,1386.0696284616602,1.000621188797308,0.0007112787225463885
1386.0765730727865,1386.0765730727865,1.0007545027601679,0.0007112411610824542
1386.0835176838882,1386.0835176838882,0.9994270265240892,0.0007108949081720125
1386.0904622948976,1386.0904622948976,0.9997152768958161,0.0007110093306093301
1386.097406905977,1386.097406905977,0.9995587807044455,0.0007110206839613053
1386.1043515168928,1386.1043515168928,1.001061691926929,0.0007114289772996842
1386.1112961277859,1386.1112961277859,0.9997303284856545,0.0007107267761361706
1386.118240738656,1386.118240738656,0.9992811177111551,0.0007109901097046376
1386.125185349479,1386.125185349479,0.9998229680959423,0.0007108752967310194
1386.1321299602546,1386.1321299602546,1.0003573457074348,0.0007109952589785371
1386.139074570962,1386.139074570962,1.0001731554049162,0.0007109963825524646
1386.1460191816454,1386.1460191816454,0.999562703568279,0.0007107762969946209
1386.152963792305,1386.152963792305,0.9998854827496876,0.0007109112214590806
1386.159908402896,1386.159908402896,1.0003919791295437,0.0007110022193292705
1386.1668530134398,1386.1668530134398,1.0007822488924902,0.0007111082697910782
1386.173797623936,1386.173797623936,1.0002355873384996,0.0007110063007624422
1386.1807422343868,1386.1807422343868,0.9990035970049558,0.0007108960603524229
1386.187686844768,1386.187686844768,0.9997910254875901,0.0007108763582221006
1386.194631455148,1386.194631455148,1.0002286456929663,0.0007112293044676068
1386.2015760654824,1386.2015760654824,1.000100119101629,0.0007110963370726509
1386.2085206757467,1386.2085206757467,0.9999505175226648,0.0007112241034058561
1386.2154652859876,1386.2154652859876,1.0005309663525597,0.0007111517515316021
1386.2224098961585,1386.2224098961585,0.9999832309243455,0.0007111362044987348
1386.2293545062837,1386.2293545062837,0.9995931928397868,0.0007111388597870243
1386.236299116385,1386.236299116385,0.9994395959156568,0.0007109793948617157
1386.2432437264156,1386.2432437264156,1.0004143418413673,0.0007112824299011401
1386.2501883364243,1386.2501883364243,0.9997037601764271,0.0007112306189084336
1386.2571329463865,1386.2571329463865,1.0009166576848352,0.0007115481155120009
1386.2640775562772,1386.2640775562772,1.000155567702593,0.0007112390060228408
1386.2710221661696,1386.2710221661696,0.999776076669337,0.0007110182339844687
1386.2779667759917,1386.2779667759917,0.9998236794198258,0.0007111561480592791
1386.2849113857433,1386.2849113857433,0.9992748321726139,0.0007111028459007492
1386.291855995472,1386.291855995472,1.0001312145188486,0.0007111672507353775
1386.2988006051314,1386.2988006051314,0.9998900383803264,0.0007109552904672007
1386.3057452147902,1386.3057452147902,1.0004386817992716,0.000711236496522759
1386.3126898243554,1386.3126898243554,0.9997269079469273,0.0007111228450162253
1386.3196344339215,1386.3196344339215,1.0003382949914308,0.0007113164238054537
1386.3265790434177,1386.3265790434177,0.9999997913909044,0.0007110930136207284
1386.3335236528665,1386.3335236528665,0.9995296492857134,0.0007108071038647625
1386.34046826227,1386.34046826227,1.0003992233181236,0.000710992346674564
1386.3474128716266,1386.3474128716266,0.9992739043644567,0.0007105143374295691
1386.3543574809587,1386.3543574809587,0.9998905703201638,0.0007107911324578897
1386.361302090199,1386.361302090199,1.0012608577329298,0.0007112198237317963
1386.3693578368905,1386.3693578368905,0.999603597224206,0.000710803240721689
1386.3765802304747,1386.3765802304747,0.9992630616831655,0.0007109824023468172
1386.3835248395985,1386.3835248395985,0.9998612766809,0.0007107992358754312
1386.3904694486757,1386.3904694486757,1.000244466034356,0.00071102623971694
1386.3974140577059,1386.3974140577059,1.000911484137664,0.0007112849583836631
1386.4043586667124,1386.4043586667124,0.9993869387546006,0.0007107891435636796
1386.41130327565,1386.41130327565,0.9987613521937542,0.000710812659694556
1386.4182478845637,1386.4182478845637,0.9993746239569227,0.000710992816336644
1386.4251924934074,1386.4251924934074,1.0004099069031411,0.00071122893502373
1386.4321371022052,1386.4321371022052,1.0003210540298644,0.0007111889316632895
1386.43908171098,1386.43908171098,1.000675733806629,0.0007112024565516939
1386.44602631973,1386.44602631973,1.0000633443229696,0.0007109982456734837
1386.4529709283647,1386.4529709283647,1.000561495506436,0.0007112903667953242
1386.459915537,1386.459915537,1.0000389218704318,0.0007110748484437957
1386.4668601455871,1386.4668601455871,0.9994369711169409,0.000710882935413842
1386.4738047541282,1386.4738047541282,0.9999534680507971,0.0007109408668998934
1386.4807493626236,1386.4807493626236,0.9994737844615391,0.0007111437635668519
1386.4876939710716,1386.4876939710716,0.9988617940142465,0.0007108221929552053
1386.4946385794728,1386.4946385794728,1.0002931588508888,0.000711326979515407
1386.5015831878513,1386.5015831878513,1.001821820143979,0.0007117307674147491
1386.5085277961368,1386.5085277961368,1.0001491603785837,0.000711180360469858
1386.5154724043982,1386.5154724043982,0.9996639868387529,0.0007111149538353152
1386.522417012637,1386.522417012637,1.00000061939974,0.0007113479365123474
1386.5293616208066,1386.5293616208066,0.9989401054822882,0.0007110131831141724
1386.5363062289516,1386.5363062289516,1.0005292851592853,0.0007113836023364048
1386.5432508370036,1386.5432508370036,0.9996779094120587,0.0007113122562832168
1386.550195445057,1386.550195445057,1.0003044311752738,0.0007113374856655801
1386.5571400530857,1386.5571400530857,1.0001341858847215,0.0007110761903745633
1386.5649180139642,1386.5649180139642,0.9994613036152773,0.000711186368877777
1386.5724181905218,1386.5724181905218,1.0004588477161107,0.0007114196990887883
1386.5793627983649,1386.5793627983649,0.9999709672005347,0.0007110748563515078
1386.5863074061604,1386.5863074061604,1.0004816045032472,0.0007110040095126449
1386.5932520139336,1386.5932520139336,1.0000409586494443,0.000710899229843774
1386.6001966216372,1386.6001966216372,0.9995793294969342,0.0007108424008800189
1386.6071412293165,1386.6071412293165,0.9998786531824692,0.0007110332189696961
1386.61408583695,1386.61408583695,0.9994157704349863,0.0007109750122469412
1386.6210304445135,1386.6210304445135,1.0000277679161702,0.0007111069859724584
1386.6279750521003,1386.6279750521003,1.0012307515310246,0.0007114596702652223
1386.6349196595702,1386.6349196595702,0.9999322450877072,0.000711058924315702
1386.641864267041,1386.641864267041,0.9999772865379299,0.0007111408720278492
1386.6488088743952,1386.6488088743952,1.0003930303555224,0.0007111084945030659
1386.6557534817716,1386.6557534817716,0.999538226965209,0.0007112057985674011
1386.662698089056,1386.662698089056,0.9984746526380835,0.0007106926924820479
1386.6696426963404,1386.6696426963404,0.9997446459291652,0.0007109825982656544
1386.676587303554,1386.676587303554,1.0001141756112382,0.0007113314807670015
1386.6835319107217,1386.6835319107217,1.0009465595576672,0.0007112959649141803
1386.6904765178897,1386.6904765178897,1.0000746070663467,0.0007113663902126961
1386.6974211249874,1386.6974211249874,1.000345950067435,0.000711268442309401
1386.7043657320148,1386.7043657320148,1.0005006494433053,0.000711279278044362
1386.71131033902,1386.71131033902,1.0000748351034763,0.0007112638543319988
1386.7182549459553,1386.7182549459553,0.9999413364204746,0.0007112962869349271
1386.7251995528427,1386.7251995528427,0.9992791331230679,0.0007108259966842691
1386.732144159731,1386.732144159731,0.9999547689548836,0.0007111496762652873
1386.7390887665501,1386.7390887665501,0.9990454808354052,0.0007108631845706686
1386.7460333733216,1386.7460333733216,1.0009782388803528,0.0007115901581477195
1386.7529779800466,1386.7529779800466,1.0002190355747875,0.0007112631068712319
1386.759922586726,1386.759922586726,0.9992918493436399,0.0007110680187907539
1386.7668671933814,1386.7668671933814,1.000936359156762,0.0007115379785836717
1386.7746451527462,1386.7746451527462,0.9995166226787628,0.000711146553715115
1386.7821453278134,1386.7821453278134,1.0006625588971514,0.0007112458592988403
1386.7890899343063,1386.7890899343063,0.9998143575877732,0.0007110844846127289
1386.7960345407514,1386.7960345407514,0.9992761271772744,0.0007110032595519166
1386.802979147174,1386.802979147174,0.9998269109849334,0.0007110598937916754
1386.8099237535039,1386.8099237535039,0.9996377439607844,0.000711277326544433
1386.81686835981,1386.81686835981,1.001438437918758,0.0007115443458226168
1386.8238129661156,1386.8238129661156,0.9998992745614373,0.000711373829576188
1386.8307575723525,1386.8307575723525,0.9991319100768893,0.0007113133379472062
1386.8377021785425,1386.8377021785425,1.0001876909891894,0.0007112997470211093
1386.8446467846386,1386.8446467846386,1.0003885123077176,0.0007114537622249884
1386.8515913907586,1386.8515913907586,1.0002731722890714,0.0007115132023219134
1386.8585359968092,1386.8585359968092,1.0006360557812983,0.000711581157830156
1386.865480602812,1386.865480602812,1.0002594548741741,0.0007115788953547
1386.8724252087459,1386.8724252087459,0.9988178584103782,0.0007112714460198728
1386.8793698146565,1386.8793698146565,0.9989338750129626,0.0007113398116569715
1386.8863144205436,1386.8863144205436,1.0003658887935858,0.0007115334417243007
1386.8932590263835,1386.8932590263835,1.0005331893455358,0.0007113401955613668
1386.900203632108,1386.900203632108,0.9983994136169138,0.000710942336380305
1386.9071482378324,1386.9071482378324,1.0009319158738397,0.0007115417918198751
1386.9140928435565,1386.9140928435565,1.0003293700056841,0.0007115696117528504
1386.92103744921,1386.92103744921,1.000362080393592,0.0007114577555385704
1386.9279820548186,1386.9279820548186,1.0010217722526504,0.0007115975098442942
1386.9349266603565,1386.9349266603565,0.9997319046978431,0.0007110886899655947
1386.9418712658703,1386.9418712658703,0.9994789416608756,0.0007110897490426049
1386.9488158713389,1386.9488158713389,1.0012654197174853,0.0007114800878622273
1386.9557604767601,1386.9557604767601,0.9995008939443079,0.0007111947958477751
1386.9627050821346,1386.9627050821346,0.9989787016563417,0.000710964812365018
1386.969649687463,1386.969649687463,0.9995945654844883,0.0007109771998234353
1386.9765942927452,1386.9765942927452,1.001100424444682,0.0007114180620150396
1386.984927819032,1386.984927819032,1.0001258833145703,0.0007112184506510889
1386.9918724241968,1386.9918724241968,1.001106629676316,0.000711289377710351
1386.998817029339,1386.998817029339,0.9992699795914979,0.0007109485845668605
1387.0057616344586,1387.0057616344586,0.9993944766906191,0.0007108894236777852
1387.0127062395297,1387.0127062395297,1.0007356113289962,0.0007110678281273772
1387.0196508445322,1387.0196508445322,0.9999634122477785,0.0007112066917091544
1387.0265954494885,1387.0265954494885,0.9997726693664083,0.00071114960635381
1387.0335400544209,1387.0335400544209,0.9995757923108253,0.0007108363130033648
1387.0404846592828,1387.0404846592828,0.999492049237001,0.0007109008083777378
1387.047429264123,1387.047429264123,1.0011735143600669,0.0007114742356727441
1387.0543738688928,1387.0543738688928,0.999957296255525,0.000710979472173415
1387.0613184736617,1387.0613184736617,0.9994569933103602,0.000711056665530255
1387.068263078361,1387.068263078361,1.0002336352956445,0.0007113624307362283
1387.0752076829913,1387.0752076829913,1.0006550548310815,0.0007113436121366046
1387.0821522876445,1387.0821522876445,0.9995483141995614,0.0007110531764869839
1387.089096892204,1387.089096892204,1.000377998625336,0.0007112788066642403
1387.0960414966944,1387.0960414966944,0.9995386494374836,0.0007110047192890436
1387.1029861011616,1387.1029861011616,0.9996133353510034,0.0007109584751076859
1387.1099307056043,1387.1099307056043,0.9997576198162313,0.0007110835309040895
1387.1168753099785,1387.1168753099785,0.9995415162977015,0.0007110826080983218
1387.1238199143293,1387.1238199143293,1.00046738597401,0.0007109672388120645
1387.1307645186096,1387.1307645186096,1.0009072473482559,0.0007111403571883468
1387.1377091228665,1387.1377091228665,0.9997900788195675,0.0007109951410343322
1387.1446537271006,1387.1446537271006,1.0004926705220536,0.0007113269181099536
1387.1515983312422,1387.1515983312422,0.9993304233872025,0.0007109338464112344
1387.158542935359,1387.158542935359,1.000127789229667,0.0007112425454628006
1387.1654875394534,1387.1654875394534,1.0000172606054876,0.0007113372150013347
1387.1724321434317,1387.1724321434317,1.0000996668017152,0.0007112307922580058
1387.1793767474096,1387.1793767474096,1.0010169533710291,0.0007112829509470997
1387.1863213513866,1387.1863213513866,0.9996225327273593,0.0007109918957574913
1387.1932659552954,1387.1932659552954,0.9981695099217809,0.0007106372306354868
1387.2002105591569,1387.2002105591569,1.000471643874584,0.0007113788961839646
1387.207155162925,1387.207155162925,0.999885666168821,0.0007111194513478999
1387.2140997667163,1387.2140997667163,0.9996882378723674,0.0007109994026256372
1387.2210443704384,1387.2210443704384,1.0002686166357937,0.0007110872043857284
1387.2279889741142,1387.2279889741142,1.0009529693001908,0.0007113664685474809
1387.2349335777187,1387.2349335777187,1.000382824062859,0.000711141348123786
1387.2418781813008,1387.2418781813008,1.0000223826809762,0.00071092388822494
1387.2488227848369,1387.2488227848369,0.9989737933625722,0.0007106825597490677
1387.2557673883725,1387.2557673883725,1.0001986159721499,0.0007112156552672558
1387.2627119917677,1387.2627119917677,1.000987821361132,0.0007112048871249707
1387.269656595164,1387.269656595164,0.9994590863568883,0.0007108054101719419
1387.27660119856,1387.27660119856,0.99987579466274,0.0007109743617846107
1387.283545801885,1387.283545801885,0.9996797974776038,0.0007109061590169137
1387.2904904051647,1387.2904904051647,1.0003279222225603,0.0007110116646714358
1387.297435008398,1387.297435008398,1.0000024400347711,0.0007110815635992839
1387.304379611561,1387.304379611561,0.9984290643410898,0.0007104946195235864
1387.3129909194454,1387.3129909194454,1.0001491563695086,0.000710972231830679
1387.3210466590353,1387.3210466590353,1.000227114141214,0.0007108495946501208
1387.3279912620594,1387.3279912620594,1.001131564198353,0.0007111400020338245
1387.3363247856444,1387.3363247856444,1.00120115706804,0.0007111162712831045
1387.3432693885982,1387.3432693885982,0.999469072038897,0.0007107354561300278
1387.35104734382,1387.35104734382,0.999193313805249,0.0007106821125487351
1387.3585475149048,1387.3585475149048,1.000280092891008,0.000710945385776736
1387.3654921177185,1387.3654921177185,0.9998570599219081,0.0007109086101196635
1387.3724367204163,1387.3724367204163,0.9990297980379779,0.0007107104629968326
1387.379381323137,1387.379381323137,1.000186183977868,0.0007109919500814571
1387.3863259257867,1387.3863259257867,1.000651426774916,0.0007113442883231993
1387.3932705284149,1387.3932705284149,1.0002968881682262,0.0007110900835365544
1387.4002151309958,1387.4002151309958,1.0009926985234734,0.0007112681541040791
1387.40715973353,1387.40715973353,0.9992432637971549,0.0007108583175937558
1387.4141043359941,1387.4141043359941,0.9992185653962073,0.0007108205885184363
1387.421048938436,1387.421048938436,0.9992907935206501,0.0007108900628546853
1387.4279935408076,1387.4279935408076,0.9999229300024742,0.0007109017449040533
1387.4349381431782,1387.4349381431782,1.0001958801086197,0.000711019279449853
1387.4418827455029,1387.4418827455029,1.0000767512599267,0.0007109649639269136
1387.4488273477587,1387.4488273477587,1.0006946424199619,0.0007112015356292563
1387.4557719499903,1387.4557719499903,1.0002056006006275,0.0007109700800698265
1387.4627165521283,1387.4627165521283,0.999762725270989,0.0007109484095955322
1387.4696611542672,1387.4696611542672,0.999779304239165,0.000710738201646493
1387.4766057563593,1387.4766057563593,1.0005744215769614,0.0007107603604153913
1387.483550358381,1387.483550358381,0.9996983645216823,0.000710827458526292
1387.4904949603797,1387.4904949603797,1.0000252142833346,0.0007107493222168038
1387.4974395623556,1387.4974395623556,1.000768018817513,0.0007112009921619761
1387.5043841642384,1387.5043841642384,0.9993144604623391,0.0007106534358828576
1387.5113287660965,1387.5113287660965,1.0001929408093264,0.0007109505453704593
1387.5182733679326,1387.5182733679326,0.9995738291501747,0.000710662276733928
1387.5252179696993,1387.5252179696993,1.0000451748188297,0.0007109424953334368
1387.5321625713955,1387.5321625713955,0.9991951609195933,0.0007105727246727595
1387.539107173161,1387.539107173161,1.0006701911884324,0.0007110510008101555
1387.546051774764,1387.546051774764,0.9994067733358613,0.0007107902412753624
1387.5529963763443,1387.5529963763443,1.0009565504254343,0.0007112031998328751
1387.5599409779004,1387.5599409779004,1.0008256044183708,0.000711321493747421
1387.5668855794102,1387.5668855794102,0.9999462645200229,0.0007109422362378828
1387.5738301808738,1387.5738301808738,0.9991858266521213,0.0007108529536544445
1387.5807747823142,1387.5807747823142,1.0007957680745225,0.0007111267723492531
1387.5877193836836,1387.5877193836836,0.9989409642850626,0.000710982786528242
1387.5946639850074,1387.5946639850074,0.999506274613769,0.0007111403022651741
1387.601608586308,1387.601608586308,0.9993712905261465,0.0007110426082429764
1387.6085531875385,1387.6085531875385,1.0007959938911326,0.0007111840137917566
1387.615497788745,1387.615497788745,1.000625183548615,0.0007113244357117052
1387.6224423899062,1387.6224423899062,1.0006350357776925,0.0007112652925840245
1387.6293869909973,1387.6293869909973,0.9997419342488241,0.0007110878181795839
1387.6363315920648,1387.6363315920648,0.9997278379382081,0.000711015588795913
1387.6432761931087,1387.6432761931087,0.9990844412188451,0.0007106999318055248
1387.65022079406,1387.65022079406,1.0007732370316766,0.000711243810584254
1387.6571653949882,1387.6571653949882,0.9992592475382109,0.0007107956948885369
1387.664109995892,1387.664109995892,0.9999930998639893,0.0007109172556072913
1387.671054596727,1387.671054596727,1.0005881484038501,0.0007112224303818511
1387.6779991975616,1387.6779991975616,1.000888849663865,0.0007113106752814522
1387.6849437982805,1387.6849437982805,0.9999493945383943,0.0007111125388159464
1387.691888399021,1387.691888399021,1.0003958274369626,0.0007110697066632309
1387.6988329996698,1387.6988329996698,0.9995481061930096,0.0007109470935055616
1387.7057776002953,1387.7057776002953,0.9993273288151089,0.0007111400559460981
1387.7127222008971,1387.7127222008971,0.999726247644342,0.0007110603534660085
1387.7196668013817,1387.7196668013817,0.999988645586727,0.0007110856989376817
1387.726611401868,1387.726611401868,1.000007610409923,0.0007108941385964953
1387.7335560023537,1387.7335560023537,1.0004859117851117,0.0007111180293412597
1387.740500602746,1387.740500602746,1.0001635614406408,0.0007111363774820887
