time,time,flux,flux_err
1325.3004501968944,1325.3004501968944,0.9998913337742897,0.0005645415148194633
1325.30878354203,1325.30878354203,1.0000655562449026,0.0005648697102464952
1325.3171168873214,1325.3171168873214,1.00016915361519,0.000565198777773701
1325.325450232748,1325.325450232748,1.0005061364568226,0.0005654909421705138
1325.3330891328956,1325.3330891328956,0.9993689051033675,0.0005163960545291453
1325.340033587698,1325.340033587698,0.9998724504526167,0.0005166574981818598
1325.3469780426171,1325.3469780426171,1.0002354601358978,0.0005169727441785774
1325.353922497652,1325.353922497652,1.000386482221003,0.0005171685387153819
1325.3608669528037,1325.3608669528037,0.9990184852809175,0.0005170806351965093
1325.3678114080722,1325.3678114080722,0.9996167796987819,0.0005172962238131883
1325.3747558634095,1325.3747558634095,1.0007328224198908,0.0005175453132149951
1325.3817003189108,1325.3817003189108,0.9994235047859907,0.0005173912685331932
1325.3886447744815,1325.3886447744815,1.0002114553357446,0.0005176051638740165
1325.3955892301917,1325.3955892301917,0.9999109268355882,0.0005176144241388692
1325.4025336859954,1325.4025336859954,1.0006126079026483,0.0005177466525466908
1325.4094781419153,1325.4094781419153,1.0002583607024882,0.0005177508213364792
1325.4164225979052,1325.4164225979052,0.9998059894837358,0.0005177059142139344
1325.423367054058,1325.423367054058,0.9995452357404341,0.0005176686100178147
1325.4303115102575,1325.4303115102575,0.9999156687388429,0.0005176645113418234
1325.4372559665967,1325.4372559665967,1.0000372034066216,0.0005177895604719435
1325.444200423052,1325.444200423052,0.9998011374752582,0.0005178123891703842
1325.451144879554,1325.451144879554,0.9997574769723034,0.0005178356580137631
1325.4580893361726,1325.4580893361726,1.0006934405382828,0.0005180274018834805
1325.4650337929306,1325.4650337929306,1.0012958982084008,0.000518112902584779
1325.4719782497355,1325.4719782497355,0.9995852335863928,0.0005178688673808194
1325.4789227066567,1325.4789227066567,1.0000649622966793,0.0005180595088741741
1325.485867163671,1325.485867163671,0.9997095808874796,0.0005181217970658456
1325.4928116208018,1325.4928116208018,0.9998574079618896,0.0005182125369532146
1325.4997560780255,1325.4997560780255,1.0002160027142577,0.0005183511864775384
1325.5067005352962,1325.5067005352962,0.9999246051063176,0.0005183974542308817
1325.5136449927295,1325.5136449927295,1.0000027154212856,0.0005184353112722527
1325.5205894502094,1325.5205894502094,1.000247664810025,0.0005186189102525847
1325.5275339077823,1325.5275339077823,0.9996988103404343,0.00051861856732951
1325.5344783654252,1325.5344783654252,1.0002966862180593,0.0005188097757429357
1325.541422823208,1325.541422823208,0.9995258337389302,0.0005187675485434946
1325.5483672810374,1325.5483672810374,1.0000414505318074,0.0005189648966397134
1325.5553117389827,1325.5553117389827,1.000166713305317,0.0005189703176675342
1325.5622561969983,1325.5622561969983,0.9997161165119033,0.0005190401405997063
1325.5692006551071,1325.5692006551071,1.0004272342487854,0.000519205863258249
1325.576145113262,1325.576145113262,1.0004437038761285,0.0005192740282371133
1325.5830895715803,1325.5830895715803,0.9995903517838668,0.0005192253892032387
1325.590034029898,1325.590034029898,1.0002491806451193,0.0005193677748962549
1325.5969784883564,1325.5969784883564,0.9990102934423541,0.000519226422880538
1325.6039229468838,1325.6039229468838,1.0002092441624622,0.0005193786167667872
1325.6108674054815,1325.6108674054815,1.0002976174612903,0.0005195932016078712
1325.6178118641255,1325.6178118641255,1.000058680756247,0.0005195303460929108
1325.6247563229329,1325.6247563229329,1.000049899300884,0.000519512161086635
1325.63170078174,1325.63170078174,1.000126897381518,0.0005194900352067977
1325.6386452406168,1325.6386452406168,0.9999003146481907,0.000519456874645395
1325.6455896996333,1325.6455896996333,0.9996761818426105,0.0005194281967393293
1325.65253415865,1325.65253415865,1.0007985343625958,0.0005196038046505709
1325.6594786178061,1325.6594786178061,0.9996838992437953,0.0005193791871896546
1325.6664230770093,1325.6664230770093,0.9993288859476094,0.00051931248326149
1325.6733675363052,1325.6733675363052,0.9998280560621715,0.0005193688427379423
1325.6803119956014,1325.6803119956014,1.0003770326644832,0.0005194333097881252
1325.6872564550606,1325.6872564550606,1.0000104865569155,0.0005194284286733666
1325.6942009145428,1325.6942009145428,1.0001621310789452,0.0005194744678324003
1325.7011453741186,1325.7011453741186,1.0000764651934297,0.0005194694645718487
1325.708089833717,1325.708089833717,1.0002944417460602,0.0005194170019817005
1325.7150342934322,1325.7150342934322,0.9997636906631213,0.0005195213239104544
1325.7219787531703,1325.7219787531703,1.0001884788778042,0.0005196702036891676
1325.728923213002,1325.728923213002,1.0004963771290507,0.0005198483448118957
1325.7358676729266,1325.7358676729266,0.9996052774579214,0.0005197314506770583
1325.7428121328978,1325.7428121328978,0.9999874598266185,0.0005198062313116123
1325.749756592869,1325.749756592869,0.9995467873158178,0.0005198214592896784
1325.7567010529801,1325.7567010529801,1.0003551984330712,0.0005200001067765848
1325.7636455131144,1325.7636455131144,0.999084627620744,0.0005199175482361507
1325.7705899733417,1325.7705899733417,1.0003359539556216,0.0005201897044657002
1325.777534433592,1325.777534433592,0.9995124032103947,0.0005200064197585179
1325.784478893936,1325.784478893936,0.9999362462712202,0.0005201620692392924
1325.7914233543033,1325.7914233543033,1.0008600096469364,0.0005204270276585665
1325.7983678147634,1325.7983678147634,1.0004431365140347,0.0005204045216571253
1325.805312275224,1325.805312275224,1.0001546800384589,0.0005204178289652431
1325.8122567358234,1325.8122567358234,0.9999824923545736,0.0005204501886578117
1325.8192011964234,1325.8192011964234,0.9997636791371438,0.0005204995189654929
1325.8261456571165,1325.8261456571165,0.9998119340588019,0.0005205306954678509
1325.8330901178329,1325.8330901178329,1.000191904567681,0.0005206317005888957
1325.8400345786424,1325.8400345786424,0.9997994201051427,0.0005206423191528783
1325.846979039475,1325.846979039475,0.9991411107425259,0.0005204518173715135
1325.853923500354,1325.853923500354,0.9998754525696565,0.000520745544390848
1325.8608679613033,1325.8608679613033,1.0004892194017896,0.0005207973684850125
1325.8678124222993,1325.8678124222993,1.0004074243495695,0.0005207988770090692
1325.8747568833412,1325.8747568833412,1.0002670470690096,0.0005207399706604283
1325.8817013444302,1325.8817013444302,1.0004356827117586,0.000520697140830843
1325.8886458055656,1325.8886458055656,0.9999823703347828,0.0005207064981489171
1325.8955902667942,1325.8955902667942,0.9996523777858917,0.0005205268378282852
1325.9025347280226,1325.9025347280226,0.9996963846578432,0.0005204997623635951
1325.909479189321,1325.909479189321,0.9994597013733824,0.0005204527332857068
1325.9164236506658,1325.9164236506658,0.999550475367679,0.0005203462569953148
1325.9233681120809,1325.9233681120809,1.0001826826134812,0.0005205179721847284
1325.9303125735191,1325.9303125735191,1.0008423349395703,0.0005205183214403882
1325.9372570349801,1325.9372570349801,0.9993091476109356,0.0005202468265488939
1325.9442014965111,1325.9442014965111,1.0006118921041018,0.0005204372295054513
1325.9511459580895,1325.9511459580895,1.000180157234603,0.0005202914982685395
1325.9580904197137,1325.9580904197137,1.0000043808460948,0.0005203048337077332
1325.9661459952129,1325.9661459952129,0.9994627430049835,0.0005201944829628681
1325.9733682353758,1325.9733682353758,1.000450819341739,0.0005202921236362598
1325.9803126971863,1325.9803126971863,0.9995941597132194,0.0005202497506242374
1325.9872571589503,1325.9872571589503,0.999935126482271,0.00052027263113025
1325.9942016208074,1325.9942016208074,1.0005574171982061,0.0005203603881280567
1326.001146082665,1326.001146082665,0.9995961352930319,0.0005203064442181792
1326.0080905445916,1326.0080905445916,0.9999226569600974,0.0005204351322523438
1326.0150350065655,1326.0150350065655,1.0002827290963148,0.0005206687567972471
1326.0219794685393,1326.0219794685393,1.0007883975829786,0.0005207717271041394
1326.0289239306057,1326.0289239306057,0.999988934224389,0.0005207987101377529
1326.0358683926725,1326.0358683926725,0.9996142908049706,0.0005207361526241732
1326.0428128547853,1326.0428128547853,1.0000364679777136,0.0005207027509795006
1326.0497573169225,1326.0497573169225,0.9991538037243911,0.000520738381374686
1326.0567017791284,1326.0567017791284,1.0000524359620426,0.0005208579834026989
1326.063646241312,1326.063646241312,1.0002667576463449,0.0005210155120263841
1326.0705907036113,1326.0705907036113,0.9995498088896279,0.0005209114591739838
1326.0775351659108,1326.0775351659108,1.0000360320798856,0.0005210720052092365
1326.0844796282106,1326.0844796282106,1.0007854346768614,0.0005211511269963615
1326.0914240906034,1326.0914240906034,1.0005935036036693,0.0005211452498798602
1326.0983685529961,1326.0983685529961,0.9995615272440839,0.0005209947836362824
1326.1053130154123,1326.1053130154123,0.9993225636091208,0.0005210140449163515
1326.1122574778742,1326.1122574778742,0.9995150065189117,0.0005210148819440798
1326.1192019403836,1326.1192019403836,1.0005341093339677,0.0005211740875550812
1326.1261464029158,1326.1261464029158,0.9997337344850195,0.0005209746095193754
1326.1330908654486,1326.1330908654486,1.0002126901499773,0.0005211710637690938
1326.1400353280503,1326.1400353280503,0.9999499598652551,0.0005210864694195337
1326.1469797906764,1326.1469797906764,1.000673580703811,0.0005212032330624854
1326.1539242533484,1326.1539242533484,0.9999851880051531,0.0005211489875354575
1326.16086871602,1326.16086871602,0.9998374009771694,0.0005211060852964164
1326.1678131787392,1326.1678131787392,0.9996833563152924,0.0005209830578872937
1326.1747576414575,1326.1747576414575,1.000168118148236,0.0005211160471477146
1326.1817021042464,1326.1817021042464,0.9994095110628864,0.000520989322060089
1326.1886465670113,1326.1886465670113,1.000250531315088,0.0005211358707956022
1326.195591029893,1326.195591029893,1.000173304618025,0.0005212146055600603
1326.202535492705,1326.202535492705,1.0000091151798804,0.0005211068663031562
1326.2094799555632,1326.2094799555632,0.99962164798717,0.0005210840894539912
1326.216424418538,1326.216424418538,1.0004076257973846,0.0005212054414521502
1326.2233688814197,1326.2233688814197,1.0008518082768174,0.0005212037260696956
1326.2303133443943,1326.2303133443943,0.9993671570746582,0.0005210593583616716
1326.237257807369,1326.237257807369,0.9998768975953503,0.000521164587961748
1326.2442022703901,1326.2442022703901,0.9999670458747539,0.0005212157101190209
1326.2511467334355,1326.2511467334355,1.0001638321526984,0.0005212008639371888
1326.2580911964797,1326.2580911964797,1.0000438098825233,0.0005212091495591219
1326.265035659571,1326.265035659571,0.9996186649075669,0.0005212339253677721
1326.2719801226624,1326.2719801226624,0.9999980235589492,0.0005212235199451817
1326.2789245857998,1326.2789245857998,0.9999863979289783,0.0005211691039786109
1326.285869048961,1326.285869048961,1.000519735898382,0.0005214440487263064
1326.292813512122,1326.292813512122,0.9997777255377226,0.0005212243439191965
1326.2997579753296,1326.2997579753296,0.9998163639907822,0.0005212541565739493
1326.3067024385368,1326.3067024385368,0.9999191456613075,0.0005212286753197619
1326.3136469017913,1326.3136469017913,0.9996109574311276,0.000521218584675256
1326.3205913650688,1326.3205913650688,1.0003361497096215,0.0005213316803346129
1326.3275358283229,1326.3275358283229,1.0000149392105153,0.000521259906702286
1326.334480291647,1326.334480291647,1.0001829972849126,0.0005213089106736523
1326.341424754971,1326.341424754971,0.9998744869298202,0.0005213024553254281
1326.349480332403,1326.349480332403,1.0000130769007252,0.0005213264317617026
1326.3580914670276,1326.3580914670276,1.000039244640073,0.0005213092359478883
1326.3650359303751,1326.3650359303751,1.0003824043884009,0.0005214235248940454
1326.3719803938388,1326.3719803938388,0.9998450367958676,0.0005213320077523098
1326.3789248572095,1326.3789248572095,1.0002129182754587,0.0005214779280350081
1326.3858693206498,1326.3858693206498,0.9991888140105303,0.0005213727629554363
1326.3928137841135,1326.3928137841135,1.0007486632452924,0.0005216772906838305
1326.3997582476009,1326.3997582476009,1.000359195194175,0.0005216035169141617
1326.4067027111573,1326.4067027111573,0.9993445792529403,0.0005213668853319824
1326.4136471746217,1326.4136471746217,0.9995761659906257,0.0005215561037461925
1326.4205916382011,1326.4205916382011,1.0004640628275179,0.0005217690469113976
1326.4275361017117,1326.4275361017117,0.9996976416013288,0.0005215791517070587
1326.4344805652916,1326.4344805652916,0.9993988106459861,0.0005216069569798047
1326.441425028872,1326.441425028872,1.0006719822083803,0.000521858690825797
1326.448369492452,1326.448369492452,1.0004887833752973,0.0005219453496203964
1326.4553139560553,1326.4553139560553,1.000513446884074,0.0005218716074887757
1326.4622584197054,1326.4622584197054,0.9995179282029326,0.0005217874474182235
1326.469202883332,1326.469202883332,1.000113514821772,0.0005218851529166836
1326.476147347005,1326.476147347005,0.9992105406920586,0.0005218125700450044
1326.4830918106557,1326.4830918106557,1.0001068839754914,0.0005220745783776911
1326.4900362743517,1326.4900362743517,0.9999404643487351,0.0005220132057799194
1326.4969807380487,1326.4969807380487,0.9994447742406478,0.0005220987715942341
1326.503925201768,1326.503925201768,1.0008629854229367,0.0005223084432164714
1326.510869665465,1326.510869665465,1.001101883910215,0.0005224244059510435
1326.5178141292313,1326.5178141292313,1.0002622517857864,0.0005222790540933001
1326.5247585929744,1326.5247585929744,1.0002727942009977,0.000522385972104267
1326.5317030567408,1326.5317030567408,0.9991923920720556,0.0005222279282577664
1326.5386475204837,1326.5386475204837,0.9998761000420741,0.000522392391076407
1326.5455919842739,1326.5455919842739,0.9994425403051276,0.0005223373811589326
1326.5525364480632,1326.5525364480632,0.999880415957084,0.0005225872416407711
1326.5594809118763,1326.5594809118763,1.00011750935204,0.0005226144752702069
1326.5664253757125,1326.5664253757125,1.0007397926163333,0.0005226941874901373
1326.5733698395254,1326.5733698395254,1.0005575896007926,0.000522756354210065
1326.5803143033852,1326.5803143033852,0.9994868082281307,0.0005226291484206726
1326.587258767221,1326.587258767221,0.9999566188240504,0.0005226779841600003
1326.5942032310809,1326.5942032310809,0.9999123298520972,0.0005227259987313361
1326.6011476949636,1326.6011476949636,0.9995835523591797,0.0005227337357334678
1326.6080921588464,1326.6080921588464,1.0005316271804545,0.0005228288741254069
1326.6150366227062,1326.6150366227062,1.0000013717280491,0.0005228453479661618
1326.6219810866119,1326.6219810866119,0.9994169704671798,0.0005227853715748215
1326.6289255505415,1326.6289255505415,1.0000223845211154,0.0005228677440390247
1326.6358700144472,1326.6358700144472,1.0001492565546706,0.0005228685811403142
1326.6428144783772,1326.6428144783772,1.0006758329870766,0.0005228686242273961
1326.6497589423066,1326.6497589423066,0.9996978470664718,0.0005227941786682789
1326.656703406236,1326.656703406236,0.9997224661821831,0.000522846003156789
1326.6636478702117,1326.6636478702117,1.0001102432554045,0.0005228841158678086
1326.670592334164,1326.670592334164,0.9998788648991861,0.0005227733325350712
1326.6775367981172,1326.6775367981172,1.000014202170928,0.0005227695120065661
1326.6844812620927,1326.6844812620927,1.0003671512143322,0.000522622960001834
1326.6928146189014,1326.6928146189014,1.0003306375534355,0.0005226372247529565
1326.6997590828307,1326.6997590828307,0.9996319116904366,0.0005225312540849478
1326.7067035468765,1326.7067035468765,1.0000955521314236,0.0005224630528071272
1326.714481346538,1326.714481346538,0.9997515864290231,0.0005224792078755621
1326.7219813676613,1326.7219813676613,1.0004249488424917,0.0005224750168631458
1326.7289258317064,1326.7289258317064,1.0001767147407221,0.0005224255781163705
1326.7358702957292,1326.7358702957292,0.9999514455644356,0.0005223951666208006
1326.7428147596822,1326.7428147596822,1.000803890165216,0.0005224511957549958
1326.7497592237276,1326.7497592237276,0.9996835372166597,0.000522344186993325
1326.7567036877733,1326.7567036877733,0.9997245285672871,0.0005224119653004929
1326.763648151819,1326.763648151819,1.0000572673854662,0.0005224314591528355
1326.770592615865,1326.770592615865,1.0006134964979407,0.0005225095387814994
1326.7775370799106,1326.7775370799106,0.9997276324342084,0.0005223872774317171
1326.7844815439566,1326.7844815439566,1.0000364812666338,0.00052247281495175
1326.7914260080026,1326.7914260080026,0.9997889856673859,0.0005224782696085509
1326.7983704721646,1326.7983704721646,0.999683554648267,0.0005225465309600007
1326.8053149362108,1326.8053149362108,0.9996467162564194,0.0005225896782910073
1326.8122594002562,1326.8122594002562,1.000171787636212,0.0005225761420226513
1326.8192038643022,1326.8192038643022,0.9994539566972712,0.0005223878161566402
1326.8261483284175,1326.8261483284175,1.000675067965203,0.0005225964335455653
1326.8330927925101,1326.8330927925101,0.9993633981820687,0.0005223766048171854
1326.840037256556,1326.840037256556,1.0006150414537285,0.0005225426095662826
1326.8469817206715,1326.8469817206715,0.9999858300708577,0.0005223730231079012
1326.8539261847638,1326.8539261847638,1.0003581545846638,0.0005223856788587387
1326.8608706488328,1326.8608706488328,0.9999925215413393,0.000522289149775794
1326.867815112972,1326.867815112972,1.0004522421889175,0.0005224331053157937
1326.8747595770178,1326.8747595770178,0.9988470183616085,0.0005220783270274479
1326.88170404118,1326.88170404118,1.0005466381929744,0.0005222456345819234
1326.8886485052258,1326.8886485052258,1.000275268634109,0.0005222161598104089
1326.8955929693877,1326.8955929693877,0.9996302526961408,0.0005220502351054336
1326.9025374334342,1326.9025374334342,1.0010561918746794,0.0005221733926077422
1326.909481897596,1326.909481897596,0.9996113843145122,0.0005218677649669207
1326.9164263616651,1326.9164263616651,0.9990565552763553,0.000521750245287177
1326.923370825804,1326.923370825804,1.000046538583923,0.0005217640547847226
1326.9303152898965,1326.9303152898965,0.99954599782009,0.0005216315849594594
1326.937259754012,1326.937259754012,1.0005017323636352,0.0005216554707553915
1326.9442042181506,1326.9442042181506,0.9994440832618586,0.0005214618116316669
1326.9511486822203,1326.9511486822203,1.0003251804536692,0.0005216890782840677
1326.958093146382,1326.958093146382,1.0006639026309212,0.0005215651026695505
1326.9650376104516,1326.9650376104516,1.0008301387837175,0.0005215167015297956
1326.9719820745904,1326.9719820745904,0.9998062761746658,0.0005213315536098707
1326.9789265387058,1326.9789265387058,0.9994349545567655,0.0005211531863113298
1326.9858710027986,1326.9858710027986,0.9997284621343411,0.0005211608690425039
1326.9928154669608,1326.9928154669608,1.0003345173644616,0.0005212746437814528
1326.9997599310295,1326.9997599310295,0.9999253960974481,0.0005211863675713429
1327.0067043951688,1327.0067043951688,0.9992266126667667,0.0005210338269789315
1327.013648859261,1327.013648859261,1.0001991384450215,0.0005212052894022202
1327.0205933233767,1327.0205933233767,0.9999401515637925,0.0005211488597090445
1327.0275377874923,1327.0275377874923,1.0001147014046545,0.0005211836572821037
1327.034482251585,1327.034482251585,1.0003415186055185,0.0005212641083332031
1327.0414267157234,1327.0414267157234,1.000255810959207,0.0005211783756742872
1327.0483711797929,1327.0483711797929,1.0004075088533753,0.0005212321087705873
1327.0553156439548,1327.0553156439548,0.9997740500224357,0.0005211389548048168
1327.0633712222716,1327.0633712222716,0.9996271263341981,0.0005210906989574667
1327.070593464972,1327.070593464972,1.0001100702659922,0.0005211977412737922
1327.0775379290178,1327.0775379290178,0.9994189687973852,0.0005211712030013008
