time,time,flux,flux_err
1354.1175005221407,1354.1175005221407,0.9998111241453964,0.0002122209311431193
1354.1256024466281,1354.1256024466281,1.0001889177861034,0.0001937805795221606
1354.132546953165,1354.132546953165,1.0001763328884465,0.000193765861132494
1354.139491459609,1354.139491459609,1.0000132280177967,0.00019374414624236523
1354.1464359660997,1354.1464359660997,0.9999241462582349,0.00019375172476759182
1354.153380472404,1354.153380472404,0.9998710196405678,0.00019373642196788513
1354.1603249786617,1354.1603249786617,1.0000440308075897,0.00019375336265602588
1354.167269484873,1354.167269484873,0.9998941736810927,0.00019374117150970134
1354.1742139910373,1354.1742139910373,1.0000015437737917,0.00019375057882422414
1354.1811584971092,1354.1811584971092,1.000248796774056,0.00019376185565284204
1354.1881030030872,1354.1881030030872,0.9999924503984138,0.00019374465580308163
1354.1950475090657,1354.1950475090657,0.9998977821978776,0.00019373297440057496
1354.2019920149044,1354.2019920149044,1.0001645803459625,0.0001937474180323401
1354.2089365206498,1354.2089365206498,0.9999383721604789,0.0001937490654263183
1354.2158810264887,1354.2158810264887,1.0000158438510232,0.00019373567112807987
1354.2228255320945,1354.2228255320945,0.9997998875080356,0.00019372982910807838
1354.2297700376998,1354.2297700376998,1.00012238214762,0.0001937566571559697
1354.23671454312,1354.23671454312,0.9998224255933374,0.0001937228332342904
1354.2436590486325,1354.2436590486325,1.0000864746729956,0.00019375689393988976
1354.250603553959,1354.250603553959,1.0002492097690936,0.00019377219556986007
1354.2575480592852,1354.2575480592852,0.9998264767104559,0.0001937174909270612
1354.2644925645186,1354.2644925645186,0.9999826360407245,0.00019374832073067237
1354.2714370697051,1354.2714370697051,0.9999953241426969,0.00019375933523095256
1354.278381574799,1354.278381574799,0.999914346751431,0.00019375477061824026
1354.285326079799,1354.285326079799,1.000552493252555,0.00019382321978998057
1354.2922705848,1354.2922705848,0.9999909065851981,0.00019378717581146983
1354.2992150897069,1354.2992150897069,0.9998456572012552,0.00019378208906767753
1354.3061595945678,1354.3061595945678,0.9997438639965113,0.00019376919705331344
1354.313104099289,1354.313104099289,0.9998542629057624,0.00019379315449728396
1354.3200486040098,1354.3200486040098,0.9999926581461807,0.0001937889655053558
1354.326993108638,1354.326993108638,0.9997786404653952,0.00019377792015965362
1354.3339376131723,1354.3339376131723,1.000121373928333,0.00019381727702491786
1354.340882117614,1354.340882117614,1.0002261750586452,0.00019383242131209172
1354.347826622056,1354.347826622056,1.0001864685716435,0.00019382878443716857
1354.3547711264976,1354.3547711264976,1.0001164929542947,0.00019382406759693594
1354.3617156307996,1354.3617156307996,0.9999799170939692,0.00019380779086668632
1354.3686601350553,1354.3686601350553,0.9996524449211144,0.00019378014872130136
1354.375604639217,1354.375604639217,1.0000225051864997,0.00019379607679159884
1354.382549143333,1354.382549143333,0.9998854491750194,0.00019380084499808254
1354.3894936473555,1354.3894936473555,1.000023244209017,0.0001938160364044465
1354.3964381513313,1354.3964381513313,1.000062526743646,0.00019383109984963853
1354.4033826552145,1354.4033826552145,0.9999870942145886,0.00019381794332201495
1354.4103271590507,1354.4103271590507,0.9999232114780966,0.00019380634881999866
1354.4172716628404,1354.4172716628404,1.0001801162166883,0.0001938286044655087
1354.4242161665838,1354.4242161665838,0.9997015756903137,0.00019379569365311132
1354.4311606701867,1354.4311606701867,1.0001775790642353,0.00019383080112865265
1354.4381051737905,1354.4381051737905,1.0000171811742482,0.00019382076990916389
1354.4450496773006,1354.4450496773006,1.0004451641666119,0.00019386542284364867
1354.4519941807646,1354.4519941807646,0.9998937581532417,0.00019381899175029957
1354.4589386841822,1354.4589386841822,0.9998403705478303,0.0001938221174685848
1354.4658831875527,1354.4658831875527,1.0000193729467817,0.00019383980880214878
1354.4728276908302,1354.4728276908302,1.0000681278881896,0.00019385730244278094
1354.4797721938746,1354.4797721938746,0.9997122894299443,0.00019383733972178722
1354.4867166971053,1354.4867166971053,1.0000091265577324,0.00019385167769689902
1354.4936612001507,1354.4936612001507,1.0000916506883457,0.0001938612414714627
1354.5006057031485,1354.5006057031485,0.9999536892397927,0.00019385936563526995
1354.5075502061463,1354.5075502061463,1.0000723951151982,0.00019386456727145808
1354.5144947090052,1354.5144947090052,1.0000518078832337,0.00019385945158938872
1354.5214392118169,1354.5214392118169,0.9996159584485784,0.00019382266130468299
1354.5283837145357,1354.5283837145357,1.0000634074616288,0.00019387102960012983
1354.5353282172541,1354.5353282172541,1.0000999520083336,0.00019385344657080555
1354.5422727198802,1354.5422727198802,1.0000518552996707,0.00019387140189869876
1354.5492172224592,1354.5492172224592,1.0000545715458684,0.00019387121920102365
1354.556161724945,1354.556161724945,1.0002098579507896,0.00019388557153954218
1354.5631062274304,1354.5631062274304,1.000341032981654,0.0001939088353018518
1354.5700507298236,1354.5700507298236,0.9998590560131152,0.0001938639660926335
1354.576995232123,1354.576995232123,0.9998895415223327,0.00019387033008257814
1354.5839397344228,1354.5839397344228,0.9997165701013803,0.0001938558577290154
1354.5908842365363,1354.5908842365363,0.9998076505676954,0.00019388009979202968
1354.5978287386495,1354.5978287386495,1.0000933500276568,0.00019391237597997214
1354.604773240763,1354.604773240763,1.0001736950580222,0.00019390992787387927
1354.6117177428293,1354.6117177428293,0.9998224921026955,0.00019388996308728417
1354.6186622447565,1354.6186622447565,1.0000403419847097,0.00019390637326109907
1354.6256067466838,1354.6256067466838,0.9999351818614229,0.00019390028098416746
1354.6325512484711,1354.6325512484711,1.000043626350863,0.0001939187786191326
1354.6394957502584,1354.6394957502584,1.0000662460081187,0.0001939130440423888
1354.646440251953,1354.646440251953,1.0002296107319308,0.00019393473206669363
1354.653384753647,1354.653384753647,1.0000424339920477,0.00019392321407624459
1354.6603292551554,1354.6603292551554,0.9998028976683699,0.00019389057597456733
1354.6672737567098,1354.6672737567098,1.0000900811238957,0.00019391388725168395
1354.6742182582175,1354.6742182582175,0.9994523430484203,0.00019388368416942953
1354.681162759633,1354.681162759633,1.0003300905123123,0.00019395585321849146
1354.6881072609544,1354.6881072609544,1.000246649905219,0.0001939666442152752
1354.695051762276,1354.695051762276,1.0001746271647636,0.00019394941969793055
1354.7019962635047,1354.7019962635047,0.9996840262538553,0.0001939311573764128
1354.7089407646404,1354.7089407646404,1.0003393785176993,0.00019398004252086496
1354.7158852657292,1354.7158852657292,1.0000503515596715,0.00019394286856413013
1354.7228297668648,1354.7228297668648,0.9997558110097822,0.000193930103060966
1354.7297742678602,1354.7297742678602,0.9994405930404617,0.00019389579553938814
1354.7367187688099,1354.7367187688099,1.000032412253639,0.00019395183355060402
1354.7436632695726,1354.7436632695726,1.000042739601777,0.00019396525697334065
1354.7506077704286,1354.7506077704286,1.0001110920710081,0.00019396996905006892
1354.7575522711916,1354.7575522711916,1.0002236912065687,0.00019399275317221482
1354.7644967718613,1354.7644967718613,1.0002123450491367,0.0001939793772013396
1354.7714412725313,1354.7714412725313,1.0003982993367688,0.0001939985259536821
1354.7783857731079,1354.7783857731079,0.9999557067192896,0.00019397689214506488
1354.7853302735916,1354.7853302735916,0.9993563233859417,0.0001939161838447355
1354.7922747740752,1354.7922747740752,0.9999512329901312,0.00019397072475501757
1354.7992192745119,1354.7992192745119,0.9999287070232828,0.00019396426660573014
1354.8061637748092,1354.8061637748092,1.0001130945562475,0.00019399160608131097
1354.8131082751065,1354.8131082751065,0.9996871511089841,0.00019397507010666295
1354.8200527753106,1354.8200527753106,1.0002738604680492,0.0001940276490004099
1354.8269972754683,1354.8269972754683,1.0001888170675661,0.00019400949181902917
1354.8339417756263,1354.8339417756263,1.0004139159735255,0.00019403993690904922
1354.8408862756903,1354.8408862756903,0.9997984207444148,0.00019398767243869334
1354.8478307756618,1354.8478307756618,0.9997938527351893,0.000193982044031444
1354.8547752756328,1354.8547752756328,0.9996403125642578,0.00019397382427176657
1354.8617197754181,1354.8617197754181,0.9999059283841806,0.00019401180238128472
1354.8686642752032,1354.8686642752032,1.0002656005172081,0.00019405234246143855
1354.8756087749882,1354.8756087749882,1.0001009824902776,0.00019404062895079648
1354.8825532747735,1354.8825532747735,0.9998439797699799,0.00019401184027357976
1354.8894977744187,1354.8894977744187,1.0002407734279726,0.00019403987690002752
1354.8964422740178,1354.8964422740178,1.0000832532676465,0.00019404295276566333
1354.90338677357,1354.90338677357,1.000138838159486,0.00019404212214394403
1354.9103312730754,1354.9103312730754,0.9998537287961179,0.00019403307023658915
1354.9172757724414,1354.9172757724414,0.9997241824196479,0.00019401972298849833
1354.9242202718538,1354.9242202718538,1.0000380611848414,0.00019406294764479217
1354.9311647711268,1354.9311647711268,0.9998390540714832,0.00019405294877345604
1354.9392203903185,1354.9392203903185,1.0003785854495733,0.00019408123906686705
1354.9464426694433,1354.9464426694433,1.0000268235136756,0.00019408207443957624
1354.9533871685762,1354.9533871685762,0.9999669323419036,0.00019406512171788948
1354.9603316676162,1354.9603316676162,0.9998894837760215,0.0001940599233068289
1354.9672761666563,1354.9672761666563,0.9998753038569677,0.00019405014969327454
1354.9742206656028,1354.9742206656028,0.9999855610862267,0.00019408067328506774
1354.9811651645036,1354.9811651645036,0.9999927982021589,0.00019407530852153307
1354.9881096633576,1354.9881096633576,0.9999439580135435,0.000194081832547639
1354.9950541621643,1354.9950541621643,1.0001400325712713,0.00019410618315191756
1355.001998660832,1355.001998660832,1.0001032801844754,0.0001941076729658746
1355.0089431594993,1355.0089431594993,1.0001468090233372,0.00019411521509569505
1355.015887658167,1355.015887658167,0.9998105071805419,0.00019408462152025293
1355.0228321566944,1355.0228321566944,1.0000990615920684,0.00019412018444707723
1355.0297766553153,1355.0297766553153,0.9999305575249414,0.00019409582270292716
1355.0367211537039,1355.0367211537039,1.0000841619654157,0.00019412744290748103
1355.0436656521383,1355.0436656521383,0.999919577278398,0.0001941268890040199
1355.0506101504334,1355.0506101504334,1.0002483159623936,0.00019415956720932552
1355.0575546487748,1355.0575546487748,1.0000579236445244,0.0001941537222109098
1355.0644991469767,1355.0644991469767,0.9997624358344183,0.00019413240892992607
1355.0714436451788,1355.0714436451788,0.9999538231738994,0.00019416050594802726
1355.078388143287,1355.078388143287,0.9999674581123698,0.00019415869430780712
1355.0853326413023,1355.0853326413023,0.999974743535514,0.00019417058378647215
1355.0922771393648,1355.0922771393648,0.9995425044407638,0.00019413059592319392
1355.0992216373338,1355.0992216373338,1.0000114575121475,0.00019416664832925734
1355.106166135256,1355.106166135256,1.0002636891924173,0.00019420767007202551
1355.1131106330856,1355.1131106330856,1.0003869799278462,0.00019421777246869535
1355.120055130868,1355.120055130868,0.9999593163907271,0.00019418279102585728
1355.1269996286044,1355.1269996286044,1.0000278899027921,0.000194177518991121
1355.133944126294,1355.133944126294,0.9999782027236019,0.00019417785128289964
1355.1408886239367,1355.1408886239367,0.9997519334551921,0.00019416445229083817
1355.1478331214869,1355.1478331214869,0.9996685209132605,0.00019416749530607515
1355.1547776190837,1355.1547776190837,1.0000348463174409,0.00019420717582622902
1355.1617221165402,1355.1617221165402,1.0000699648269944,0.00019422974982062912
1355.168666613904,1355.168666613904,0.9999469464355746,0.00019421117879827796
1355.1756111112209,1355.1756111112209,1.0001402057709892,0.00019422975141897262
1355.1825556085382,1355.1825556085382,1.0000480083414371,0.00019424250541736423
1355.1895001058085,1355.1895001058085,0.9998248526173092,0.0001942154551577707
1355.1964446029856,1355.1964446029856,1.0001124971054804,0.0001942388669664496
1355.2033891001167,1355.2033891001167,0.9997317931850388,0.00019421234721959545
1355.2103335972008,1355.2103335972008,1.0000051507124117,0.0001942346845662768
1355.2172780942387,1355.2172780942387,1.0002511052971288,0.00019427052939913002
1355.2242225912298,1355.2242225912298,0.9998992112435958,0.00019424341284188611
1355.2311670881277,1355.2311670881277,1.0003188511033794,0.0001942962468017189
1355.2381115850258,1355.2381115850258,0.9998403864269105,0.000194253962613994
1355.2450560818306,1355.2450560818306,1.00003311284207,0.00019427224754080768
1355.2520005785886,1355.2520005785886,0.9998014583830168,0.00019425608372468736
1355.258945075254,1355.258945075254,0.9998298893794427,0.00019427490597304951
1355.2658895719658,1355.2658895719658,0.9999277919061548,0.00019428628554026337
1355.2728340685376,1355.2728340685376,1.0000344568506458,0.00019428333724816403
1355.279778565063,1355.279778565063,1.0002362823665458,0.00019432932751826747
1355.2867230615882,1355.2867230615882,1.0001889211542498,0.00019433244581974174
1355.2936675579745,1355.2936675579745,0.9998473268835554,0.0001942802582534185
1355.3006120544064,1355.3006120544064,0.9999330532649996,0.00019431170853746898
1355.3075565507922,1355.3075565507922,1.0001950679459641,0.00019433505369970437
1355.314501047085,1355.314501047085,0.999909177883662,0.00019431173262361346
1355.3214455431448,1355.3214455431448,0.9997915631431173,0.00019432293862933653
1355.3283900394374,1355.3283900394374,1.0000516773400514,0.00019432840401670135
1355.3358900951541,1355.3358900951541,1.0000689821531366,0.00019435799472031096
1355.3436679307688,1355.3436679307688,1.0001716731933827,0.00019436869026827932
1355.3506124267822,1355.3506124267822,0.9998298058313735,0.00019434070940432585
1355.357556922702,1355.357556922702,0.9997470555850654,0.00019435310264870437
1355.3645014186222,1355.3645014186222,1.000221217237419,0.00019439007473963943
1355.3714459144492,1355.3714459144492,1.0000904186551736,0.00019437665608852884
1355.3783904102297,1355.3783904102297,0.9999436704114333,0.00019436911605084055
1355.3853349059634,1355.3853349059634,1.000096098753596,0.00019437304140774563
1355.3922794016507,1355.3922794016507,0.9999075745269194,0.00019437055667710198
1355.4000572368,1355.4000572368,0.9999741271097872,0.00019438978546713732
1355.4075572919578,1355.4075572919578,0.9999588929563789,0.00019438903668420672
1355.4145017875055,1355.4145017875055,1.0000301066556854,0.00019441242902434804
1355.4214462829132,1355.4214462829132,0.9999115419757011,0.0001943982434556366
1355.428390778321,1355.428390778321,1.0000768209421567,0.00019440301178486164
1355.435335273729,1355.435335273729,0.9999116186112955,0.00019440301841276461
1355.4422797690436,1355.4422797690436,1.0001134744077063,0.0001944163386198
1355.4492242642186,1355.4492242642186,1.000127914686906,0.00019441945367265552
1355.4561687593473,1355.4561687593473,0.9996517645212195,0.00019440095136285916
1355.4631132546153,1355.4631132546153,0.9998556570561842,0.00019441311378883263
1355.470057749604,1355.470057749604,1.0003704224050882,0.00019446355381306734
1355.4770022447326,1355.4770022447326,1.0001580852205754,0.00019446487212368375
1355.4839467396748,1355.4839467396748,0.9999547829994626,0.000194427549875006
1355.4908912346636,1355.4908912346636,1.000033230021922,0.000194453707949527
1355.4978357295126,1355.4978357295126,0.9999610770215221,0.00019445787049996078
1355.5047802243616,1355.5047802243616,0.9996702546142648,0.00019442626201892529
1355.5117247191174,1355.5117247191174,1.0004031881799904,0.00019449798008161178
1355.5186692138736,1355.5186692138736,0.999767673417583,0.0001944591544038591
1355.525613708536,1355.525613708536,1.0000317522047037,0.00019449088624100505
1355.5325582031523,1355.5325582031523,0.9998131666026173,0.00019448502575575776
1355.539502697676,1355.539502697676,1.000318890287951,0.00019449955096416594
1355.5464471922453,1355.5464471922453,1.0000701877358655,0.00019449950337917552
1355.5533916866752,1355.5533916866752,0.9998628618600808,0.00019450382120974306
1355.560336181059,1355.560336181059,1.0000231160976805,0.00019451766357584126
1355.5672806754421,1355.5672806754421,0.9998050364793473,0.00019450652955920183
1355.5742251697325,1355.5742251697325,1.0000525579965092,0.00019452625611004665
1355.5811696640226,1355.5811696640226,1.0002004392734112,0.00019454437785057356
1355.58811415822,1355.58811415822,0.9999722963373431,0.0001945294509437079
1355.5950586523704,1355.5950586523704,0.9998854845304587,0.00019451766814895972
1355.6020031464745,1355.6020031464745,1.0000231087195892,0.00019454488121566532
1355.6089476405318,1355.6089476405318,0.9997692570178229,0.00019451792201100239
1355.6158921344963,1355.6158921344963,1.0001370059475854,0.0001945469940688175
1355.6228366284602,1355.6228366284602,1.000021965249136,0.00019455368510766405
1355.6297811223783,1355.6297811223783,0.9999884422481962,0.00019455252845927942
1355.6367256161564,1355.6367256161564,1.0002539892924742,0.0001945721023331603
1355.6436701099808,1355.6436701099808,0.9999365932180048,0.00019456522959847763
1355.6506146037123,1355.6506146037123,0.9998396955308975,0.00019453763756325146
1355.6575590973976,1355.6575590973976,1.0001549345786755,0.00019457460614449827
1355.6645035909892,1355.6645035909892,0.9999586534361423,0.000194559558068445
1355.671448084581,1355.671448084581,0.9998063768658609,0.00019455783454409378
1355.6783925781262,1355.6783925781262,1.0001597193630836,0.00019460026489616472
1355.6853370716249,1355.6853370716249,1.0001050138633647,0.00019460650307976171
1355.6922815650303,1355.6922815650303,0.9998727578928224,0.00019458297147464997
1355.6992260583895,1355.6992260583895,0.9999461868010521,0.00019459811843615843
1355.7061705517485,1355.7061705517485,1.0000386845164546,0.00019460315604696914
1355.7131150450139,1355.7131150450139,1.0001695371019266,0.0001946133515055181
1355.7200595382333,1355.7200595382333,0.9998031636173925,0.00019458474681806746
1355.727004031406,1355.727004031406,0.9997968907839055,0.0001945750815068444
1355.733948524532,1355.733948524532,1.00002658649374,0.00019459664684694635
1355.740893017612,1355.740893017612,0.9999210072230864,0.0001946040117426513
1355.748948629493,1355.748948629493,1.0002241941488879,0.00019463113099150352
1355.7561709021447,1355.7561709021447,1.0002771397315815,0.0001946464188156357
1355.763115395131,1355.763115395131,0.9999551768236834,0.00019463199008964765
1355.7700598879314,1355.7700598879314,0.9999282182382014,0.00019464360394473964
1355.7770043807316,1355.7770043807316,1.0001841458237375,0.00019465450968310372
1355.7839488735315,1355.7839488735315,0.999948054986846,0.00019465362161372773
1355.7908933661454,1355.7908933661454,1.000016667292877,0.00019465225196962273
1355.7978378588527,1355.7978378588527,0.999714304113904,0.00019463363285055356
1355.80478235142,1355.80478235142,0.9998950290546036,0.00019465559299632136
1355.8117268439407,1355.8117268439407,1.0003550896373103,0.00019470899780115936
1355.8186713364616,1355.8186713364616,0.9999366991096792,0.00019467168727548361
1355.8256158289355,1355.8256158289355,0.999656033490975,0.00019466772311311
1355.8325603212702,1355.8325603212702,0.9999410778331959,0.00019467885034266666
1355.8395048136515,1355.8395048136515,1.0001136787783347,0.00019471154662463854
1355.846449305939,1355.846449305939,1.0003708813762926,0.00019474378229395226
1355.8533937982272,1355.8533937982272,0.9998954962810023,0.00019468980038300597
1355.8603382903289,1355.8603382903289,0.9999496764610456,0.00019469762764518994
1355.867282782477,1355.867282782477,0.9999233980517713,0.0001946967804309986
