time,time,flux,flux_err
1354.1184228755146,1354.1184228755146,0.9999131487615484,0.0002860580162526258
1354.1265249997318,1354.1265249997318,0.9999318165627932,0.0002611362162927212
1354.133469677632,1354.133469677632,1.0001856794257777,0.0002611399229698601
1354.140414354974,1354.140414354974,1.0002236330236607,0.00026113675846384916
1354.1473590323153,1354.1473590323153,0.999963747536453,0.00026112940706644503
1354.154303709471,1354.154303709471,1.0000093303218907,0.00026112354645887
1354.1612483863469,1354.1612483863469,0.9999829702864276,0.00026112180546956313
1354.168193063037,1354.168193063037,0.9999812900000791,0.0002611165585976196
1354.1751377396336,1354.1751377396336,0.9998565865721808,0.00026110499411493475
1354.1820824159508,1354.1820824159508,0.9995550449603282,0.0002611023030193241
1354.1890270921747,1354.1890270921747,0.9996193069879121,0.00026111059810771483
1354.1959717682128,1354.1959717682128,1.0006658330787586,0.00026122381531748544
1354.2029164440642,1354.2029164440642,1.000071517231428,0.0002611721598583034
1354.2098611196366,1354.2098611196366,1.0001152348790918,0.0002611702423487319
1354.2168057952085,1354.2168057952085,1.0002498631168144,0.0002612085909981286
1354.2237504704083,1354.2237504704083,0.9996841186922572,0.00026113724683990983
1354.2306951456078,1354.2306951456078,1.0001852033600565,0.0002612087461500341
1354.2376398205283,1354.2376398205283,0.999970267929989,0.000261158323787189
1354.2445844952624,1354.2445844952624,0.99985234291754,0.0002611635159147571
1354.2515291699033,1354.2515291699033,0.9993611709619046,0.00026111438677243126
1354.2584738442645,1354.2584738442645,1.0004838160646363,0.0002612380486701119
1354.2654185184397,1354.2654185184397,0.9999130967420182,0.00026117223781778863
1354.2723631925219,1354.2723631925219,0.999884192779858,0.0002611739028713862
1354.2793078664176,1354.2793078664176,0.9999125471983138,0.00026115065252297037
1354.2862525401267,1354.2862525401267,1.0004401990133203,0.000261236835916127
1354.293197213557,1354.293197213557,1.0004236394682098,0.00026121434806513114
1354.3001418871731,1354.3001418871731,0.9999907500151108,0.00026119087414322055
1354.3070865602313,1354.3070865602313,0.9996330433746088,0.0002611291477459794
1354.314031233196,1354.314031233196,1.0001098923250322,0.00026117207361750293
1354.3209759060671,1354.3209759060671,0.9998213043737282,0.0002611705840731435
1354.3279205787524,1354.3279205787524,0.9996610334874259,0.0002611588824657246
1354.334865251251,1354.334865251251,1.000138697609125,0.00026118726553592134
1354.3418099235635,1354.3418099235635,0.9998330362584215,0.0002611729767786463
1354.348754595783,1354.348754595783,0.9999431674161684,0.0002611802898512677
1354.3556992677227,1354.3556992677227,1.0002281900424914,0.0002612035988219942
1354.3626439395698,1354.3626439395698,1.0001154583104739,0.00026120182856577596
1354.3695886112305,1354.3695886112305,1.0002122109828657,0.00026116890843193844
1354.3765332827982,1354.3765332827982,0.999882527365636,0.0002611387491685703
1354.3834779540866,1354.3834779540866,1.0000118881401023,0.0002611654059705655
1354.3904226253744,1354.3904226253744,0.9999073386847661,0.00026113418104394676
1354.3973672962898,1354.3973672962898,0.9999744812280277,0.0002611784969354148
1354.4043119672053,1354.4043119672053,0.9999421791979944,0.00026115724820064513
1354.4112566378415,1354.4112566378415,0.9998535074050764,0.00026112654433424205
1354.4182013083846,1354.4182013083846,1.000060489002557,0.00026114699488409435
1354.4251459787415,1354.4251459787415,1.000313786005116,0.0002611892849784381
1354.4320906490047,1354.4320906490047,0.9998411622747445,0.0002611749965788963
1354.4390353189892,1354.4390353189892,1.000142912651,0.0002611857519117933
1354.4459799888803,1354.4459799888803,0.9997786634815448,0.00026114257919727425
1354.4529246585853,1354.4529246585853,1.0004263408911762,0.000261221453475762
1354.4598693281973,1354.4598693281973,0.9997834140412571,0.0002611609477328033
1354.4668139975295,1354.4668139975295,1.0001604535181352,0.00026122009280253236
1354.4737586668616,1354.4737586668616,1.0003909309144954,0.00026119331430726224
1354.4807033359148,1354.4807033359148,0.9997590393036315,0.00026114132930562834
1354.4876480048742,1354.4876480048742,1.0000306604928466,0.0002611719535036983
1354.4945926737412,1354.4945926737412,0.9999320006488848,0.0002611632838442857
1354.5015373423284,1354.5015373423284,1.0000993593536556,0.00026118516909880683
1354.5084820109155,1354.5084820109155,0.9994970592947002,0.00026111811089754686
1354.5154266790373,1354.5154266790373,1.00008580482627,0.00026115654791382387
1354.5223713473451,1354.5223713473451,0.9999346520228422,0.00026114913320348027
1354.5293160153738,1354.5293160153738,1.0005045374390642,0.0002612461333237582
1354.536260683216,1354.536260683216,0.9999978898306366,0.00026116929202590547
1354.5432053509649,1354.5432053509649,0.9999452119815014,0.0002611666989546722
1354.5501500185278,1354.5501500185278,1.0002933259806437,0.0002612054091537933
1354.5570946859975,1354.5570946859975,1.0000763304815474,0.00026118772133905697
1354.5640393531876,1354.5640393531876,1.0000902048163458,0.0002612121965273481
1354.5709840202849,1354.5709840202849,0.9994963486447517,0.00026114207503337677
1354.5779286872887,1354.5779286872887,0.9998226710882483,0.00026120171248679886
1354.5848733541065,1354.5848733541065,1.0001368574841991,0.0002612241280802855
1354.5918180209246,1354.5918180209246,0.9999131210413754,0.00026118682347997714
1354.5987626873698,1354.5987626873698,0.9999904019758414,0.00026119469037547545
1354.6057073539082,1354.6057073539082,1.0001873235084358,0.0002612571514334833
1354.612652020167,1354.612652020167,0.9998027598868898,0.00026118731444348646
1354.6195966861462,1354.6195966861462,1.0000970206824735,0.00026123169637839143
1354.6265413521262,1354.6265413521262,0.9999712002399989,0.0002612042855576472
1354.6334860179193,1354.6334860179193,1.0000909283105144,0.0002612200361432373
1354.6404306836193,1354.6404306836193,1.0000749304375756,0.0002612062918501026
1354.6473753491334,1354.6473753491334,0.9999243072454522,0.0002611646804603946
1354.6543200145538,1354.6543200145538,1.00013024456332,0.00026123305254510166
1354.661264679882,1354.661264679882,0.9997152552766195,0.000261147621844272
1354.6682093450236,1354.6682093450236,1.0002071115231672,0.00026118201273714575
1354.6751540099783,1354.6751540099783,1.000238796970954,0.00026123908381808336
1354.6820986748405,1354.6820986748405,1.0001234784121285,0.00026120736992080916
1354.689043339516,1354.689043339516,0.9998210543822349,0.0002611731150484363
1354.6959880040054,1354.6959880040054,0.9997842563962319,0.0002611476443691085
1354.702932668495,1354.702932668495,0.9999397659684517,0.00026118414946585123
1354.7098773328914,1354.7098773328914,1.000029611364607,0.00026120754321695754
1354.716821996822,1354.716821996822,0.9999902832234909,0.00026117595690184443
1354.7237666610322,1354.7237666610322,1.000005947659559,0.0002612153229642015
1354.7307113246832,1354.7307113246832,0.999802312938163,0.00026117317852154674
1354.7376559886143,1354.7376559886143,1.000040276286768,0.00026120832016274145
1354.7446006522655,1354.7446006522655,1.0000783196365315,0.0002611805966767368
1354.7515453157303,1354.7515453157303,0.9997934988087189,0.00026115171509924284
1354.7584899791023,1354.7584899791023,1.000415463992943,0.00026122555906761725
1354.7654346422873,1354.7654346422873,1.000145140064819,0.00026119316391072706
1354.7723793053804,1354.7723793053804,1.0000877582382075,0.00026118508630276993
1354.7793239683795,1354.7793239683795,0.9996344972176978,0.00026114122115775395
1354.7862686310996,1354.7862686310996,1.0003010160855088,0.00026122149642262866
1354.7932132939125,1354.7932132939125,0.9994258363071836,0.0002611009302911164
1354.8001579564461,1354.8001579564461,1.000211154039387,0.00026121123669800437
1354.8071026188868,1354.8071026188868,1.0000985884791445,0.000261194083203094
1354.8140472812343,1354.8140472812343,0.9999792611769479,0.00026120879240126545
1354.8209919433955,1354.8209919433955,1.0003081204199418,0.0002612494618210169
1354.8279366054635,1354.8279366054635,1.0001609839030283,0.0002612403060730063
1354.8348812673453,1354.8348812673453,0.9997048735036838,0.00026120828711457725
1354.8418259291338,1354.8418259291338,1.00003154533336,0.0002612358305542772
1354.8487705910156,1354.8487705910156,0.9994731178979178,0.00026115382845608555
1354.8557152523385,1354.8557152523385,1.0000291269218393,0.00026120887770084605
1354.8626599137547,1354.8626599137547,0.9998118808959436,0.0002612017465539149
1354.8696045750778,1354.8696045750778,1.0000552155210811,0.0002612213875167541
1354.8765492363075,1354.8765492363075,1.0003966130967406,0.00026121819696778813
1354.8834938973512,1354.8834938973512,0.9999165904965833,0.0002612155413702149
1354.8904385582082,1354.8904385582082,1.0004798343962626,0.0002612461783595587
1354.8973832189724,1354.8973832189724,1.0001145786180956,0.00026120392881513087
1354.9043278797367,1354.9043278797367,0.9999429434019096,0.00026116565604934955
1354.9112725402213,1354.9112725402213,0.9997064249586721,0.00026116856655935563
1354.918217200613,1354.918217200613,0.9995855545084137,0.00026114443156827004
1354.9251618610047,1354.9251618610047,0.9995506711660266,0.00026115106880362376
1354.9321065212102,1354.9321065212102,1.00002721021458,0.00026119065825962477
1354.9401623268993,1354.9401623268993,1.0002626413605094,0.0002612160675645212
1354.947384773103,1354.947384773103,0.9999679608515141,0.00026116927319137556
1354.9543294329362,1354.9543294329362,1.0003630918185855,0.0002612325024710851
1354.961274092676,1354.961274092676,0.9998932786855625,0.00026118498792580174
1354.9682187522292,1354.9682187522292,1.0000091652410927,0.0002611852447334833
1354.9751634116892,1354.9751634116892,0.99984778590236,0.00026119489631373815
1354.9821080709637,1354.9821080709637,0.9999193708036704,0.00026119348543857975
1354.9890527302377,1354.9890527302377,1.0004108506446312,0.0002612563360865507
1354.9959973893253,1354.9959973893253,0.9995369821511474,0.00026117724427357546
1355.0029420483202,1355.0029420483202,1.000169784608139,0.0002612303664116679
1355.0098867071283,1355.0098867071283,1.000035283775888,0.00026123000609935094
1355.016831365844,1355.016831365844,0.999924076259872,0.0002612198456691995
1355.0237760244659,1355.0237760244659,1.0003051010126274,0.00026123663263465585
1355.0307206829948,1355.0307206829948,0.9998632700108162,0.0002611724313921543
1355.037665341431,1355.037665341431,0.9998318813814535,0.00026122062779268887
1355.0446099996802,1355.0446099996802,1.0000216252300436,0.00026123181466027723
1355.051554657744,1355.051554657744,0.9999467489004228,0.0002612098417366242
1355.0584993159002,1355.0584993159002,1.0002192325796746,0.000261254522817006
1355.0654439738705,1355.0654439738705,0.9994855229597235,0.00026118294998387856
1355.0723886316548,1355.0723886316548,1.0002365453222537,0.0002612758143462447
1355.0793332893452,1355.0793332893452,1.0000294312212088,0.00026127112982385814
1355.0862779469426,1355.0862779469426,1.0000881193878004,0.00026123212632090845
1355.0932226044474,1355.0932226044474,1.0001148678656646,0.00026124011300283114
1355.1001672618588,1355.1001672618588,0.9998044697949338,0.00026120017587197156
1355.107111919177,1355.107111919177,1.0000520031989548,0.00026123088434861847
1355.114056576216,1355.114056576216,0.9999458783203646,0.0002612189794724096
1355.1210012331617,1355.1210012331617,1.000235889185308,0.0002612455677698293
1355.1279458901074,1355.1279458901074,0.9999232142892225,0.00026122017823927365
1355.1348905470536,1355.1348905470536,0.9996945914126355,0.00026120616984561044
1355.1418352037194,1355.1418352037194,1.0000302966155141,0.00026124646094781727
1355.1487798603862,1355.1487798603862,0.9999715909796079,0.00026125325177687146
1355.1557245168663,1355.1557245168663,1.000118598528269,0.00026124049468494956
1355.1626691732529,1355.1626691732529,1.00022455418057,0.0002612637616301434
1355.1696138294537,1355.1696138294537,1.0003176635157618,0.00026128351149934837
1355.1765584856544,1355.1765584856544,0.9998991068036258,0.0002612102611570216
1355.1835031417622,1355.1835031417622,0.9997017652083716,0.0002612039065704053
1355.1904477975904,1355.1904477975904,0.9998130848726374,0.0002612242548720035
1355.1973924536046,1355.1973924536046,1.0001507643258862,0.0002612489639612259
1355.2043371091536,1355.2043371091536,0.9998244619995823,0.000261227017396323
1355.2112817648883,1355.2112817648883,1.0002761012560293,0.0002612755256988808
1355.218226420437,1355.218226420437,0.9998360818087928,0.00026121742815816187
1355.225171075893,1355.225171075893,1.000025346088549,0.0002612278017761401
1355.232115731069,1355.232115731069,0.9999706829323998,0.00026124663059657834
1355.2390603863385,1355.2390603863385,1.0000202913917398,0.0002612434899081728
1355.2460050414215,1355.2460050414215,1.0000246506743515,0.0002612203843665362
1355.2529496965046,1355.2529496965046,1.0002808750316394,0.00026124260177723104
1355.2598943513087,1355.2598943513087,0.9999461018191076,0.0002612383594917276
1355.2668390062054,1355.2668390062054,1.0000249980573162,0.00026123371820040825
1355.2737836608226,1355.2737836608226,1.000098399457249,0.0002612507176713928
1355.28072831544,1355.28072831544,0.9995523530210871,0.0002611876129037402
1355.2876729698714,1355.2876729698714,0.9999217155554418,0.0002612345025561194
1355.2946176242096,1355.2946176242096,0.9995757802856582,0.00026117471500923967
1355.3015622784542,1355.3015622784542,1.0005537018140056,0.0002612712840789485
1355.308506932699,1355.308506932699,1.0004871344677753,0.0002612766279825671
1355.315451586758,1355.315451586758,0.9995661446959667,0.00026117190316081787
1355.3223962406303,1355.3223962406303,1.000168522713308,0.0002612548016606902
1355.3293408945028,1355.3293408945028,1.0000152573191874,0.00026123019464541626
1355.3368411205583,1355.3368411205583,0.9999777683502327,0.0002612565181725998
1355.3446191327052,1355.3446191327052,0.9998312200921179,0.0002612114309052807
1355.3515637861124,1355.3515637861124,0.9999966885004046,0.0002612152888131059
1355.358508439612,1355.358508439612,0.9998723169444854,0.000261215240842174
1355.3654530930187,1355.3654530930187,0.9998985087743566,0.0002612048136830948
1355.372397746146,1355.372397746146,0.9999908090695954,0.0002612405236812308
1355.3793423993664,1355.3793423993664,1.0000210368814797,0.0002612039448093252
1355.3862870524008,1355.3862870524008,1.0003520524600398,0.00026126133668758286
1355.3932317052488,1355.3932317052488,1.0002613793079624,0.00026126306917514453
1355.4010097164648,1355.4010097164648,0.9999144214720836,0.000261225594204302
1355.4085099414021,1355.4085099414021,0.999912996191342,0.00026120966888242936
1355.4154545940642,1355.4154545940642,0.999794723750043,0.00026121233380828454
1355.4223992464463,1355.4223992464463,0.9998761926935884,0.00026122662813828697
1355.4293438991078,1355.4293438991078,1.0002862081615864,0.0002612566643173092
1355.4362885513972,1355.4362885513972,0.9995813302045475,0.000261195545541163
1355.4432332036863,1355.4432332036863,1.000278203687735,0.0002612595410023464
1355.4501778555098,1355.4501778555098,1.0001513814083882,0.0002612315467333735
1355.4571225077061,1355.4571225077061,0.9998572645155523,0.0002612207542352778
1355.4640671596226,1355.4640671596226,0.9999307694039452,0.0002612430144766513
1355.471011811446,1355.471011811446,0.9999630730042265,0.0002611992214000635
1355.4779564631765,1355.4779564631765,0.999716459801886,0.00026117080674065266
1355.4849011148137,1355.4849011148137,1.0002787063281553,0.0002612318878806829
1355.4918457662648,1355.4918457662648,1.0002295617119592,0.0002612363352500654
1355.4987904178088,1355.4987904178088,1.0000445243560303,0.0002612390160256313
1355.5057350691663,1355.5057350691663,0.9998552284166144,0.00026122308226662167
1355.512679720431,1355.512679720431,1.000368641403186,0.00026126309130872796
1355.5196243715095,1355.5196243715095,0.9998244336648867,0.00026121886732955563
1355.526569022681,1355.526569022681,1.0001669634548835,0.0002612390242740734
1355.5335136736662,1355.5335136736662,0.9992986145864998,0.0002611636899253957
1355.5404583245586,1355.5404583245586,0.9998248174877504,0.0002612269218168738
1355.5474029752643,1355.5474029752643,0.9998193727328568,0.0002612194750349257
1355.5543476260634,1355.5543476260634,1.000102094327305,0.0002612704466579282
1355.5612922765831,1355.5612922765831,0.9997434760705641,0.0002612169303813934
1355.5682369271028,1355.5682369271028,1.0003545403774907,0.0002612834825087212
1355.5751815775295,1355.5751815775295,0.999756725703248,0.0002612146706083603
1355.5821262278628,1355.5821262278628,1.0002218743988318,0.0002612693374042964
1355.5890708780098,1355.5890708780098,1.0000654118095413,0.000261252857557187
1355.5960155280638,1355.5960155280638,0.9999735549422739,0.0002612210492579438
1355.602960178397,1355.602960178397,1.0001390333578466,0.000261243045945946
1355.609904828265,1355.609904828265,0.9999089043743649,0.0002612299783379939
1355.6168494778533,1355.6168494778533,1.0000878648847649,0.0002612251936308936
1355.6237941278137,1355.6237941278137,1.0001315774489534,0.00026123637146810403
1355.6307387774023,1355.6307387774023,1.000164442146148,0.00026126044011737736
1355.6376834269909,1355.6376834269909,0.9996720984361266,0.00026119031392014954
1355.6446280764858,1355.6446280764858,1.0001177000830923,0.00026124423384757194
1355.651572725888,1355.651572725888,1.000033795238079,0.0002612615601815711
1355.6585173751039,1355.6585173751039,0.9997718417098227,0.00026123210697980253
1355.6654620243194,1355.6654620243194,0.9995675960812456,0.00026117085563353133
1355.6724066735353,1355.6724066735353,1.0001503761452664,0.00026123680459826917
1355.6793513224716,1355.6793513224716,1.0001867378975091,0.0002612421384312719
1355.6862959715013,1355.6862959715013,0.9999005111284125,0.000261216368546152
1355.6932406203446,1355.6932406203446,1.0003237997420589,0.0002612643737090759
1355.7001852690948,1355.7001852690948,0.9999686020853943,0.00026122473399865624
1355.7071299177517,1355.7071299177517,1.000024015057054,0.0002612126152422156
1355.7140745663155,1355.7140745663155,0.9998954940311622,0.0002612166138103282
1355.7210192148793,1355.7210192148793,1.0001208814740767,0.0002612244993648604
1355.727963863164,1355.727963863164,1.0003282087393002,0.00026126155295954484
1355.7349085115416,1355.7349085115416,0.9999761886803684,0.0002612166296844669
1355.7418531597327,1355.7418531597327,0.9995371652997574,0.00026118366680892905
1355.7499089515452,1355.7499089515452,0.9995997841285821,0.0002611952299462292
1355.757131385549,1355.757131385549,1.0002750968678675,0.0002612691351701956
1355.7640760333677,1355.7640760333677,1.0001415911249165,0.00026124075621606604
1355.7710206813729,1355.7710206813729,1.0000476654822,0.0002612465667535523
1355.7779653290052,1355.7779653290052,1.0003846765392541,0.00026130079153598553
1355.7849099766377,1355.7849099766377,0.9998850477218042,0.00026125442571485046
1355.7918546242704,1355.7918546242704,1.0000727754615806,0.00026126455639647564
1355.7987992719031,1355.7987992719031,1.0001400693522031,0.00026124525141626813
1355.8057439190698,1355.8057439190698,0.9999810725522671,0.00026125016030142505
1355.8126885665158,1355.8126885665158,0.9996710426423702,0.00026121043382806863
1355.8196332137763,1355.8196332137763,1.000186985222749,0.0002612889378476509
1355.8265778608497,1355.8265778608497,0.999989494500715,0.00026125910339975893
1355.8335225079238,1355.8335225079238,1.0002868013984834,0.00026130735199326506
1355.8404671549044,1355.8404671549044,0.9999002727266257,0.0002612379031577923
1355.8474118017916,1355.8474118017916,1.0000094869209588,0.0002612446588253608
1355.8543564485863,1355.8543564485863,0.9996229160599814,0.0002612046280342786
1355.8613010952872,1355.8613010952872,1.0002951679867302,0.00026127410226894313
1355.8682457418022,1355.8682457418022,0.9997912325959337,0.000261207281178643
1355.8751903885036,1355.8751903885036,0.9998877622642199,0.0002612089294871587
