time,time,flux,flux_err
1354.1165284392785,1354.1165284392785,1.0003678947460823,0.0004264925457280724
1354.1253249339625,1354.1253249339625,0.9993565517856333,0.00042629628689994423
1354.1336584552419,1354.1336584552419,1.0002556488309688,0.00042639967897266346
1354.1419919763666,1354.1419919763666,1.0002390867648756,0.0004263513082467459
1354.1496310374619,1354.1496310374619,0.9997349671262044,0.0003891447214858035
1354.1565756384348,1354.1565756384348,0.9999466225940962,0.0003891686760285108
1354.1635202393616,1354.1635202393616,0.9997782300508173,0.00038900171535824187
1354.170464840242,1354.170464840242,1.0001664393341347,0.00038917185397836394
1354.1774094411685,1354.1774094411685,0.9997046808689788,0.00038913673933868695
1354.1843540420487,1354.1843540420487,1.0002692855366286,0.00038915545147167073
1354.1912986428822,1354.1912986428822,1.0004489082710961,0.00038914812240714683
1354.1982432436694,1354.1982432436694,0.9993360068992331,0.0003888456577756083
1354.2051878444563,1354.2051878444563,1.0001782396729149,0.0003890842766941772
1354.2121324452432,1354.2121324452432,1.0002882779443076,0.00038922229664726897
1354.219077045937,1354.219077045937,0.9996255869070756,0.00038896961695013765
1354.2260216466773,1354.2260216466773,0.9998016634726408,0.000388986520812006
1354.2329662473712,1354.2329662473712,1.0003576746368252,0.0003890759461358725
1354.239910847972,1354.239910847972,1.0001155030488342,0.0003891361458158828
1354.2468554486195,1354.2468554486195,1.000101116435832,0.00038910601404978115
1354.25380004922,1354.25380004922,0.9999836664707769,0.0003891440002033547
1354.2607446498205,1354.2607446498205,1.000248440089123,0.0003890593782885569
1354.2676892502818,1354.2676892502818,0.9997340092461686,0.0003889330073249363
1354.274633850789,1354.274633850789,0.9995210763898701,0.00038897906927826234
1354.2815784512504,1354.2815784512504,0.9999850704314772,0.0003890129940297527
1354.288523051758,1354.288523051758,0.9999372374069887,0.000389060017627255
1354.295467652172,1354.295467652172,1.0000399860454658,0.0003889904436705424
1354.3024122525403,1354.3024122525403,1.0006957420373541,0.0003890521036491114
1354.3093568529082,1354.3093568529082,0.9994333450009254,0.0003889709103485579
1354.3163014531829,1354.3163014531829,1.0004091264528305,0.00038910789359074147
1354.3232460535041,1354.3232460535041,0.9993475582003757,0.0003889140639199654
1354.3301906537322,1354.3301906537322,1.0006968861173235,0.00038911504920179015
1354.337135253961,1354.337135253961,1.000033530532337,0.00038892513844609815
1354.3440798541421,1354.3440798541421,0.999940986375935,0.0003890735148106828
1354.3510244542772,1354.3510244542772,1.0004655605462127,0.0003890864923378458
1354.3579690543659,1354.3579690543659,0.9995904255280568,0.0003889261293810319
1354.3649136544543,1354.3649136544543,0.9992912593078362,0.0003889095850798074
1354.3718582545425,1354.3718582545425,0.9998106627711996,0.0003889219957542943
1354.3788028544918,1354.3788028544918,0.9999496819618449,0.000388942284072696
1354.3857474543936,1354.3857474543936,1.0006833656364784,0.00038906357977153995
1354.392692054296,1354.392692054296,1.000176083122834,0.0003889683796191747
1354.3996366541983,1354.3996366541983,0.9998394921753357,0.0003888868209628974
1354.4065812541005,1354.4065812541005,0.9998952438405047,0.0003888895473444111
1354.4135258540032,1354.4135258540032,0.999893440402172,0.00038893831113442966
1354.4204704537187,1354.4204704537187,0.9995325138522608,0.00038894966226014487
1354.4274150534814,1354.4274150534814,1.0002303114558488,0.00038897107230607367
1354.4343596531971,1354.4343596531971,1.0001599476458964,0.00038893146104528574
1354.4413042528663,1354.4413042528663,1.000288500688327,0.0003889728829125977
1354.4482488524893,1354.4482488524893,1.0001686946750843,0.00038894327483293293
1354.4551934521126,1354.4551934521126,1.0006129337247294,0.0003890145331155611
1354.4621380515953,1354.4621380515953,0.9998807737394273,0.0003888395511053963
1354.4690826511253,1354.4690826511253,0.9996657610108617,0.00038887208319932467
1354.476027250608,1354.476027250608,0.9991355344054865,0.0003887606844466404
1354.4829718500448,1354.4829718500448,0.9997592170622637,0.0003888222600373762
1354.4899164493884,1354.4899164493884,1.0002413004080384,0.00038906786711104735
1354.496861048778,1354.496861048778,1.000492895803941,0.0003889653313919699
1354.5038056480287,1354.5038056480287,0.9999076289853999,0.0003888644939115251
1354.5107502473254,1354.5107502473254,0.9999535137753931,0.0003887927868754194
1354.5176948465291,1354.5176948465291,1.0005987409919892,0.0003888644385937742
1354.524639445733,1354.524639445733,0.9998980393981078,0.0003887674462119784
1354.53158404489,1354.53158404489,1.000299598086945,0.0003888858308758391
1354.5385286439541,1354.5385286439541,0.9995667920826936,0.00038889796085461893
1354.5454732430185,1354.5454732430185,1.000040710532044,0.0003888414059879192
1354.5524178420353,1354.5524178420353,0.9996162576247425,0.000388770840666699
1354.5593624410071,1354.5593624410071,1.00030186568654,0.000388992483773611
1354.5663070399773,1354.5663070399773,0.999258838799513,0.0003888616042132495
1354.5732516388084,1354.5732516388084,1.0001443293166292,0.00038889831190681097
1354.5801962376866,1354.5801962376866,1.0005529258196846,0.00038907584325165075
1354.5871408364244,1354.5871408364244,0.9995348330429064,0.0003887380479138553
1354.5940854351625,1354.5940854351625,1.000601225779879,0.0003889127657351714
1354.6010300339008,1354.6010300339008,0.9999491472228736,0.0003889019631949972
1354.6079746326384,1354.6079746326384,1.000196530719114,0.0003888589085271625
1354.6149192311907,1354.6149192311907,0.9996348790587494,0.00038881869350472227
1354.6218638298353,1354.6218638298353,0.9994992700698011,0.0003887986822053878
1354.6288084283406,1354.6288084283406,1.0008179191021807,0.0003888828358185462
1354.6357530268463,1354.6357530268463,0.9995610000555084,0.0003887550918100505
1354.6426976253047,1354.6426976253047,1.0002390417116793,0.0003887797778425239
1354.64964222367,1354.64964222367,0.9999158543095887,0.00038879570157100316
1354.6565868220357,1354.6565868220357,1.0001313156390417,0.0003888155557269006
1354.6635314203547,1354.6635314203547,0.9998660675497307,0.0003888144350316905
1354.6704760186274,1354.6704760186274,0.9997149252790459,0.0003887414980719014
1354.6774206168066,1354.6774206168066,0.9997798466126049,0.000388771076114829
1354.6843652149855,1354.6843652149855,0.9999880369494069,0.0003887816602756533
1354.6913098131186,1354.6913098131186,1.0006006183259064,0.00038889890606061953
1354.6982544112511,1354.6982544112511,0.9999179083394187,0.0003888678592833148
1354.705199009291,1354.705199009291,1.0004929442859347,0.0003888107873979208
1354.7121436072841,1354.7121436072841,1.000495884408536,0.00038894596325092783
1354.7190882052303,1354.7190882052303,0.9999864386587533,0.0003887917953560588
1354.7260328031302,1354.7260328031302,0.9995848257434348,0.000388764023799809
1354.7329774009836,1354.7329774009836,1.0000657029899824,0.00038889725136124326
1354.7399219987904,1354.7399219987904,0.9996150205347746,0.00038876005443401544
1354.7468665965503,1354.7468665965503,1.0005886842425118,0.000389047856153139
1354.7538111942642,1354.7538111942642,0.9995170659434273,0.00038877225416418537
1354.760755791931,1354.760755791931,1.0000813975022531,0.00038885241013845485
1354.767700389645,1354.767700389645,0.9995699249883158,0.0003888941157977945
1354.7746449872186,1354.7746449872186,1.0006476809287936,0.00038893568605860736
1354.7815895846998,1354.7815895846998,1.0000298672737729,0.0003889725872262929
1354.7885341821338,1354.7885341821338,1.0000296406409814,0.0003888202468740138
1354.7954787796143,1354.7954787796143,0.999898838336718,0.0003888002681521246
1354.8024233770025,1354.8024233770025,0.9998590531406151,0.00038882920142143274
1354.8093679743433,1354.8093679743433,0.9995494883531393,0.00038876652220109093
1354.8163125716378,1354.8163125716378,1.000392870558961,0.00038893129850269047
1354.8232571688857,1354.8232571688857,1.0000428365286873,0.0003888862696442453
1354.8302017660874,1354.8302017660874,0.9999446747091285,0.00038876453003735065
1354.8371463632425,1354.8371463632425,1.0001363878381524,0.00038884419141546085
1354.84409096035,1354.84409096035,1.00019691424299,0.000388817626372172
1354.8510355574122,1354.8510355574122,0.9998655876654485,0.00038875899058639173
1354.8579801544272,1354.8579801544272,0.9998395786424077,0.0003888310258140904
1354.8649247513958,1354.8649247513958,0.9996233321100046,0.0003886653671302549
1354.871869348318,1354.871869348318,1.0003237221644716,0.0003888263273428573
1354.8788139451467,1354.8788139451467,1.0003198796018304,0.00038876253702108745
1354.8857585419755,1354.8857585419755,0.9997451820050343,0.0003887367550625575
1354.892703138758,1354.892703138758,0.9999176442832383,0.00038879441699160415
1354.8996477354938,1354.8996477354938,1.0002822836609868,0.00038881211490610654
1354.9065923321825,1354.9065923321825,0.9999621975560172,0.00038881883284354877
1354.913536928779,1354.913536928779,1.0005213011362146,0.00038896791377269666
1354.9204815253281,1354.9204815253281,0.9998903812068862,0.00038885639982982835
1354.927426121971,1354.927426121971,0.9995172984314223,0.00038888144831893205
1354.9349262860937,1354.9349262860937,0.9997693820664318,0.0003888631054832783
1354.9427042340726,1354.9427042340726,1.000171035856021,0.000388773296427161
1354.9496488304824,1354.9496488304824,1.0000286787902926,0.00038882370439112887
1354.9565934268455,1354.9565934268455,0.9995636021006333,0.000388814290554821
1354.9635380230688,1354.9635380230688,1.0001818294430471,0.000388727205736814
1354.9704826193392,1354.9704826193392,0.9999986059498003,0.00038870547707025086
1354.9774272155162,1354.9774272155162,1.0000587938021657,0.0003887553479392711
1354.9843718116467,1354.9843718116467,1.0001253693660126,0.00038877082439643803
1354.9913164077302,1354.9913164077302,0.9998964930590116,0.00038870912229039856
1354.9982610038142,1354.9982610038142,1.0001643664082036,0.00038885295032338744
1355.005205599758,1355.005205599758,1.000268872335877,0.00038880447758337804
1355.0121501957024,1355.0121501957024,0.9998762813579761,0.0003887356344658093
1355.0190947915999,1355.0190947915999,1.000023613462996,0.0003888100714855527
1355.0260393874512,1355.0260393874512,0.9998629866772744,0.0003886007710050263
1355.0329839832552,1355.0329839832552,0.9999689925947471,0.0003887617415336905
1355.0399285789667,1355.0399285789667,0.9999343991413226,0.0003888442943802028
1355.0468731746782,1355.0468731746782,0.9997612533675774,0.00038868760255140257
1355.0538177703427,1355.0538177703427,0.9997810004081342,0.00038878251236269964
1355.0607623659143,1355.0607623659143,1.0002930013541622,0.0003888438831959363
1355.0677069614862,1355.0677069614862,1.0000121559769841,0.0003886859969578223
1355.074651556964,1355.074651556964,1.000393378678703,0.0003888627913345078
1355.0815961524427,1355.0815961524427,1.0001549739810451,0.00038883338591718134
1355.088540747828,1355.088540747828,1.0001270129075732,0.00038877968634865165
1355.0954853432133,1355.0954853432133,0.9998500004976563,0.00038872459244146434
1355.1024299384594,1355.1024299384594,0.9997066131172488,0.00038861594822036896
1355.1093745337046,1355.1093745337046,1.0002281117271266,0.0003887003627997532
1355.1163191289504,1355.1163191289504,0.9997252818286768,0.00038866900033262007
1355.1232637241494,1355.1232637241494,0.9992750378523534,0.0003885513690899183
1355.1302083192088,1355.1302083192088,1.0001721106848327,0.00038878655207457606
1355.1371529142684,1355.1371529142684,0.9998271689312279,0.0003886808088265464
1355.1440975093276,1355.1440975093276,1.0005002294196192,0.00038870506661638226
1355.1510421042938,1355.1510421042938,1.0003301765771355,0.0003887513376730321
1355.1579866991667,1355.1579866991667,1.0001073542971461,0.0003886701874101767
1355.1649312940401,1355.1649312940401,0.9998889977985893,0.00038873162591008495
1355.1718758888667,1355.1718758888667,0.9997268741120461,0.00038882610108330166
1355.1788204836466,1355.1788204836466,1.0004116003612844,0.00038887836511510395
1355.1857650783334,1355.1857650783334,0.9998212551336841,0.00038870435895384215
1355.192709672974,1355.192709672974,1.000422428745748,0.0003888358694925054
1355.1996542676604,1355.1996542676604,1.0001805760208948,0.0003888356605981491
1355.2065988622076,1355.2065988622076,0.9996687573146732,0.00038861383518840975
1355.2135434567085,1355.2135434567085,0.9999225362758747,0.0003887521277529316
1355.2204880512088,1355.2204880512088,1.0000944982275322,0.00038883966518525056
1355.227432645616,1355.227432645616,0.9996615489694861,0.0003886914517511694
1355.2343772399774,1355.2343772399774,0.9996505268516456,0.0003888011861778408
1355.2413218342913,1355.2413218342913,0.9996355775792203,0.0003888199450644381
1355.2482664286058,1355.2482664286058,1.0004264165062775,0.00038884813224452443
1355.2552110228269,1355.2552110228269,0.9995141685887241,0.000388655137753698
1355.2621556170018,1355.2621556170018,1.0008214792851464,0.000388826268030918
1355.269100211083,1355.269100211083,1.0000581101285597,0.00038871209691229155
1355.2760448051645,1355.2760448051645,0.999792530406447,0.00038860192468988903
1355.2829893992462,1355.2829893992462,1.0001349276669766,0.00038876692686838773
1355.2899339931878,1355.2899339931878,1.0001246858910757,0.00038875413200732033
1355.2968785871294,1355.2968785871294,1.0001462462675388,0.0003886739924227404
1355.3038231810249,1355.3038231810249,0.9998436791754776,0.0003886504172980138
1355.3107677748271,1355.3107677748271,1.0002336424947391,0.00038865742839657276
1355.3177123686287,1355.3177123686287,0.99975836174862,0.00038855965215205406
1355.3246569623382,1355.3246569623382,0.9998323433862615,0.0003886171455760103
1355.331601556047,1355.331601556047,1.0004991810160335,0.0003887913537622996
1355.3399350683858,1355.3399350683858,0.9996391704841809,0.0003886945198225887
1355.3468796619552,1355.3468796619552,0.9991961403489149,0.0003886053018063762
1355.3538242554314,1355.3538242554314,0.9998693792859538,0.0003886268507885573
1355.3607688489542,1355.3607688489542,1.0008003928651164,0.0003888368188625251
1355.3677134423835,1355.3677134423835,0.9999534131031395,0.0003887544666006526
1355.3746580357665,1355.3746580357665,0.9998321357366686,0.0003887006154131796
1355.3816026290565,1355.3816026290565,1.0003447236752436,0.0003887421880587777
1355.3885472223926,1355.3885472223926,0.9994855794401228,0.0003885879656792237
1355.3957695993063,1355.3957695993063,1.0005827994688283,0.0003888558871531164
1355.4038253274164,1355.4038253274164,1.0000235652987324,0.00038869468502330954
1355.4107699205665,1355.4107699205665,0.9998171822090836,0.0003886268608797888
1355.4177145136703,1355.4177145136703,1.0003231452738364,0.00038864214007672834
1355.4246591066342,1355.4246591066342,0.9997330892704774,0.00038871168534725407
1355.4316036995515,1355.4316036995515,1.0001810467137837,0.000388789797629738
1355.4385482924688,1355.4385482924688,0.9997984282013505,0.00038876602512591743
1355.445492885386,1355.445492885386,1.0000724088023722,0.0003888196377150027
1355.4524374783032,1355.4524374783032,0.9998677826096539,0.00038874795208000164
1355.459382070988,1355.459382070988,0.9997120715978717,0.0003887112485309595
1355.4663266637656,1355.4663266637656,1.0001406659190137,0.000388666665668042
1355.47327125645,1355.47327125645,0.9994712003436543,0.00038853140767777864
1355.4802158490882,1355.4802158490882,1.0002789037008641,0.0003886268943920325
1355.4871604416326,1355.4871604416326,1.0002322720844072,0.0003886390524025922
1355.494105034178,1355.494105034178,0.9997991545499945,0.00038857909818677767
1355.501049626676,1355.501049626676,1.0006428540147636,0.0003887360727857597
1355.5079942191273,1355.5079942191273,1.0004502875868213,0.0003887209261505474
1355.514938811486,1355.514938811486,0.999799709147376,0.0003886610989125489
1355.521883403798,1355.521883403798,0.9994043904192361,0.00038851941156408065
1355.52882799611,1355.52882799611,1.0000999321934712,0.0003886168184016624
1355.5357725883289,1355.5357725883289,1.000253985384286,0.0003887035873029475
1355.5427171805477,1355.5427171805477,0.9993508488535854,0.0003884138488278315
1355.54966177272,1355.54966177272,1.000254312554027,0.0003887097347105317
1355.5566063647525,1355.5566063647525,1.000164694182535,0.00038872937468279573
1355.563550956785,1355.563550956785,0.9998404355698053,0.000388691656198678
1355.5704955488177,1355.5704955488177,1.0002828236432157,0.0003886760910647573
1355.577440140757,1355.577440140757,1.0001135496578302,0.00038867340499929243
1355.5843847326037,1355.5843847326037,0.9997191963385795,0.0003886661648881577
1355.5913293245428,1355.5913293245428,0.999747904035664,0.00038859605918071025
1355.5982739162962,1355.5982739162962,0.9999895898212368,0.0003886039675472787
1355.6052185080491,1355.6052185080491,1.0003937470902833,0.0003887155331547674
1355.6121630998027,1355.6121630998027,0.999880836137488,0.00038861671589878626
1355.619107691323,1355.619107691323,0.999797318372881,0.00038850539237375814
1355.626052282983,1355.626052282983,0.999777148188258,0.00038860432425046634
1355.6329968745497,1355.6329968745497,1.000607176877932,0.0003887573188531616
1355.6399414660239,1355.6399414660239,0.9997343040964417,0.0003885759355266165
1355.6468860574973,1355.6468860574973,1.0000047349185834,0.000388599262436286
1355.653830648925,1355.653830648925,1.000044878870959,0.0003886084598669482
1355.6607752402585,1355.6607752402585,1.0000625932668854,0.00038861491437650064
1355.6677198315463,1355.6677198315463,1.0005086091845805,0.0003887759900549803
1355.674664422834,1355.674664422834,0.9997231524811235,0.0003885755495640211
1355.681609014028,1355.681609014028,0.9996150951162093,0.0003886402430822582
1355.688553605176,1355.688553605176,0.9997889831529152,0.00038856905162587216
1355.695498196324,1355.695498196324,1.0004035498848853,0.00038877283948939516
1355.7024427873785,1355.7024427873785,0.9997629825382306,0.0003885713080945273
1355.7093873783865,1355.7093873783865,0.9998147996845095,0.0003886307836822127
1355.7163319693486,1355.7163319693486,1.0000489308155927,0.00038861361448204505
1355.7232765602632,1355.7232765602632,1.000353451466223,0.0003886686890815792
1355.730221151132,1355.730221151132,1.0000817478405055,0.00038856289179982773
1355.7371657419535,1355.7371657419535,0.9998869419421382,0.00038859617852902615
1355.7446658999756,1355.7446658999756,0.9993017025022599,0.00038856117685683066
1355.7524438415755,1355.7524438415755,1.0001112145228714,0.00038852831250406285
1355.759388432211,1355.759388432211,1.0006799852704906,0.00038871858999691263
1355.7663330229864,1355.7663330229864,1.0005563600825893,0.00038873721727454813
1355.7732776134358,1355.7732776134358,0.9997532436156013,0.0003885283028189835
1355.7802222039313,1355.7802222039313,0.999878994067202,0.00038858554976059403
1355.787166794474,1355.787166794474,0.999518320748157,0.0003886071904488182
1355.794111384877,1355.794111384877,1.0003492846828772,0.00038871336154371646
1355.8010559752333,1355.8010559752333,0.9993031121187915,0.0003885679820029778
1355.8080005655427,1355.8080005655427,1.000131463266668,0.0003885272594407028
1355.8149451558525,1355.8149451558525,1.0005449900944299,0.0003886436999816005
1355.8218897460688,1355.8218897460688,0.9997242009396397,0.00038852382653783426
1355.828834336239,1355.828834336239,1.0000595577496942,0.000388677917882851
1355.8357789263623,1355.8357789263623,0.999959131573466,0.00038860035670469254
1355.8427235164854,1355.8427235164854,0.9997009869271934,0.000388588665921731
1355.8496681065158,1355.8496681065158,0.9999116311989033,0.00038851675441232367
1355.8566126964997,1355.8566126964997,1.0004671251427033,0.00038864371479671795
1355.86355728639,1355.86355728639,0.9998316604473109,0.00038854875995853133
1355.8705018763274,1355.8705018763274,1.0004485333767104,0.0003885581828867703
1355.8774464661246,1355.8774464661246,0.9998718366451463,0.0003886295574709241
