time,time,flux,flux_err
1468.2803041494287,1468.2803041494287,1.0062683885672945,0.021596206311817547
1468.2879432938196,1468.2879432938196,0.9806429523788781,0.019701210838346108
1468.294887970513,1468.294887970513,1.0127630624522381,0.019709523601179748
1468.3018326470203,1468.3018326470203,0.992962321843369,0.01970335489387423
1468.3087773234347,1468.3087773234347,0.9677719022218266,0.019662081618248128
1468.3157219997552,1468.3157219997552,1.013346927576388,0.01970193024617715
1468.3226666759829,1468.3226666759829,0.9953920747938254,0.019692474635490877
1468.329611352025,1468.329611352025,1.0221918698740464,0.01969433021436772
1468.336556027973,1468.336556027973,0.9906484281118878,0.0196895049774261
1468.3435007039218,1468.3435007039218,0.987740181795283,0.019726840564354534
1468.3504453794972,1468.3504453794972,1.025646707031949,0.019711139728000954
1468.3573900550732,1468.3573900550732,0.9863205394200696,0.019693949564645118
1468.3643347306493,1468.3643347306493,0.9757656201616822,0.01967769273278471
1468.3712794062253,1468.3712794062253,0.9940656477179001,0.01970079323240667
1468.3782240814285,1468.3782240814285,1.0143179291549522,0.01968182252636299
1468.3948913016927,1468.3948913016927,1.0015794649095195,0.019959328772418145
1468.4018359766173,1468.4018359766173,0.979937276901411,0.01989493339117441
1468.4087806514483,1468.4087806514483,1.0093664368692488,0.019881332732899375
1468.4157253261856,1468.4157253261856,1.0093960638953892,0.019874650989950827
1468.4226700007368,1468.4226700007368,1.002141343584922,0.019873568126562068
1468.4296146751024,1468.4296146751024,1.0319422753923764,0.01986282137877992
1468.4365593495609,1468.4365593495609,0.9855552241619836,0.01984223570877885
1468.4435040237395,1468.4435040237395,0.9711832957472591,0.019843847651986872
1468.4504486978253,1468.4504486978253,0.970360391035222,0.019809519622451668
1468.4573933719107,1468.4573933719107,1.0222185630020315,0.01982278475752753
1468.4643380458103,1468.4643380458103,1.0556056815306476,0.01985098291274006
1468.471282719617,1468.471282719617,0.9958492951919921,0.019869942416066995
1468.4782273933301,1468.4782273933301,1.0055443777722712,0.019867793954088237
1468.4851720669499,1468.4851720669499,1.0145564477442457,0.01985880223186317
1468.4921167402908,1468.4921167402908,0.9953353282791086,0.019826870835191395
1468.499061413539,1468.499061413539,1.0180732579423553,0.01989887833078123
1468.5060060867863,1468.5060060867863,0.9650802858454014,0.019884028132760547
1468.5129507600336,1468.5129507600336,0.9997302232492548,0.01993124858504034
1468.5198954330954,1468.5198954330954,1.0049916163089136,0.01996923788967468
1468.52684010597,1468.52684010597,1.003063218686991,0.02003067877584577
1468.5337847787519,1468.5337847787519,1.0351898549688434,0.020033445218909148
1468.5407294514412,1468.5407294514412,1.0037684382248198,0.019979984515817884
1468.5476741239434,1468.5476741239434,0.9826074469849113,0.01995218613077065
1468.554618796446,1468.554618796446,0.9890445985825751,0.019943743133593168
1468.5615634687624,1468.5615634687624,0.9690150778232816,0.01983332699861453
1468.5685081409856,1468.5685081409856,1.0062950964232433,0.0198496193133926
1468.5754528131154,1468.5754528131154,1.019810883556296,0.019766320361977865
1468.582397485152,1468.582397485152,0.9924144536460968,0.019801597532811667
1468.5893421570029,1468.5893421570029,1.0003879242524085,0.01977057986996021
1468.59628682876,1468.59628682876,1.0193076064877,0.01977975028129713
1468.603231500425,1468.603231500425,1.000704186053825,0.019770611704007436
1468.6101761720888,1468.6101761720888,1.0001562048847257,0.019743095517425185
1468.617120843474,1468.617120843474,0.9976561405945692,0.019728881318137347
1468.6240655147658,1468.6240655147658,1.0075493547156793,0.01982441756049111
1468.631010186151,1468.631010186151,0.9881090431141851,0.019827289487616702
1468.6379548570699,1468.6379548570699,1.0158041664745052,0.019892812433000777
1468.6448995279893,1468.6448995279893,0.9724720476698809,0.01989766845247213
1468.6518441989083,1468.6518441989083,1.0105033424106717,0.019909164626606572
1468.658788869828,1468.658788869828,0.9899539204167336,0.01994252857183576
1468.6657335405612,1468.6657335405612,0.9965650692812791,0.019935817286810632
1468.6726782111077,1468.6726782111077,1.0027819555858284,0.01992575312598436
1468.6796228815613,1468.6796228815613,1.0065857638231916,0.019928995924017815
1468.6865675519216,1468.6865675519216,1.0136368247043888,0.019888804951685667
1468.6935122220962,1468.6935122220962,0.9910525527696723,0.019893711011496562
1468.7004568922705,1468.7004568922705,1.0057504520061133,0.01984362421113258
1468.707401562258,1468.707401562258,0.9854353762140617,0.01977367258189095
1468.7143462321528,1468.7143462321528,1.006095466655615,0.019776999836590255
1468.7212909019545,1468.7212909019545,1.0086657066961728,0.01979091090981657
1468.72823557157,1468.72823557157,0.9865124987867752,0.01979724958806608
1468.7351802411858,1468.7351802411858,0.9944588769979269,0.01984172559466097
1468.7421249106148,1468.7421249106148,1.004779119027143,0.019834816490559855
1468.7490695799506,1468.7490695799506,1.0121242439799358,0.019913781637061426
1468.7560142491006,1468.7560142491006,1.0020912641635267,0.01995093706068854
1468.7629589182504,1468.7629589182504,1.0319559614460239,0.019975147514659994
1468.7699035873072,1468.7699035873072,0.981666931713189,0.020009571018734372
1468.7768482562708,1468.7768482562708,0.9769063197376104,0.020006477631397797
1468.7837929249545,1468.7837929249545,1.0021586308344,0.01999212029308166
1468.7907375935458,1468.7907375935458,0.993166027400566,0.020014788847820913
1468.797682262137,1468.797682262137,1.0067276608408304,0.019995615133852222
1468.8046269307276,1468.8046269307276,0.9890610011121798,0.0199113683442917
1468.811571599039,1468.811571599039,0.9879343391563593,0.019904721157417905
1468.8185162672573,1468.8185162672573,1.0000820909071337,0.01980641845896462
1468.825460935383,1468.825460935383,1.0082736207570149,0.019764405941744084
1468.8324056034155,1468.8324056034155,0.9923474433438614,0.019711788129854118
1468.8393502713543,1468.8393502713543,0.9964295462322263,0.01964180281211946
1468.8462949391069,1468.8462949391069,1.0044547292681056,0.01961627776218512
1468.8532396067665,1468.8532396067665,0.9812603572731107,0.01964117558813018
1468.860184274333,1468.860184274333,1.0387941458779342,0.01965713040249131
1468.8671289419,1468.8671289419,1.0119984853213895,0.019677846364816606
1468.8740736090938,1468.8740736090938,0.980989915017771,0.019682626712961254
1468.881018276381,1468.881018276381,0.9904247782735739,0.01977022614786982
1468.8879629435748,1468.8879629435748,0.9910143526858615,0.01984382910842041
1468.8949076104896,1468.8949076104896,0.9909023538850169,0.01986148775368036
1468.9018522774045,1468.9018522774045,1.0049117532212926,0.01988808053633497
1468.9087969442255,1468.9087969442255,1.003076084694466,0.019946374722645106
1468.9157416109538,1468.9157416109538,0.9912740800801598,0.02001689990184284
1468.9226862774958,1468.9226862774958,1.006686734049951,0.020034473675900458
1468.929630943945,1468.929630943945,1.004614444572656,0.020039806313561663
1468.9365756102077,1468.9365756102077,1.0142796101002536,0.020033512715857828
1468.9435202764703,1468.9435202764703,0.9800853639109874,0.020010385997683018
1468.9504649427327,1468.9504649427327,1.0162243701497047,0.02000144189820554
1468.9574096087163,1468.9574096087163,1.005930389736743,0.019985191907445195
1468.965743207859,1468.965743207859,0.9785523190734219,0.0199666401117061
1468.9726878735628,1468.9726878735628,0.9909198818946816,0.019933109300378903
1468.9796325392665,1468.9796325392665,1.0097334463862604,0.01996732914921028
1468.986577204784,1468.986577204784,1.0059156326785335,0.019929572286734896
1468.993521870302,1468.993521870302,0.99131298196288,0.019915882685815952
1469.0004665356332,1469.0004665356332,1.0054972445709711,0.01985893178924365
1469.0074112008715,1469.0074112008715,1.002092092709535,0.019856902826226732
1469.0143558659233,1469.0143558659233,1.0013102138565153,0.019819200145003192
1469.0213005310684,1469.0213005310684,0.9998051656261747,0.019840229644959323
1469.0282451958412,1469.0282451958412,0.9989231911010906,0.019859347678307937
1469.035189860707,1469.035189860707,1.0082358034040015,0.01983853040882986
1469.0421345253865,1469.0421345253865,0.9853883679337315,0.019875085534128333
1469.0490791899724,1469.0490791899724,1.0200369905040552,0.0199046520467101
1469.0560238543724,1469.0560238543724,1.0022978213437894,0.019895473197946583
1469.0629685187728,1469.0629685187728,0.9985679195767283,0.019941436903166382
1469.0699131828933,1469.0699131828933,0.985388945302484,0.019924081729259475
1469.0768578472935,1469.0768578472935,1.0285277268320656,0.01991361706416777
1469.0838025112275,1469.0838025112275,0.9756853708638038,0.019902325018983744
1469.090747175162,1469.090747175162,1.010901270804127,0.019866978896234393
1469.0976918389104,1469.0976918389104,1.000157546854353,0.019855764060669513
1469.104636502565,1469.104636502565,1.0018683873282201,0.019774881396766694
1469.111581166127,1469.111581166127,0.998794582363764,0.019830903453514
1469.1185258296887,1469.1185258296887,1.0065234301714765,0.019805361021179406
1469.1254704930645,1469.1254704930645,0.9847533257491499,0.019780848042958245
1469.1324151562537,1469.1324151562537,1.0274581114894334,0.019799189856237173
1469.1393598194431,1469.1393598194431,0.9996694870943109,0.019775297228293152
1469.1463044824463,1469.1463044824463,1.0062640950536854,0.0197914136279384
1469.153249145356,1469.153249145356,0.9994198775798511,0.01984473487330153
1469.1601938080794,1469.1601938080794,1.0018830392470304,0.01985267045730908
1469.1671384708964,1469.1671384708964,0.9849779898371734,0.01984296271272739
1469.1740831335271,1469.1740831335271,0.9850295688025843,0.019807005376639295
1469.1810277959717,1469.1810277959717,1.0190565697047087,0.01980410807065803
1469.1879724583227,1469.1879724583227,0.9609714221859111,0.019770983574906545
1469.1949171205804,1469.1949171205804,0.9934919150337892,0.019772230824746898
1469.2018617827453,1469.2018617827453,1.0127781050313716,0.019743605067147337
1469.208806444817,1469.208806444817,0.9718165044298346,0.01967795607950406
1469.215751106889,1469.215751106889,1.0149908227096776,0.01969563188630031
1469.2226957684948,1469.2226957684948,1.037580748336005,0.01970305291102318
1469.2296404302872,1469.2296404302872,0.9991910890620106,0.019717089320186516
1469.2365850919864,1469.2365850919864,0.9959477727071431,0.019722947819515675
1469.2435297533127,1469.2435297533127,0.9915229501122227,0.01981100205645697
1469.2504744149192,1469.2504744149192,1.0249374354396497,0.019861784578847637
1469.2574190760595,1469.2574190760595,0.9941831481142372,0.01987024888280675
1469.2643637372928,1469.2643637372928,0.9802376007408353,0.01988543749432369
1469.2713083984333,1469.2713083984333,0.9772636581446527,0.019899116130627083
1469.2782530592945,1469.2782530592945,1.0040907940970913,0.019903456765680054
1469.2851977201558,1469.2851977201558,0.9880852632512603,0.019925240375535145
1469.2921423809235,1469.2921423809235,1.0068090934829967,0.019890269842473576
1469.2990870415047,1469.2990870415047,0.9918523788916943,0.01986033240387023
1469.3060317020868,1469.3060317020868,1.0075426578942155,0.019849150764536357
1469.312976362482,1469.312976362482,1.02942666500708,0.01984191875913103
1469.319921022691,1469.319921022691,1.0121821425719961,0.019785033918317672
1469.3268656829935,1469.3268656829935,1.0007406968834949,0.01973481599776033
1469.3338103430158,1469.3338103430158,0.9745132677648781,0.019692738131190605
1469.3407550030388,1469.3407550030388,1.0132933910955018,0.019731457232068546
1469.3476996628756,1469.3476996628756,0.9830897692264431,0.0197200269763241
1469.3546443226192,1469.3546443226192,0.98859289357297,0.019756832778170426
1469.361588982269,1469.361588982269,0.9924575923116361,0.01976302399850241
1469.3685336417334,1469.3685336417334,1.019188096695414,0.019767833689843934
1469.3754783011968,1469.3754783011968,1.0011541647174933,0.01979030953124334
1469.3824229607544,1469.3824229607544,1.0050202431336897,0.019736525655789972
1469.3893676195667,1469.3893676195667,1.0026605025555972,0.01970038018169564
1469.3963122788443,1469.3963122788443,0.9838341562771051,0.01962661822998
1469.4032569378428,1469.4032569378428,1.0110810817617308,0.019656099645154846
1469.4102015967478,1469.4102015967478,1.001423310688952,0.019656421777508218
1469.4171462554666,1469.4171462554666,0.9884026725537751,0.019684587722083223
1469.4240909141859,1469.4240909141859,1.0010000782870268,0.01975175509847754
1469.4310355727189,1469.4310355727189,1.0063352297793386,0.01982433296348108
1469.4379802311582,1469.4379802311582,1.0169609274966507,0.019846069900229732
1469.4449248895046,1469.4449248895046,1.0184642702619806,0.01989590516195603
1469.451869547758,1469.451869547758,0.9940884896996188,0.01989165494392024
1469.458814205918,1469.458814205918,0.9890935115908116,0.01988721976303065
1469.465758863799,1469.465758863799,0.9852747539843442,0.019870130512699577
1469.472703521773,1469.472703521773,0.969652542456398,0.019910766066176946
1469.4796481794674,1469.4796481794674,0.9991145903379477,0.01988470264379006
1469.4865928371619,1469.4865928371619,1.0079261005377604,0.019888556704189254
1469.4935374948564,1469.4935374948564,1.0119169709895643,0.019931990374137194
1469.5004821522718,1469.5004821522718,1.0189446116701668,0.019956432099444917
1469.5074268095934,1469.5074268095934,0.9930325458684045,0.01992664357498641
1469.5143714669157,1469.5143714669157,1.0371777813193264,0.019883051051426424
1469.5213161239578,1469.5213161239578,0.9975004295025391,0.01983346394579193
1469.5282607809072,1469.5282607809072,1.0006300571595141,0.019775754365627594
1469.5352054378573,1469.5352054378573,0.9810512857012219,0.019810418248884746
1469.5421500948064,1469.5421500948064,0.9997663882931235,0.019828633298687504
1469.5490947514768,1469.5490947514768,0.9946512834856109,0.019909985560269967
1469.5560394080535,1469.5560394080535,0.9890699241643045,0.01999777062722273
1469.5629840645372,1469.5629840645372,1.0190407969949924,0.020046481219613044
1469.5699287209281,1469.5699287209281,1.0282738005194842,0.020054999700970837
1469.5768733772254,1469.5768733772254,1.015872405397431,0.020072469723605855
1469.5838180333367,1469.5838180333367,0.9792108831217508,0.02011368843487926
1469.590762689355,1469.590762689355,0.9788469935885085,0.020123141710939877
1469.5977073453728,1469.5977073453728,0.9898362178651702,0.02008649758431901
1469.604652001205,1469.604652001205,0.9869878006072443,0.02004328721846814
1469.6115966569437,1469.6115966569437,0.9988909054457832,0.0200025268046762
1469.618541312496,1469.618541312496,1.0087071758871269,0.019983179781995025
1469.625485967956,1469.625485967956,1.0050873956492632,0.01995192089013608
1469.6324306233214,1469.6324306233214,1.0166862090085684,0.019910811899650275
1469.6393752786876,1469.6393752786876,0.9745867919783846,0.019811829538382765
1469.6463199338677,1469.6463199338677,1.0137608284203576,0.019756225508708158
1469.6532645889547,1469.6532645889547,1.0071774558967186,0.019690096566777938
1469.6602092438557,1469.6602092438557,1.0109585234330445,0.019707135258945706
1469.667153898849,1469.667153898849,0.9977613600693871,0.01972287798207383
1469.674098553563,1469.674098553563,0.9832280929804605,0.019733456916961316
1469.6810432081845,1469.6810432081845,0.999994298725378,0.019778740764732093
1469.6879878628056,1469.6879878628056,0.9960443570512094,0.01982618071249506
1469.6949325170544,1469.6949325170544,1.0276248508505432,0.019851907940484543
1469.701877171396,1469.701877171396,0.9887866455714998,0.0198758970014904
1469.7088218256442,1469.7088218256442,0.9786592948166362,0.01989057984682536
1469.7157664797066,1469.7157664797066,1.0162040893708517,0.019888027472102405
1469.7227111337693,1469.7227111337693,1.0089723037084966,0.019901941308836497
1469.7296557875525,1469.7296557875525,0.9968786784350752,0.019854118201327577
1469.736600441335,1469.736600441335,0.9690355143783999,0.019838232066520738
1469.7435450950252,1469.7435450950252,1.0223448068476637,0.01982060266237545
1469.7504897484353,1469.7504897484353,1.0033401335129843,0.019846686915859762
1469.757434401939,1469.757434401939,0.9936339447190692,0.01982610076205822
1469.7643790553495,1469.7643790553495,1.0042107560259783,0.01975054359021089
1469.7713237085736,1469.7713237085736,1.0023904289300813,0.019718368873548803
1469.7782683617047,1469.7782683617047,0.9971480013381442,0.019702111581646937
1469.7852130147423,1469.7852130147423,1.003932279552421,0.01975169579665232
1469.7921576675944,1469.7921576675944,1.0054712639057448,0.0197309282828229
1469.7991023203526,1469.7991023203526,0.9777831558610682,0.01973355749711633
1469.8060469731113,1469.8060469731113,1.0162024714803968,0.01976187063899188
1469.8129916255907,1469.8129916255907,1.0016028118740077,0.019725906730646642
1469.8199362782557,1469.8199362782557,1.0226848064355776,0.019682966741113164
1469.8268809305487,1469.8268809305487,0.9820404215125418,0.019701860526525738
1469.8338255828414,1469.8338255828414,0.9673401800108433,0.01970081375677148
1469.8407702348547,1469.8407702348547,0.9777566414528398,0.019654006495024162
1469.847714886962,1469.847714886962,0.9946404922264664,0.019654353258098535
1469.8546595387893,1469.8546595387893,1.0198783673301306,0.019660006003321222
1469.861604190709,1469.861604190709,1.0096066503550263,0.019634007825063422
1469.8685488423496,1469.8685488423496,0.9999811675815697,0.019588356660294536
1469.875493493991,1469.875493493991,1.0186132563922004,0.019607471368387346
1469.8824381454456,1469.8824381454456,0.9873914610013885,0.019619729369395773
1469.8893827968072,1469.8893827968072,0.990714241343982,0.019642046087731405
1469.8963274480752,1469.8963274480752,0.9989483753733449,0.019622532591282972
1469.903272099344,1469.903272099344,1.0012791371524599,0.0196867760629678
1469.9102167502397,1469.9102167502397,0.9971231269514836,0.01972460512075968
1469.917161401322,1469.917161401322,1.0182666073265014,0.01982428989175246
1469.924106052125,1469.924106052125,1.009880064760199,0.019861505244977765
1469.9310507028342,1469.9310507028342,0.9951435060473022,0.01985424652066837
1469.937995353451,1469.937995353451,0.9796053256733879,0.019917437748128156
1469.944940003974,1469.944940003974,0.9926598444223886,0.01986679842094287
1469.9518846544042,1469.9518846544042,1.0125369343430788,0.019843662352163217
1469.9588293046484,1469.9588293046484,0.9821719339530418,0.019873563265280097
1469.9657739549853,1469.9657739549853,0.9994065444091798,0.019884242470981788
1469.97271860495,1469.97271860495,1.014554358451455,0.01985896185661993
1469.9796632549144,1469.9796632549144,0.9867986152365835,0.019823386642198515
1469.9866079048784,1469.9866079048784,1.0241583027074337,0.0198109182322254
1469.9935525545638,1469.9935525545638,1.002080789255208,0.019750656085687976
1470.000497204249,1470.000497204249,0.9753103024028908,0.01969411296281157
1470.0074418537483,1470.0074418537483,1.0164840018944536,0.019702543098373076
1470.0143865032474,1470.0143865032474,0.9863702635277264,0.019701941975859456
1470.0213311525595,1470.0213311525595,1.0009020072288228,0.019734638593573255
1470.0282758016858,1470.0282758016858,1.0098842957387253,0.019699169154862143
1470.0352204509054,1470.0352204509054,1.0048227677440238,0.019745511557237107
1470.0421650998455,1470.0421650998455,0.9931213221015159,0.01977683087066185
1470.049109748879,1470.049109748879,1.0049566104989314,0.019775960667252117
1470.0560543976328,1470.0560543976328,1.0052254390928062,0.019812084460877705
1470.0629990461998,1470.0629990461998,0.9952314466261875,0.0198615665153652
1470.0699436948612,1470.0699436948612,0.9972966556017951,0.01991217984473273
1470.0768883432422,1470.0768883432422,1.013548386267468,0.019957954750694114
1470.0838329916235,1470.0838329916235,0.9933687044660975,0.01996302637517807
1470.0907776398187,1470.0907776398187,0.9984783466616299,0.0200187436014585
