time,time,flux,flux_err
1325.3006845965645,1325.3006845965645,0.9999983600693287,0.0003010485376606814
1325.3090178302323,1325.3090178302323,1.0001658143102505,0.00030127572314163803
1325.3173510639979,1325.3173510639979,1.0003454450476654,0.0003014430832486015
1325.3249898618744,1325.3249898618744,1.0001432732304893,0.00027530101903880806
1325.3319342236841,1325.3319342236841,0.9991326916383463,0.00027523987644923116
1325.3388785856102,1325.3388785856102,0.9997692541375611,0.0002754663194487393
1325.345822947723,1325.345822947723,0.9999791553659498,0.0002755405296238263
1325.3527673099054,1325.3527673099054,0.99977138746846,0.0002755987947669268
1325.3597116722508,1325.3597116722508,0.9998881167850773,0.0002757058172711253
1325.3666560347126,1325.3666560347126,1.0002902384093777,0.0002757848312557298
1325.3736003972906,1325.3736003972906,1.0001789232419018,0.0002758093428167264
1325.380544760032,1325.380544760032,1.0002578156887094,0.00027580881678693724
1325.3874891228663,1325.3874891228663,0.9998020687077874,0.00027580711081768325
1325.394433485817,1325.394433485817,0.9999787828840481,0.0002758235266125726
1325.4013778489539,1325.4013778489539,0.9998787707612904,0.00027582141421800044
1325.4083222121376,1325.4083222121376,0.9999384009126027,0.00027581970287352626
1325.4152665754839,1325.4152665754839,1.000319089746987,0.00027588535988873174
1325.4222109389934,1325.4222109389934,0.9999201141620782,0.0002758482555355286
1325.4291553025494,1325.4291553025494,0.9996748873490178,0.000275832181431991
1325.4360996662685,1325.4360996662685,1.000210687158606,0.0002758910452597345
1325.4430440301508,1325.4430440301508,1.0000702369987147,0.00027590211250305707
1325.4499883940794,1325.4499883940794,0.9999308956028408,0.00027589271988145324
1325.4569327581241,1325.4569327581241,1.0003567282295347,0.0002759599735364604
1325.4638771223322,1325.4638771223322,0.9999279086863236,0.0002758985373596462
1325.4708214866332,1325.4708214866332,0.999939410819837,0.00027593311986308925
1325.4777658510743,1325.4777658510743,1.0004111067209986,0.00027600173968295703
1325.4847102155848,1325.4847102155848,0.9997117281016958,0.0002759508977061253
1325.4916545802587,1325.4916545802587,0.9995765739151036,0.0002759160155687776
1325.4985989450022,1325.4985989450022,0.9999180596140919,0.00027602693946082214
1325.5055433098853,1325.5055433098853,1.0002515591789802,0.0002760663007258054
1325.5124876749082,1325.5124876749082,1.0000518238406129,0.00027607070428241066
1325.519432040001,1325.519432040001,0.9993713608062131,0.00027600961609642986
1325.526376405187,1325.526376405187,1.0003157277199706,0.0002761520461481992
1325.5333207705123,1325.5333207705123,0.9997633085836881,0.00027609694967852384
1325.540265135931,1325.540265135931,1.000274023774588,0.0002761942738869937
1325.5472095014666,1325.5472095014666,1.0005258840030367,0.0002762247853488872
1325.5541538670946,1325.5541538670946,0.9999240803572131,0.0002761747210834099
1325.5610982328628,1325.5610982328628,1.000029226468025,0.0002761769369722806
1325.5680425987237,1325.5680425987237,0.9998137819732411,0.00027621606971785
1325.574986964678,1325.574986964678,1.000155389898985,0.0002762747200468204
1325.5819313307256,1325.5819313307256,0.9997185972575846,0.0002762182225745194
1325.5888756968657,1325.5888756968657,1.0000139087376054,0.0002762761233217058
1325.5958200631226,1325.5958200631226,0.9998830366159833,0.00027627322699453667
1325.6027644295195,1325.6027644295195,0.9997625543674242,0.00027626267953466177
1325.6097087959624,1325.6097087959624,1.000186165533096,0.0002763305501261705
1325.6166531625222,1325.6166531625222,1.0003067740082778,0.0002763594808112982
1325.6235975291747,1325.6235975291747,0.9997900844459273,0.000276284741969789
1325.6305418959207,1325.6305418959207,1.0001825630412975,0.0002763375349337121
1325.6374862627597,1325.6374862627597,1.000015232998456,0.0002763360702178214
1325.6444306297383,1325.6444306297383,1.0000784524260085,0.0002763332076245034
1325.6513749967637,1325.6513749967637,0.9998706564578951,0.00027632775910663675
1325.6583193638821,1325.6583193638821,1.00016406724399,0.0002763575000340278
1325.665263731117,1325.665263731117,0.9997771303177835,0.0002763198114484771
1325.6722080984678,1325.6722080984678,1.0001595774509875,0.000276346555896297
1325.6791524658424,1325.6791524658424,0.9999122700892554,0.0002763106003052094
1325.6860968333335,1325.6860968333335,0.9995793597833291,0.00027629749327879585
1325.6930412009174,1325.6930412009174,1.0001359061576718,0.0002763935538549621
1325.699985568595,1325.699985568595,1.0000700620046261,0.0002763779622128438
1325.706929936342,1325.706929936342,1.0002143117101685,0.0002764174886102718
1325.713874304205,1325.713874304205,1.0002359989763314,0.0002764288321736943
1325.7208186721618,1325.7208186721618,1.0001713931663478,0.0002764229684708172
1325.727763040165,1325.727763040165,0.9997077782813182,0.0002763853231314723
1325.734707408261,1325.734707408261,0.9998691644608451,0.00027639545076777497
1325.741651776451,1325.741651776451,0.9999849380083645,0.00027644409186422845
1325.7485961447328,1325.7485961447328,0.9998157473027517,0.00027640226271079325
1325.7555405130622,1325.7555405130622,0.9998855009018845,0.0002764628442289078
1325.7624848815078,1325.7624848815078,0.999924208026053,0.0002765161359378122
1325.7694292500462,1325.7694292500462,1.0001514924841353,0.0002765403037464741
1325.7763736186316,1325.7763736186316,0.9999276329922957,0.00027652918469075815
1325.7833179872864,1325.7833179872864,1.000532310918667,0.000276622595329626
1325.7902623560349,1325.7902623560349,1.0000507108327046,0.0002765748052111909
1325.7972067248763,1325.7972067248763,1.0000979843576936,0.0002765882032018018
1325.8041510937642,1325.8041510937642,0.9996409333457776,0.0002765363870821899
1325.8110954627455,1325.8110954627455,0.9999758506367117,0.00027664203490954136
1325.8180398317959,1325.8180398317959,0.9999126278324052,0.0002766308912445795
1325.8249842009402,1325.8249842009402,1.0002940217626322,0.0002767069503735721
1325.8319285701307,1325.8319285701307,0.9999406183920663,0.0002766971971292745
1325.8388729394144,1325.8388729394144,0.9998242848398704,0.00027669373082900794
1325.8458173087681,1325.8458173087681,1.0004139848034623,0.0002767288937049136
1325.8527616781678,1325.8527616781678,0.9996578854564848,0.00027662967775520214
1325.8597060476616,1325.8597060476616,0.9995592218935879,0.00027660071959486075
1325.8666504172477,1325.8666504172477,0.9997991283948899,0.0002766593733782183
1325.8735947868577,1325.8735947868577,0.9997183307993673,0.0002766002131640179
1325.880539156607,1325.880539156607,1.000337437832042,0.0002766691568806375
1325.8874835263564,1325.8874835263564,1.0007542133592608,0.00027669588264673617
1325.8944278961753,1325.8944278961753,1.000333294475829,0.00027664203113735264
1325.901372266088,1325.901372266088,1.000017622760319,0.0002765887346785604
1325.9083166360465,1325.9083166360465,0.9996696605031359,0.0002765219595987525
1325.9152610060755,1325.9152610060755,1.0000423551258975,0.00027653251442408516
1325.9222053761507,1325.9222053761507,0.9997628319042491,0.0002765100635709917
1325.9291497463196,1325.9291497463196,0.9999354801252102,0.000276576351094065
1325.9360941165808,1325.9360941165808,0.9996538533172039,0.00027652468564110487
1325.943038486796,1325.943038486796,1.000133792356732,0.00027656776571625383
1325.9499828571975,1325.9499828571975,0.9999660606971309,0.0002765806262638109
1325.956927227599,1325.956927227599,1.0002984209421621,0.0002766064045379544
1325.9647049225332,1325.9647049225332,1.0002410248595945,0.00027660654899996635
1325.9722048427236,1325.9722048427236,0.9998412362671155,0.0002765392237477313
1325.9791492133113,1325.9791492133113,0.9999747939884867,0.00027657260801674865
1325.9860935839918,1325.9860935839918,0.9998864391605136,0.0002765766720147252
1325.993037954719,1325.993037954719,1.0004103249588794,0.0002766653715586944
1325.9999823254932,1325.9999823254932,0.9996114040832598,0.00027657504107923554
1326.0069266963133,1326.0069266963133,0.999803782427264,0.0002765783748751858
1326.0138710672038,1326.0138710672038,1.0000736693301637,0.00027665919641316943
1326.020815438164,1326.020815438164,0.9997234661864407,0.0002766114099647155
1326.0277598091707,1326.0277598091707,1.0004104805056035,0.000276714072459154
1326.0347041802238,1326.0347041802238,1.000049179415487,0.00027671202096973076
1326.0416485513465,1326.0416485513465,0.9996962031442118,0.0002766425447203361
1326.0485929224933,1326.0485929224933,1.0001859692174218,0.00027668004402693034
1326.0555372937326,1326.0555372937326,1.0000505829816657,0.0002766723155982406
1326.0624816649954,1326.0624816649954,0.9997359650201461,0.0002766620907642962
1326.0694260363282,1326.0694260363282,1.0004069273311402,0.0002767571873148975
1326.0763704077067,1326.0763704077067,1.0000966233180504,0.00027669305156781664
1326.0833147791334,1326.0833147791334,1.0000366641910998,0.0002767072638226025
1326.0902591506285,1326.0902591506285,0.9997090654071883,0.00027667157245998884
1326.0972035221243,1326.0972035221243,0.9999326508884903,0.00027668473747290433
1326.1041478937132,1326.1041478937132,1.0000238391135314,0.0002767133315540174
1326.111092265325,1326.111092265325,0.9998209479689717,0.00027667161986727766
1326.118036637007,1326.118036637007,1.0000053032209792,0.00027671746914175756
1326.1249810087118,1326.1249810087118,1.0002886533040984,0.0002767245372305598
1326.1319253805107,1326.1319253805107,1.0000245560570025,0.0002767004517497314
1326.1388697523084,1326.1388697523084,1.0002733943589759,0.00027675131915470423
1326.1458141241535,1326.1458141241535,1.0002099770270634,0.00027672012321555434
1326.1527584960916,1326.1527584960916,0.9995862993164757,0.0002766625528944059
1326.1597028680294,1326.1597028680294,1.0000714917431766,0.00027672756152347685
1326.1666472399909,1326.1666472399909,0.9994291783230693,0.0002766415226465028
1326.1735916120683,1326.1735916120683,0.999941150151544,0.00027670054089210737
1326.1805359841462,1326.1805359841462,1.0003310258554525,0.0002767412799953754
1326.187480356247,1326.187480356247,1.0003049434170306,0.0002767073682364552
1326.1944247284407,1326.1944247284407,0.9998383279849608,0.0002766667083126712
1326.201369100659,1326.201369100659,0.9996767111611966,0.00027666057702722236
1326.2083134728991,1326.2083134728991,0.9999764987463466,0.00027669222753771885
1326.21525784521,1326.21525784521,1.0004019585085797,0.0002767388407689329
1326.2222022175204,1326.2222022175204,0.9997258403368606,0.00027664262002213646
1326.2291465899007,1326.2291465899007,1.0004587463585557,0.00027671334914770125
1326.2360909623276,1326.2360909623276,0.9999860501457045,0.0002766789117077059
1326.2430353347775,1326.2430353347775,0.999918819211891,0.0002766774906503106
1326.2499797072749,1326.2499797072749,1.0001005290165224,0.00027666623734865
1326.2569240798177,1326.2569240798177,0.9999075841654163,0.00027665404110710533
1326.263868452385,1326.263868452385,0.9995422045330009,0.0002766191959974665
1326.2708128249978,1326.2708128249978,1.0002251051149202,0.0002766624101551567
1326.2777571976574,1326.2777571976574,0.9996476861380236,0.00027659660082870563
1326.2847015703176,1326.2847015703176,0.9997734195840025,0.00027663977636593114
1326.291645943047,1326.291645943047,1.0002451926842006,0.00027666484486414125
1326.2985903157999,1326.2985903157999,0.9999834995172492,0.0002766287985514644
1326.305534688599,1326.305534688599,1.0007742812248122,0.0002767142368596099
1326.312479061422,1326.312479061422,1.0000371910255674,0.00027663131341690436
1326.3194234342914,1326.3194234342914,0.9997009955152988,0.0002765992200212193
1326.3263678071837,1326.3263678071837,1.0001815438483053,0.00027668769985595993
1326.3333121801236,1326.3333121801236,0.9995551450166793,0.000276573616434305
1326.3402565530857,1326.3402565530857,0.9997348881578064,0.0002765871945936282
1326.3477564759075,1326.3477564759075,1.0001192958052765,0.00027663240879643753
1326.3569230483538,1326.3569230483538,0.9999276466342417,0.00027663849975833357
1326.3638674214094,1326.3638674214094,1.000263808972844,0.00027671063495640776
1326.3708117945116,1326.3708117945116,1.0000495434635854,0.00027665697661946457
1326.3777561676834,1326.3777561676834,0.9998569233058907,0.0002766539199294104
1326.384700540809,1326.384700540809,1.0001051079047842,0.0002766617264532168
1326.3916449140509,1326.3916449140509,1.000429727478334,0.00027672079077558
1326.3985892872927,1326.3985892872927,0.9999936177189219,0.00027667741953892955
1326.4055336605343,1326.4055336605343,0.9998549118259987,0.000276670652098012
1326.4124780338232,1326.4124780338232,1.0001385635350544,0.00027672172963289616
1326.419422407158,1326.419422407158,0.9995382085843127,0.00027667666473997146
1326.426366780516,1326.426366780516,0.9997726492832827,0.00027667690943960425
1326.4333111538976,1326.4333111538976,1.0004948515468173,0.0002767861032434092
1326.440255527279,1326.440255527279,0.999916332098028,0.0002767121650578046
1326.4471999007305,1326.4471999007305,0.9997144552115271,0.0002767243205603663
1326.4541442742052,1326.4541442742052,1.0000848810602754,0.0002767534045477187
1326.4610886477033,1326.4610886477033,0.9997753529759681,0.00027673714372809094
1326.4680330212009,1326.4680330212009,1.00000124415543,0.0002767364653903035
1326.474977394769,1326.474977394769,1.0000430140279233,0.00027678569970107506
1326.481921768337,1326.481921768337,1.0006555440035159,0.000276837302085671
1326.4888661419277,1326.4888661419277,0.9997334762674328,0.0002767520744943103
1326.4958105155424,1326.4958105155424,0.9998578666093374,0.00027676385973662756
1326.5027548892263,1326.5027548892263,1.0004890487713134,0.00027683488476477875
1326.5096992628874,1326.5096992628874,0.9998254299034948,0.0002767659734125621
1326.5166436365948,1326.5166436365948,0.9994992524783555,0.0002767534687359857
1326.5235880103025,1326.5235880103025,1.0001137110052543,0.00027679779767599775
1326.5305323840566,1326.5305323840566,0.9999158349333215,0.0002768290080702392
1326.5374767578337,1326.5374767578337,0.9998049167832544,0.0002768341574022335
1326.5444211316578,1326.5444211316578,1.0000384509420552,0.0002768509775223416
1326.5513655054817,1326.5513655054817,1.0005629334494575,0.0002769739048983038
1326.5583098793056,1326.5583098793056,1.000083337682416,0.0002769236517360368
1326.5652542531293,1326.5652542531293,1.0003189595249125,0.00027694286606825945
1326.5721986270698,1326.5721986270698,0.9997903614509275,0.00027687797899068564
1326.579143000964,1326.579143000964,0.9993524055632964,0.00027684453917771045
1326.5860873749039,1326.5860873749039,1.0000557896749087,0.0002769128607143804
1326.5930317488446,1326.5930317488446,0.9999689608421305,0.00027691213069060274
1326.5999761228081,1326.5999761228081,0.9998279778486916,0.00027689694504273195
1326.6069204968185,1326.6069204968185,0.9998572185040219,0.00027690755494486346
1326.6138648708286,1326.6138648708286,1.0003411960264628,0.00027699650371776515
1326.620809244885,1326.620809244885,1.000133710070957,0.00027695736048743123
1326.6277536189186,1326.6277536189186,0.9999106160243704,0.0002769092957632458
1326.6346979930217,1326.6346979930217,1.0005771278446942,0.0002769769627660312
1326.6416423670787,1326.6416423670787,1.0002234381631048,0.00027692008239999416
1326.6485867412052,1326.6485867412052,0.9994543814765349,0.000276860062229611
1326.6555311153784,1326.6555311153784,0.9999811448486184,0.00027690451302022343
1326.6624754895051,1326.6624754895051,0.9994523644045332,0.00027681171395621686
1326.6694198636783,1326.6694198636783,1.0003096209871754,0.0002769200945447252
1326.676364237875,1326.676364237875,0.9998574712488993,0.0002768630389028226
1326.6833086120946,1326.6833086120946,1.000091839336656,0.0002768620211325964
1326.6913640861726,1326.6913640861726,1.0001872762966149,0.0002768440040211204
1326.6985862353918,1326.6985862353918,1.0005923903152767,0.000276905713049924
1326.7055306096581,1326.7055306096581,0.9994128422473633,0.0002767323498517528
1326.7130305339003,1326.7130305339003,1.0000201067094827,0.00027676049355505417
1326.7208082330953,1326.7208082330953,0.9998666700834832,0.00027675022911056275
1326.7277526074315,1326.7277526074315,0.9997536878426796,0.00027672023137488837
1326.7346969817677,1326.7346969817677,1.0004287919927504,0.00027679963610960606
1326.741641356081,1326.741641356081,1.0000804069882714,0.0002767204135218212
1326.748585730463,1326.748585730463,0.9998678247023328,0.00027672991909926883
1326.7555301048692,1326.7555301048692,1.0003484075669464,0.00027680129454740396
1326.7624744792752,1326.7624744792752,0.9995547167005829,0.0002766677208946749
1326.7694188536811,1326.7694188536811,1.00007432622719,0.0002767182660459582
1326.7763632280871,1326.7763632280871,1.0004067340773055,0.000276725011844856
1326.783307602493,1326.783307602493,0.9996538448613947,0.00027666738707209836
1326.7902519770155,1326.7902519770155,0.9997663590764034,0.00027667264132330224
1326.7971963514215,1326.7971963514215,1.000069363337484,0.0002767248212440012
1326.8041407259443,1326.8041407259443,0.9998382717828503,0.00027667758610179657
1326.8110851004199,1326.8110851004199,0.9997551944320155,0.0002766641359280543
1326.818029474942,1326.818029474942,1.000475161341707,0.00027676914234438954
1326.8249738494646,1326.8249738494646,1.0002394612958818,0.0002767049707122244
1326.831918223987,1326.831918223987,1.0000661201191965,0.00027670487812910953
1326.838862598533,1326.838862598533,1.0001423880780203,0.0002766951978692017
1326.8458069731018,1326.8458069731018,0.9999204614360382,0.0002766625350556807
1326.8527513476706,1326.8527513476706,0.9996050353074237,0.00027661392808734535
1326.859695722263,1326.859695722263,1.0000731460154184,0.00027666918230330017
1326.8666400968323,1326.8666400968323,1.000099629570097,0.00027666471572555703
1326.8735844714713,1326.8735844714713,0.9995643924942808,0.0002765969644526229
1326.8805288460862,1326.8805288460862,1.0003796743166058,0.000276683386616389
1326.8874732207255,1326.8874732207255,1.0003813412001714,0.0002766575749693508
1326.894417595364,1326.894417595364,0.999848788652171,0.000276564188605785
1326.901361970003,1326.901361970003,0.9999572262723916,0.00027653954931271724
1326.9083063446883,1326.9083063446883,0.9999259198080314,0.0002764941150164072
1326.9152507193508,1326.9152507193508,0.999864530677175,0.00027647661756825397
1326.9221950940125,1326.9221950940125,0.9995790506461816,0.0002763977705063386
1326.9291394687214,1326.9291394687214,0.9998880253269192,0.00027643317611330024
1326.936083843407,1326.936083843407,1.0000422578822925,0.00027640539849866014
1326.9430282181615,1326.9430282181615,1.0005556138757417,0.0002764033482488752
1326.9499725928706,1326.9499725928706,1.000055834790446,0.0002763373569832407
1326.9569169676258,1326.9569169676258,1.0002221793190884,0.00027629843935629534
1326.963861342358,1326.963861342358,0.9996513669259611,0.00027621598503344865
1326.9708057170901,1326.9708057170901,0.9996523899507087,0.0002761984403463189
1326.977750091868,1326.977750091868,1.000095471463562,0.00027621369699075285
1326.9846944666238,1326.9846944666238,1.0004624588383835,0.00027623908731937835
1326.9916388414022,1326.9916388414022,1.000166305140816,0.0002762010260327052
1326.998583216181,1326.998583216181,1.0000053020456243,0.00027615274335535735
1327.0055275909824,1327.0055275909824,0.9999290239010115,0.00027614543832047165
1327.0124719657845,1327.0124719657845,0.9996758372995365,0.00027612924105054114
1327.0194163406095,1327.0194163406095,1.0000305557527045,0.00027617081367410374
1327.0263607154113,1327.0263607154113,0.9999993598157049,0.0002761280083344944
1327.0333050902366,1327.0333050902366,0.9995379134275734,0.00027608167761977677
1327.0402494650843,1327.0402494650843,0.9999790312063679,0.00027617029214486587
1327.0471938398866,1327.0471938398866,1.0001140879580732,0.0002761551060245941
1327.054138214758,1327.054138214758,1.0001872385905008,0.00027615657371917476
1327.0619159146056,1327.0619159146056,0.9999981632496967,0.00027612001614904866
