time,time,flux,flux_err
1325.3003355207293,1325.3003355207293,1.0000005282592788,0.0007745333391313038
1325.3086690232194,1325.3086690232194,1.0008040903769222,0.000775494075434218
1325.3163080673032,1325.3163080673032,0.9996197361237729,0.0007079850161470156
1325.3232526528866,1325.3232526528866,0.9998830085969436,0.0007087696186210239
1325.3301972385395,1325.3301972385395,0.9993020833471089,0.0007091340042504395
1325.3371418243328,1325.3371418243328,0.999880852760733,0.0007095501727118336
1325.3440864101724,1325.3440864101724,1.000319312779215,0.0007103147938626829
1325.3510309960816,1325.3510309960816,0.9990553826268005,0.0007103109854228208
1325.3579755820606,1325.3579755820606,1.0004800370296152,0.0007110219915840014
1325.3649201681333,1325.3649201681333,0.9995543563273444,0.0007110563608165988
1325.3718647542523,1325.3718647542523,1.0007023353033333,0.0007115843585850606
1325.3788093404175,1325.3788093404175,1.0010738528864465,0.0007117995538341995
1325.3857539266996,1325.3857539266996,0.9995256986972612,0.0007115770698402164
1325.3926985130743,1325.3926985130743,1.0006206118215917,0.0007119804298570229
1325.3996430994725,1325.3996430994725,0.9990263037658471,0.0007119735697210871
1325.406587685964,1325.406587685964,1.000159643122076,0.0007120339287613262
1325.4135322725017,1325.4135322725017,0.9995079696866707,0.0007119663951185152
1325.42047685911,1325.42047685911,0.9997089649489499,0.0007121505314450519
1325.4274214458108,1325.4274214458108,0.9994047568190132,0.0007123191098836239
1325.4343660325346,1325.4343660325346,1.0011397411358203,0.0007128214089936404
1325.4413106193992,1325.4413106193992,1.0006856161546405,0.0007128338406314365
1325.448255206263,1325.448255206263,1.0003358982934951,0.000712711413202597
1325.45519979315,1325.45519979315,0.9995063037917346,0.0007125781447862304
1325.4621443801539,1325.4621443801539,0.999013665813064,0.0007124516524937172
1325.4690889672038,1325.4690889672038,0.9999736559922914,0.0007129877948696767
1325.476033554301,1325.476033554301,0.999203269234837,0.0007127060454399554
1325.4829781414905,1325.4829781414905,1.0007937743325603,0.0007132958103236444
1325.4899227286805,1325.4899227286805,1.001078346683145,0.0007134922299364152
1325.496867315987,1325.496867315987,0.9996618836639634,0.0007136617133984126
1325.5038119033165,1325.5038119033165,1.000234703371112,0.0007137967074016791
1325.5107564907162,1325.5107564907162,1.0007166294821914,0.0007141265341586908
1325.517701078162,1325.517701078162,0.9995378693837363,0.0007140412864848405
1325.5246456656314,1325.5246456656314,0.9987554243138623,0.0007140937406160757
1325.5315902531936,1325.5315902531936,0.9996582301464582,0.0007146868006108082
1325.5385348407794,1325.5385348407794,1.0014257912892872,0.0007153243460238086
1325.5454794284349,1325.5454794284349,0.9993607745629383,0.0007149344850659507
1325.552424016114,1325.552424016114,0.9997969020286869,0.0007153381587221157
1325.559368603886,1325.559368603886,0.9984323733914376,0.0007151913840929729
1325.5663131916813,1325.5663131916813,1.0008971957642714,0.0007159012536641314
1325.573257779523,1325.573257779523,0.9998933214123078,0.000716115739504051
1325.5802023674119,1325.5802023674119,1.0007145289164125,0.0007163054716850225
1325.5871469553233,1325.5871469553233,0.999737459967118,0.0007161420457933493
1325.594091543328,1325.594091543328,0.9999351193400061,0.0007165797189597427
1325.6010361313558,1325.6010361313558,0.999752960811664,0.0007167267627787012
1325.6079807193842,1325.6079807193842,0.9991111524939503,0.0007164604880021901
1325.6149253075287,1325.6149253075287,1.0001183319514027,0.0007166651957803778
1325.62186989565,1325.62186989565,0.9995228761927011,0.000716667112503033
1325.6288144838643,1325.6288144838643,1.0010167654473983,0.0007170539818457607
1325.6357590720786,1325.6357590720786,1.0004907334027078,0.0007169112549583705
1325.642703660363,1325.642703660363,1.000605034090545,0.0007170861061595662
1325.6496482486468,1325.6496482486468,0.9986720651598173,0.0007165027939124144
1325.6565928370012,1325.6565928370012,1.000396266722396,0.0007169402100268881
1325.6635374254015,1325.6635374254015,0.999945364405276,0.0007169468745955407
1325.6704820138025,1325.6704820138025,1.0003572983962268,0.0007170543167479616
1325.6774266022726,1325.6774266022726,0.9993922614196835,0.0007169218894242863
1325.6843711907436,1325.6843711907436,1.0001572850434484,0.0007171705260149431
1325.691315779284,1325.691315779284,0.9996699900191406,0.0007171561319645481
1325.698260367824,1325.698260367824,1.0004193168774527,0.0007174247047806482
1325.7052049564345,1325.7052049564345,0.9996248236432868,0.0007174245538833737
1325.7121495450442,1325.7121495450442,0.9999107027716713,0.0007177494890659651
1325.7190941337244,1325.7190941337244,1.0003093271985057,0.0007180813351881463
1325.7260387224044,1325.7260387224044,1.0008418904682148,0.0007180910478317454
1325.732983311131,1325.732983311131,1.0001175873827672,0.0007182029220259961
1325.7399278998812,1325.7399278998812,1.0000933365812532,0.0007182633509511779
1325.7468724886542,1325.7468724886542,0.9991744910862366,0.0007183474234222977
1325.7538170774737,1325.7538170774737,0.9995208263293771,0.0007187453677318049
1325.7607616662938,1325.7607616662938,0.9995966873526235,0.0007189834168715763
1325.7677062551832,1325.7677062551832,0.9995561969060385,0.0007192280425771683
1325.7746508440728,1325.7746508440728,1.0009471900550584,0.0007198235924330806
1325.7815954329856,1325.7815954329856,1.0009186962790988,0.0007199960647564136
1325.7885400219222,1325.7885400219222,0.9995758873611787,0.0007199770904123533
1325.795484610881,1325.795484610881,1.0006807823714015,0.0007205710160455784
1325.802429199887,1325.802429199887,0.9988418274345163,0.0007202740796304871
1325.8093737889167,1325.8093737889167,0.9997793955792981,0.0007205069149582984
1325.8163183779689,1325.8163183779689,0.999347448244758,0.0007206743987068604
1325.823262967022,1325.823262967022,1.0005246721723478,0.0007211347503053525
1325.8302075561207,1325.8302075561207,1.0010676164038967,0.0007213537654813649
1325.8371521452661,1325.8371521452661,0.999754818373145,0.0007214199156392514
1325.8440967343427,1325.8440967343427,1.0006374967871134,0.0007216949868802316
1325.8510413235342,1325.8510413235342,1.000620436498043,0.0007218192519445918
1325.8579859127267,1325.8579859127267,0.9990617507325105,0.0007216875350032238
1325.8649305019192,1325.8649305019192,1.0001408169969692,0.000721929783994856
1325.8718750911114,1325.8718750911114,0.9998406278268236,0.0007215680960024111
1325.8788196803737,1325.8788196803737,0.9983899086459646,0.0007212347654473129
1325.885764269612,1325.885764269612,0.9999289551080164,0.000721518408626494
1325.8927088588978,1325.8927088588978,0.9999331865868093,0.0007213091526523383
1325.8996534481832,1325.8996534481832,1.001087653463729,0.0007217658347932787
1325.9065980374917,1325.9065980374917,1.0002111484471612,0.0007214158894908282
1325.9135426268235,1325.9135426268235,1.000703818193771,0.0007215005257453583
1325.9204872161786,1325.9204872161786,0.9997734890851213,0.0007211952452811001
1325.9274318055343,1325.9274318055343,0.9997616734883972,0.0007213488805610983
1325.9343763949357,1325.9343763949357,1.0002171341663455,0.000721555322439112
1325.9413209843146,1325.9413209843146,0.9994478174609801,0.0007213603098201892
1325.9482655737163,1325.9482655737163,1.000471538889625,0.0007214858182713081
1325.9552101631414,1325.9552101631414,0.9998601094553514,0.000721345185555618
1325.9627103197254,1325.9627103197254,0.9998349534949931,0.0007217521610065524
1325.970488259923,1325.970488259923,0.9994954267554063,0.0007214969657780248
1325.9774328493718,1325.9774328493718,1.000547534795444,0.0007220925674612822
1325.984377438843,1325.984377438843,0.9988994028701501,0.0007218125387527476
1325.9913220283381,1325.9913220283381,1.000681586798209,0.00072232506802075
1325.9982666178798,1325.9982666178798,0.9999857745639067,0.0007224145940228367
1326.0052112073745,1326.0052112073745,1.0005227975803264,0.000722883667463629
1326.012155796893,1326.012155796893,1.000416621627511,0.0007228691928180736
1326.0191003864577,1326.0191003864577,1.0002322715804393,0.0007230265627048997
1326.0260449759992,1326.0260449759992,0.9998994602114297,0.000723307798097616
1326.0329895655643,1326.0329895655643,0.9984175331160291,0.0007234717257389766
1326.0399341551051,1326.0399341551051,0.9997900396198356,0.0007238422935297174
1326.0468787446937,1326.0468787446937,1.000997518899331,0.0007240693023804308
1326.0538233342816,1326.0538233342816,1.0000011447571002,0.0007239774498988278
1326.060767923893,1326.060767923893,0.9999003544758039,0.0007241682393054213
1326.0677125135044,1326.0677125135044,0.9997716768357361,0.0007243768026777658
1326.0746571031154,1326.0746571031154,1.0010817163887746,0.0007248337619343791
1326.081601692727,1326.081601692727,0.9997730101939899,0.0007245798830876677
1326.0885462823617,1326.0885462823617,0.9992485216718923,0.000724502832403178
1326.0954908719964,1326.0954908719964,1.0001330781681559,0.000725009628007602
1326.102435461631,1326.102435461631,1.0004430535431248,0.0007252721032828844
1326.109380051289,1326.109380051289,1.0005279751507947,0.0007252149621156176
1326.116324640947,1326.116324640947,1.0006894105326452,0.0007253787900314572
1326.1232692306044,1326.1232692306044,0.9995469406197118,0.0007254448571393244
1326.1302138202627,1326.1302138202627,1.0000046323601888,0.0007256225731993108
1326.1371584099438,1326.1371584099438,1.000548081332156,0.0007258437235630088
1326.1441029996251,1326.1441029996251,0.9996158513908673,0.0007256213930466457
1326.1510475893297,1326.1510475893297,1.0006443097215896,0.000725950280427913
1326.1579921789871,1326.1579921789871,0.998528676185496,0.00072559367481377
1326.1649367686691,1326.1649367686691,1.0000314576864022,0.0007262301661110016
1326.1718813583961,1326.1718813583961,1.000308452619182,0.000726352046637801
1326.1788259480777,1326.1788259480777,0.9996465720379281,0.0007263606085826769
1326.1857705377822,1326.1857705377822,1.001043651633305,0.0007267509243613954
1326.1927151275097,1326.1927151275097,1.0006836784743356,0.0007265864137364814
1326.1996597171678,1326.1996597171678,1.0001992165876303,0.0007267713056520852
1326.2066043069187,1326.2066043069187,0.9997276103037956,0.000726792191059986
1326.2135488966005,1326.2135488966005,0.9996024465078971,0.0007269797519580733
1326.2204934863512,1326.2204934863512,0.999141299352089,0.0007268258846789041
1326.2274380760323,1326.2274380760323,0.9991979669812838,0.0007266208461120734
1326.2343826658066,1326.2343826658066,1.000782167626435,0.0007272644802021658
1326.2413272554645,1326.2413272554645,0.9998682071252493,0.0007271096504439386
1326.248271845239,1326.248271845239,0.9996162508191068,0.0007269290220486841
1326.2552164348967,1326.2552164348967,1.0009098965238346,0.0007271991455032491
1326.2621610246715,1326.2621610246715,0.999610816761621,0.0007267684971877409
1326.2691056143526,1326.2691056143526,1.0002046741522335,0.0007271640380029508
1326.2760502041033,1326.2760502041033,1.0000648193515684,0.0007271075973239191
1326.2829947938083,1326.2829947938083,1.0015112061944849,0.0007273958596006865
1326.2899393835357,1326.2899393835357,0.9994325928753544,0.0007270509711456636
1326.2968839732637,1326.2968839732637,0.999658734542377,0.0007271109823699764
1326.303828562968,1326.303828562968,1.0002829717642316,0.0007272415327266596
1326.3107731527193,1326.3107731527193,1.000408530663317,0.0007276551784933014
1326.3177177424004,1326.3177177424004,0.9985633635817102,0.0007272539892573963
1326.324662332151,1326.324662332151,1.0008118378501205,0.0007280954926122304
1326.3316069218329,1326.3316069218329,0.9994157592925568,0.00072784330693853
1326.3385515115601,1326.3385515115601,0.9998807335368749,0.0007279224980259393
1326.345496101265,1326.345496101265,1.001299976257427,0.0007285554131978283
1326.355218526833,1326.355218526833,0.9999212748736352,0.0007285309117165067
1326.3621631165602,1326.3621631165602,1.0004165990826723,0.0007287448480525418
1326.369107706265,1326.369107706265,0.9998937290312637,0.0007285883261288347
1326.376052295946,1326.376052295946,0.99955081726807,0.0007286558869845121
1326.3829968856508,1326.3829968856508,1.000875236328695,0.0007293658722336358
1326.389941475355,1326.389941475355,0.9988439443167989,0.0007289871950748212
1326.396886065013,1326.396886065013,0.999117202003102,0.0007294427852632088
1326.403830654694,1326.403830654694,1.0001036604601725,0.0007298956454152392
1326.4107752443756,1326.4107752443756,1.0004831361501902,0.0007300068758042664
1326.4177198340567,1326.4177198340567,1.0014412660234846,0.000730652144839559
1326.4246644237378,1326.4246644237378,1.0003635359773242,0.0007304166625159965
1326.431609013396,1326.431609013396,0.9993877732950818,0.0007305508295783636
1326.4385536030536,1326.4385536030536,1.0000686828009275,0.0007306489806374161
1326.4454981927115,1326.4454981927115,0.999338505197982,0.0007309154406735807
1326.4524427823696,1326.4524427823696,0.9989597004168485,0.0007308319165537427
1326.4593873720044,1326.4593873720044,0.9999081948897197,0.0007312517919838819
1326.4663319616388,1326.4663319616388,1.0007702279339934,0.0007317275200817019
1326.4732765512967,1326.4732765512967,0.9998430546224804,0.0007315527619396852
1326.4802211409083,1326.4802211409083,0.9997462647987767,0.0007317120497256946
1326.4871657305196,1326.4871657305196,1.000310573881022,0.0007320718376663513
1326.494110320154,1326.494110320154,0.9993387441904715,0.0007319015660537942
1326.5010549097424,1326.5010549097424,1.0018545422356868,0.0007329120861769029
1326.5079994993534,1326.5079994993534,1.000102915489751,0.0007323941724973776
1326.514944088965,1326.514944088965,0.9992313249226635,0.0007324345420478392
1326.5218886785528,1326.5218886785528,1.0009609485523683,0.0007331902123122212
1326.528833268118,1326.528833268118,0.9998308323747265,0.0007332959114910825
1326.5357778577059,1326.5357778577059,0.9990857025385237,0.0007334799991775196
1326.5427224472708,1326.5427224472708,0.9998618549654141,0.0007338081805736017
1326.5496670368357,1326.5496670368357,0.9990741742476485,0.0007339042245298473
1326.556611626377,1326.556611626377,0.9993455517155244,0.0007343390185382324
1326.5635562159187,1326.5635562159187,1.000431640885393,0.0007345031061803752
1326.57050080546,1326.57050080546,1.0017410035725631,0.0007347418040152718
1326.5774453949784,1326.5774453949784,1.0002532793641143,0.0007345546090211272
1326.5843899845197,1326.5843899845197,0.9994621695292313,0.0007346091167399146
1326.591334574015,1326.591334574015,0.9999088156379878,0.0007347459114313165
1326.5982791635563,1326.5982791635563,0.999002315787128,0.0007345151205015289
1326.605223753028,1326.605223753028,1.0000409370718297,0.0007352423295888625
1326.612168342523,1326.612168342523,0.9995818214212463,0.0007350027328051206
1326.6191129319946,1326.6191129319946,1.0015981712484632,0.0007358508626386417
1326.626057521466,1326.626057521466,1.0018990933426692,0.0007359663764269694
1326.6330021109147,1326.6330021109147,0.9997151551190171,0.0007357107913995357
1326.639946700363,1326.639946700363,1.0006679929813411,0.0007358917216336634
1326.6468912898115,1326.6468912898115,0.9989908359774449,0.0007358190056703952
1326.6538358792363,1326.6538358792363,0.998749394059994,0.0007356891096903137
1326.6607804686616,1326.6607804686616,1.0002478689597223,0.0007363375353421213
1326.6677250580633,1326.6677250580633,1.000372142946103,0.0007362175733557643
1326.6746696474888,1326.6746696474888,0.9994972866191099,0.0007359460732234381
1326.6816142368668,1326.6816142368668,0.9990447192190043,0.0007354856273851425
1326.6893921769952,1326.6893921769952,0.9997672620880337,0.0007358636218166486
1326.6968923335091,1326.6968923335091,0.9994964620273246,0.0007355749325587793
1326.7038369228642,1326.7038369228642,0.9996297939219548,0.0007353616027455247
1326.7110592957874,1326.7110592957874,1.0012540330526032,0.0007355681050146665
1326.7191150194135,1326.7191150194135,0.9991843706174833,0.0007348323649715849
1326.7260596087458,1326.7260596087458,1.000560975810695,0.0007350332638539416
1326.7330041980542,1326.7330041980542,1.0006536218855255,0.0007351849826217185
1326.739948787363,1326.739948787363,1.001169735839778,0.0007350382884565106
1326.7468933766481,1326.7468933766481,0.9997818567345327,0.000734789783462346
1326.75383796591,1326.75383796591,0.9999187026552974,0.0007348308936194113
1326.760782555219,1326.760782555219,0.999742450999841,0.0007347124296852589
1326.7677271444575,1326.7677271444575,0.9997567850972091,0.0007346995698073128
1326.77467173372,1326.77467173372,0.9994685671698219,0.0007347153511033296
1326.7816163229122,1326.7816163229122,0.9995406740229604,0.0007348257478520757
1326.788560912174,1326.788560912174,0.9986509809104065,0.0007347568025501831
1326.7955055014133,1326.7955055014133,1.0009437141075561,0.0007353500283091903
1326.8024500906056,1326.8024500906056,1.0015409005836078,0.0007355072798221128
1326.8093946797976,1326.8093946797976,1.0004823053362966,0.0007354578175057446
1326.8163392689662,1326.8163392689662,1.0008411007103886,0.0007354824272984863
1326.8232838580657,1326.8232838580657,1.000371990496868,0.0007355532753089894
1326.830228447258,1326.830228447258,0.9993999501985746,0.000735468581139055
1326.8371730363806,1326.8371730363806,0.9997105528043975,0.0007356265863463832
1326.8441176255262,1326.8441176255262,0.9990803937213754,0.0007353587564617131
1326.8510622146252,1326.8510622146252,1.0004227029330264,0.0007357043741013808
1326.8580068037243,1326.8580068037243,0.9995902803886632,0.0007354345417418028
1326.8649513928237,1326.8649513928237,1.0003482392683398,0.0007355844669478574
1326.8718959818996,1326.8718959818996,0.999601027289088,0.0007353403130927958
1326.8788405709522,1326.8788405709522,1.000269455678898,0.0007352638194423948
1326.8857851600046,1326.8857851600046,1.0005392478783819,0.0007349637152053387
1326.892729749034,1326.892729749034,1.0000040334676052,0.000734736479049221
1326.8996743380633,1326.8996743380633,1.000284049124853,0.000734486076171446
1326.9066189270459,1326.9066189270459,0.9994400099493367,0.0007339985368046279
1326.913563516052,1326.913563516052,0.9997053548080033,0.0007334285603312795
1326.9205081050582,1326.9205081050582,0.9999282613481852,0.0007335176819391152
1326.9274526940173,1326.9274526940173,0.9990561312890129,0.0007328153551735456
1326.934397282977,1326.934397282977,1.0011185593711063,0.0007329318034202725
1326.9413418719128,1326.9413418719128,1.0009854360702524,0.0007326859774984143
1326.9482864608258,1326.9482864608258,0.9997117831371481,0.0007320831618245421
1326.955231049762,1326.955231049762,0.9993574436613611,0.0007316853520676178
1326.9621756386518,1326.9621756386518,0.9994803803736373,0.0007311741410594812
1326.9691202275183,1326.9691202275183,1.0000116372759722,0.00073121829119887
1326.9760648164072,1326.9760648164072,1.0003724409198813,0.0007310289216507545
1326.983009405274,1326.983009405274,0.9996278235330953,0.0007307355011078343
1326.9899539940936,1326.9899539940936,1.0011445935201098,0.0007308618262181604
1326.996898582937,1326.996898582937,0.9998903412326658,0.0007306530571352939
1327.0038431717562,1327.0038431717562,0.9998745742448267,0.0007305626728864242
1327.0107877605528,1327.0107877605528,1.000346367796134,0.0007304433884842215
1327.017732349326,1327.017732349326,0.9999995690870286,0.0007303784840737086
1327.0246769380992,1327.0246769380992,0.999120995774369,0.0007302134805399322
1327.0316215268724,1327.0316215268724,1.0003497187278725,0.000730811132242943
1327.0385661155988,1327.0385661155988,1.0000073010266846,0.0007307872708458211
1327.0455107043258,1327.0455107043258,0.999446299857212,0.0007305971995463527
1327.052455293029,1327.052455293029,1.000520989376749,0.0007308312738108152
1327.0599554488213,1327.0599554488213,0.9998267558509895,0.0007311113687650135
1327.0677333881345,1327.0677333881345,0.9997364532148983,0.0007312971335707243
1327.0746779768144,1327.0746779768144,1.000578161624703,0.000731521731308558
