time,time,flux,flux_err
1354.108386422859,1354.108386422859,3557.0842,9.564289
1354.1097753160643,1354.1097753160643,3550.1697,9.559942
1354.1125531024732,1354.1125531024732,3549.2854,9.5420265
1354.1139419956785,1354.1139419956785,3543.9104,9.560789
1354.1153308888834,1354.1153308888834,3548.277,9.569785
1354.1167197822044,1354.1167197822044,3548.37,9.564916
1354.118108675409,1354.118108675409,3558.4617,9.563241
1354.1194975687308,1354.1194975687308,3568.3801,9.564659
1354.1208864619364,1354.1208864619364,3550.5,9.555743
1354.1222753552574,1354.1222753552574,3554.2368,9.562517
1354.1236642485787,1354.1236642485787,3557.5745,9.56115
1354.1250531418996,1354.1250531418996,3563.0215,9.56257
1354.1264420352209,1354.1264420352209,3557.7317,9.561088
1354.1278309285426,1354.1278309285426,3546.6758,9.564558
1354.129219821864,1354.129219821864,3561.0002,9.5731125
1354.1306087151847,1354.1306087151847,3560.7102,9.564049
1354.1319976085067,1354.1319976085067,3550.7842,9.553271
1354.1333865018278,1354.1333865018278,3561.5908,9.567814
1354.134775395266,1354.134775395266,3540.0056,9.54924
1354.1361642885872,1354.1361642885872,3548.815,9.558127
1354.137553182024,1354.137553182024,3557.6274,9.551202
1354.1389420753458,1354.1389420753458,3565.2607,9.578704
1354.140330968784,1354.140330968784,3554.9119,9.562476
1354.1417198622216,1354.1417198622216,3548.0964,9.558569
1354.1431087555427,1354.1431087555427,3546.5623,9.566632
1354.1444976489802,1354.1444976489802,3549.1616,9.553865
1354.1458865424183,1354.1458865424183,3548.8289,9.55801
1354.1472754358567,1354.1472754358567,3555.1768,9.561582
1354.1486643294102,1354.1486643294102,3550.5146,9.549962
1354.1500532228474,1354.1500532228474,3534.0754,9.555803
1354.1514421162856,1354.1514421162856,3533.5542,9.549374
1354.152831009724,1354.152831009724,3546.1555,9.560375
1354.1542199032779,1354.1542199032779,3580.8909,9.568508
1354.1556087967147,1354.1556087967147,3560.9705,9.57191
1354.1569976902692,1354.1569976902692,3548.5525,9.553494
1354.158386583824,1354.158386583824,3549.421,9.558788
1354.1597754772615,1354.1597754772615,3556.251,9.559569
1354.1611643708156,1354.1611643708156,3542.7627,9.555636
1354.1625532643693,1354.1625532643693,3561.125,9.5636835
1354.163942157924,1354.163942157924,3553.3665,9.5591955
1354.165331051479,1354.165331051479,3545.5894,9.549267
1354.1667199450321,1354.1667199450321,3537.5999,9.553875
1354.168108838586,1354.168108838586,3546.1438,9.557054
1354.1694977321408,1354.1694977321408,3565.8887,9.561603
1354.170886625811,1354.170886625811,3546.1716,9.566649
1354.1722755193655,1354.1722755193655,3570.1294,9.563706
1354.1736644129196,1354.1736644129196,3557.1548,9.556944
1354.1750533065901,1354.1750533065901,3549.6577,9.560649
1354.1764422002611,1354.1764422002611,3530.9553,9.552793
1354.1778310938148,1354.1778310938148,3549.9937,9.56058
1354.179219987486,1354.179219987486,3547.2104,9.5493145
1354.1806088811563,1354.1806088811563,3556.896,9.562317
1354.181997774826,1354.181997774826,3567.5566,9.562673
1354.1833866684972,1354.1833866684972,3549.4304,9.551702
1354.1847755621684,1354.1847755621684,3562.8938,9.560043
1354.1861644558385,1354.1861644558385,3550.802,9.557404
1354.187553349509,1354.187553349509,3550.696,9.556319
1354.1889422431793,1354.1889422431793,3553.9941,9.553186
1354.1903311368505,1354.1903311368505,3556.3025,9.56262
1354.191720030638,1354.191720030638,3552.7617,9.559827
1354.1931089243076,1354.1931089243076,3568.4336,9.554854
1354.1944978180943,1354.1944978180943,3539.5615,9.554527
1354.1958867117655,1354.1958867117655,3562.058,9.56608
1354.197275605553,1354.197275605553,3549.8352,9.55079
1354.1986644993394,1354.1986644993394,3550.1282,9.559753
1354.2000533931257,1354.2000533931257,3556.2434,9.563928
1354.201442286797,1354.201442286797,3535.054,9.558128
1354.2028311805843,1354.2028311805843,3547.0596,9.560223
1354.2042200743708,1354.2042200743708,3548.7156,9.553319
1354.2056089681578,1354.2056089681578,3540.3281,9.547018
1354.2069978620611,1354.2069978620611,3565.552,9.556971
1354.2083867558486,1354.2083867558486,3550.6636,9.563177
1354.209775649636,1354.209775649636,3551.0,9.556936
1354.211164543422,1354.211164543422,3552.114,9.561522
1354.2125534373254,1354.2125534373254,3549.9849,9.552592
1354.2139423311128,1354.2139423311128,3539.9084,9.548821
1354.215331225016,1354.215331225016,3530.8433,9.549077
1354.21672011892,1354.21672011892,3557.0752,9.560601
1354.2181090127065,1354.2181090127065,3558.065,9.560721
1354.2194979066098,1354.2194979066098,3554.1877,9.561584
1354.2208868005137,1354.2208868005137,3553.6616,9.557253
1354.222275694417,1354.222275694417,3558.1023,9.558938
1354.22366458832,1354.22366458832,3566.448,9.559141
1354.2250534822233,1354.2250534822233,3558.8582,9.554795
1354.2264423761264,1354.2264423761264,3550.7434,9.552835
1354.2278312700305,1354.2278312700305,3548.783,9.560097
1354.2292201639343,1354.2292201639343,3574.7712,9.567725
1354.2306090578375,1354.2306090578375,3543.3167,9.557433
1354.231997951857,1354.231997951857,3557.6472,9.561741
1354.2333868457604,1354.2333868457604,3560.3562,9.5553055
1354.2347757397806,1354.2347757397806,3557.714,9.562825
1354.2361646336844,1354.2361646336844,3541.1064,9.546503
1354.2375535277033,1354.2375535277033,3563.4707,9.560246
1354.238942421723,1354.238942421723,3553.4363,9.551537
1354.240331315627,1354.240331315627,3541.1816,9.553623
1354.2417202096472,1354.2417202096472,3547.3635,9.554056
1354.243109103667,1354.243109103667,3557.069,9.558934
1354.2444979976858,1354.2444979976858,3563.774,9.566178
1354.245886891706,1354.245886891706,3543.434,9.554371
1354.2472757857263,1354.2472757857263,3559.142,9.560431
1354.248664679746,1354.248664679746,3569.3958,9.558805
1354.2500535738818,1354.2500535738818,3549.3625,9.560512
1354.2514424679016,1354.2514424679016,3562.992,9.556805
1354.2528313619218,1354.2528313619218,3556.4207,9.553368
1354.2542202560585,1354.2542202560585,3558.2542,9.557153
1354.2556091500774,1354.2556091500774,3551.6548,9.551938
1354.2569980442136,1354.2569980442136,3552.6094,9.549985
1354.2583869382338,1354.2583869382338,3537.1064,9.547706
1354.25977583237,1354.25977583237,3547.437,9.548687
1354.2611647265066,1354.2611647265066,3556.5793,9.556784
1354.2625536205262,1354.2625536205262,3557.4133,9.550526
1354.2639425146622,1354.2639425146622,3571.9436,9.5601425
1354.2653314087988,1354.2653314087988,3555.9722,9.553995
1354.266720302935,1354.266720302935,3571.741,9.560082
1354.2681091970712,1354.2681091970712,3558.664,9.548212
1354.269498091207,1354.269498091207,3560.4094,9.55246
1354.2708869854596,1354.2708869854596,3552.5806,9.556192
1354.2722758795962,1354.2722758795962,3547.1218,9.547288
1354.273664773733,1354.273664773733,3563.5364,9.559747
1354.2750536679855,1354.2750536679855,3539.4211,9.54454
1354.2764425621212,1354.2764425621212,3546.0588,9.548346
1354.2778314562574,1354.2778314562574,3564.5747,9.555411
1354.2792203505105,1354.2792203505105,3557.078,9.562817
1354.2806092447631,1354.2806092447631,3561.9248,9.554219
1354.2819981388984,1354.2819981388984,3555.046,9.554016
1354.2833870331515,1354.2833870331515,3544.3616,9.541678
1354.2847759274046,1354.2847759274046,3546.8142,9.549818
1354.2861648216576,1354.2861648216576,3541.708,9.549204
1354.2875537159102,1354.2875537159102,3555.7693,9.555753
1354.288942610162,1354.288942610162,3559.2063,9.55361
1354.290331504415,1354.290331504415,3561.345,9.564263
1354.291720398668,1354.291720398668,3542.7478,9.549482
1354.29310929292,1354.29310929292,3551.9302,9.546889
1354.2944981871724,1354.2944981871724,3564.1382,9.561116
1354.2958870814255,1354.2958870814255,3559.466,9.558379
1354.297275975795,1354.297275975795,3560.8901,9.55748
1354.2986648700482,1354.2986648700482,3536.721,9.543309
1354.3000537644166,1354.3000537644166,3545.7556,9.551985
1354.3014426586687,1354.3014426586687,3552.8975,9.550296
1354.3028315530382,1354.3028315530382,3556.4812,9.552009
1354.3042204474073,1354.3042204474073,3555.1414,9.554048
1354.3056093416603,1354.3056093416603,3566.884,9.554766
1354.3069982360294,1354.3069982360294,3562.5996,9.5559635
1354.3083871303982,1354.3083871303982,3556.156,9.552953
1354.3097760247679,1354.3097760247679,3546.0366,9.550672
1354.3111649191364,1354.3111649191364,3557.97,9.560289
1354.3125538135055,1354.3125538135055,3545.2336,9.543245
1354.3139427078743,1354.3139427078743,3554.847,9.558327
1354.315331602243,1354.315331602243,3561.2314,9.555558
1354.3167204966126,1354.3167204966126,3539.3933,9.539631
1354.318109390982,1354.318109390982,3543.4436,9.545792
1354.3194982854675,1354.3194982854675,3540.8503,9.548727
1354.3208871798365,1354.3208871798365,3561.733,9.559263
1354.322276074205,1354.322276074205,3546.9326,9.555412
1354.323664968691,1354.323664968691,3541.946,9.547557
1354.3250538631764,1354.3250538631764,3548.5796,9.550221
1354.3264427575446,1354.3264427575446,3551.5007,9.553655
1354.3278316520305,1354.3278316520305,3561.0151,9.548541
1354.3292205465166,1354.3292205465166,3562.719,9.556086
1354.3306094408863,1354.3306094408863,3545.2427,9.549958
1354.3319983353713,1354.3319983353713,3562.1348,9.549938
1354.3333872298558,1354.3333872298558,3558.7769,9.549437
1354.334776124342,1354.334776124342,3537.8862,9.545695
1354.336165018828,1354.336165018828,3548.5986,9.546054
1354.3375539133126,1354.3375539133126,3533.0532,9.536494
1354.3389428077976,1354.3389428077976,3545.346,9.547239
1354.3403317022837,1354.3403317022837,3547.4294,9.550544
1354.3417205968863,1354.3417205968863,3531.4497,9.543168
1354.3431094913722,1354.3431094913722,3553.4153,9.554775
1354.3444983858567,1354.3444983858567,3539.143,9.54139
1354.3458872804583,1354.3458872804583,3560.4854,9.549799
1354.3472761749445,1354.3472761749445,3554.6438,9.544734
1354.3486650695459,1354.3486650695459,3561.7266,9.550157
1354.3500539640313,1354.3500539640313,3550.931,9.553231
1354.351442858633,1354.351442858633,3561.6255,9.556427
1354.3528317532355,1354.3528317532355,3551.5872,9.547335
1354.3542206477214,1354.3542206477214,3540.5522,9.541861
1354.355609542323,1354.355609542323,3562.3845,9.553375
1354.3569984369246,1354.3569984369246,3553.731,9.553899
1354.3583873315265,1354.3583873315265,3552.4692,9.54933
1354.359776226128,1354.359776226128,3551.1094,9.557316
1354.3611651207304,1354.3611651207304,3546.22,9.545718
1354.362554015333,1354.362554015333,3555.719,9.557922
1354.3639429099344,1354.3639429099344,3548.6707,9.549403
1354.3653318045363,1354.3653318045363,3562.6497,9.557062
1354.3667206991379,1354.3667206991379,3550.3943,9.553782
1354.3681095938568,1354.3681095938568,3549.8176,9.546005
1354.3694984884582,1354.3694984884582,3537.608,9.5401535
1354.3708873830592,1354.3708873830592,3563.5884,9.555505
1354.3722762777782,1354.3722762777782,3547.2754,9.547335
1354.3736651723807,1354.3736651723807,3555.6167,9.550959
1354.3750540670994,1354.3750540670994,3556.504,9.543277
1354.3764429618175,1354.3764429618175,3550.9402,9.546616
1354.3778318564187,1354.3778318564187,3550.6829,9.537913
1354.3792207511374,1354.3792207511374,3559.0103,9.5523615
1354.380609645856,1354.380609645856,3542.4084,9.54492
1354.3819985405735,1354.3819985405735,3534.109,9.538059
1354.3833874352918,1354.3833874352918,3541.5361,9.54479
1354.3847763300105,1354.3847763300105,3552.5752,9.552173
1354.3861652247292,1354.3861652247292,3551.1047,9.550536
1354.387554119448,1354.387554119448,3561.4646,9.554588
1354.3889430141653,1354.3889430141653,3559.1978,9.554034
1354.3903319088836,1354.3903319088836,3570.482,9.552059
1354.3917208036023,1354.3917208036023,3551.0183,9.548658
1354.3931096983206,1354.3931096983206,3547.0295,9.541042
1354.3944985931548,1354.3944985931548,3541.391,9.538749
1354.395887487873,1354.395887487873,3544.569,9.547743
1354.3972763825918,1354.3972763825918,3530.5635,9.527768
1354.398665277427,1354.398665277427,3538.7734,9.53727
1354.4000541721452,1354.4000541721452,3557.2717,9.549686
1354.4014430669795,1354.4014430669795,3545.2026,9.540416
1354.4028319618142,1354.4028319618142,3553.0132,9.53967
1354.4042208565324,1354.4042208565324,3556.13,9.550533
1354.4056097513676,1354.4056097513676,3574.8433,9.552375
1354.4069986462027,1354.4069986462027,3545.4263,9.543526
1354.4083875410372,1354.4083875410372,3549.7058,9.542778
1354.4097764358717,1354.4097764358717,3565.0725,9.553453
1354.41116533059,1354.41116533059,3552.058,9.543323
1354.412554225425,1354.412554225425,3534.4026,9.539334
1354.4139431203762,1354.4139431203762,3547.4553,9.54332
1354.41533201521,1354.41533201521,3554.6829,9.546811
1354.4167209100451,1354.4167209100451,3562.0242,9.54345
1354.4181098048803,1354.4181098048803,3563.0623,9.546403
1354.4194986997154,1354.4194986997154,3564.3196,9.551838
1354.42088759455,1354.42088759455,3542.5955,9.539102
1354.4222764895003,1354.4222764895003,3549.3562,9.539542
1354.4236653843354,1354.4236653843354,3543.737,9.536079
1354.425054279287,1354.425054279287,3541.4592,9.547788
1354.4264431741208,1354.4264431741208,3558.1482,9.5485735
1354.4278320690719,1354.4278320690719,3551.1257,9.545908
1354.429220963907,1354.429220963907,3562.1702,9.543679
1354.4306098588586,1354.4306098588586,3552.7542,9.5501375
1354.4319987538101,1354.4319987538101,3547.111,9.541699
1354.433387648644,1354.433387648644,3562.6338,9.550078
1354.434776543595,1354.434776543595,3553.9082,9.554815
1354.4361654385466,1354.4361654385466,3543.2683,9.538797
1354.4375543334977,1354.4375543334977,3558.1848,9.54193
1354.4389432284486,1354.4389432284486,3556.216,9.555792
1354.4403321233995,1354.4403321233995,3550.822,9.541915
1354.441721018351,1354.441721018351,3549.181,9.545708
1354.4431099133026,1354.4431099133026,3549.6755,9.538021
1354.4444988082537,1354.4444988082537,3560.8672,9.554738
1354.4458877032048,1354.4458877032048,3546.4663,9.5410795
1354.4472765982719,1354.4472765982719,3562.5623,9.55332
1354.448665493223,1354.448665493223,3550.4927,9.538963
1354.4500543881745,1354.4500543881745,3544.847,9.548536
1354.4514432832425,1354.4514432832425,3559.8772,9.536917
1354.4528321781936,1354.4528321781936,3548.8271,9.548298
1354.4542210731445,1354.4542210731445,3554.2947,9.546036
1354.4556099682118,1354.4556099682118,3549.8362,9.545276
1354.4569988632798,1354.4569988632798,3543.77,9.546314
1354.4583877582309,1354.4583877582309,3547.124,9.5444565
1354.4597766532975,1354.4597766532975,3540.2712,9.531894
1354.4611655483654,1354.4611655483654,3556.2961,9.54812
1354.462554443317,1354.462554443317,3542.9253,9.534992
1354.463943338385,1354.463943338385,3544.1123,9.54357
1354.4653322334525,1354.4653322334525,3552.983,9.545066
1354.466721128519,1354.466721128519,3542.7224,9.535924
1354.468110023587,1354.468110023587,3547.5984,9.542183
1354.469498918655,1354.469498918655,3555.2222,9.534335
1354.470887813722,1354.470887813722,3564.7053,9.554679
1354.4722767087892,1354.4722767087892,3564.287,9.554289
1354.4736656038572,1354.4736656038572,3576.8118,9.5599985
1354.4750544989254,1354.4750544989254,3543.4312,9.537974
1354.47644339411,1354.47644339411,3537.9856,9.530612
1354.4778322891766,1354.4778322891766,3545.6042,9.541305
1354.4792211842437,1354.4792211842437,3543.0405,9.5422125
1354.4806100794283,1354.4806100794283,3547.9514,9.544501
1354.4819989744956,1354.4819989744956,3552.5125,9.541942
1354.4833878696795,1354.4833878696795,3549.1902,9.544044
1354.4847767647466,1354.4847767647466,3569.081,9.556988
1354.4861656599312,1354.4861656599312,3562.8157,9.553664
1354.4875545549994,1354.4875545549994,3555.3342,9.548554
1354.488943450183,1354.488943450183,3554.9841,9.540718
1354.4903323453668,1354.4903323453668,3555.427,9.545921
1354.4917212404341,1354.4917212404341,3559.3796,9.547988
1354.4931101356178,1354.4931101356178,3556.903,9.545303
1354.4944990308022,1354.4944990308022,3570.4597,9.553882
1354.4958879259868,1354.4958879259868,3548.8047,9.538269
1354.4972768211705,1354.4972768211705,3568.2534,9.549916
1354.4986657163545,1354.4986657163545,3542.8362,9.533496
1354.500054611538,1354.500054611538,3535.1382,9.538905
1354.5014435067226,1354.5014435067226,3551.6182,9.540266
1354.5028324019063,1354.5028324019063,3551.8833,9.547842
1354.5042212970893,1354.5042212970893,3545.8699,9.53894
1354.5056101922737,1354.5056101922737,3561.9517,9.543099
1354.5069990874583,1354.5069990874583,3562.0583,9.5472555
1354.5083879827594,1354.5083879827594,3543.805,9.538953
1354.5097768779428,1354.5097768779428,3545.892,9.549346
1354.5111657731259,1354.5111657731259,3545.2253,9.5396385
1354.512554668427,1354.512554668427,3575.6714,9.5604925
1354.5139435636115,1354.5139435636115,3555.286,9.540979
1354.515332458911,1354.515332458911,3548.3074,9.545687
1354.5167213540947,1354.5167213540947,3555.2903,9.548429
1354.5181102493957,1354.5181102493957,3547.7163,9.537336
1354.5194991446965,1354.5194991446965,3558.5684,9.539345
1354.520888039881,1354.520888039881,3554.1235,9.543481
1354.5222769351803,1354.5222769351803,3556.0393,9.546645
1354.5236658304807,1354.5236658304807,3545.8284,9.54082
1354.5250547257815,1354.5250547257815,3552.8813,9.545365
1354.526443620965,1354.526443620965,3548.9353,9.530641
1354.5278325162653,1354.5278325162653,3563.652,9.548527
1354.5292214115657,1354.5292214115657,3551.9302,9.549813
1354.5306103068665,1354.5306103068665,3549.6929,9.541346
1354.5319992021673,1354.5319992021673,3535.7737,9.52655
1354.5333880974677,1354.5333880974677,3567.6133,9.548051
1354.5347769927675,1354.5347769927675,3534.6565,9.534245
1354.5361658881843,1354.5361658881843,3541.8945,9.537889
1354.5375547834844,1354.5375547834844,3542.7485,9.5413265
1354.5389436787855,1354.5389436787855,3562.8232,9.546521
1354.5403325740863,1354.5403325740863,3533.1086,9.538196
1354.5417214695026,1354.5417214695026,3550.4453,9.546766
1354.543110364803,1354.543110364803,3548.5898,9.538458
1354.5444992601033,1354.5444992601033,3541.189,9.544283
1354.5458881555205,1354.5458881555205,3567.2073,9.545651
1354.5472770508204,1354.5472770508204,3541.8926,9.53655
1354.5486659462365,1354.5486659462365,3554.7166,9.545861
1354.5500548415375,1354.5500548415375,3523.0088,9.530967
1354.5514437369548,1354.5514437369548,3547.2458,9.538295
1354.552832632372,1354.552832632372,3554.8315,9.5362425
1354.5542215276723,1354.5542215276723,3554.2407,9.546979
1354.5556104230882,1354.5556104230882,3568.6667,9.546434
1354.5569993185054,1354.5569993185054,3540.6897,9.537078
1354.5583882139226,1354.5583882139226,3548.6753,9.544521
1354.5597771093385,1354.5597771093385,3552.7473,9.541831
1354.5611660046388,1354.5611660046388,3552.345,9.543402
1354.562554900056,1354.562554900056,3556.1086,9.538781
1354.5639437954733,1354.5639437954733,3543.59,9.5392475
1354.5653326908905,1354.5653326908905,3549.9207,9.541473
1354.5667215863064,1354.5667215863064,3553.5586,9.547404
1354.5681104818395,1354.5681104818395,3583.458,9.564739
1354.5694993772568,1354.5694993772568,3550.6145,9.53707
1354.5708882726735,1354.5708882726735,3554.9646,9.547581
1354.5722771680898,1354.5722771680898,3558.52,9.539886
1354.5736660635066,1354.5736660635066,3551.2793,9.541878
1354.5750549590402,1354.5750549590402,3553.49,9.541375
1354.5764438544575,1354.5764438544575,3551.0266,9.537727
1354.5778327498742,1354.5778327498742,3549.23,9.544767
1354.5792216454072,1354.5792216454072,3567.3906,9.547262
1354.5806105408237,1354.5806105408237,3539.193,9.539256
1354.581999436357,1354.581999436357,3540.8193,9.537859
1354.5833883317741,1354.5833883317741,3547.7063,9.538875
1354.5847772273078,1354.5847772273078,3553.6406,9.547072
1354.586166122841,1354.586166122841,3551.2544,9.545502
1354.5875550182573,1354.5875550182573,3547.3118,9.5341
1354.5889439137904,1354.5889439137904,3549.527,9.541512
1354.590332809324,1354.590332809324,3554.682,9.547691
1354.5917217048573,1354.5917217048573,3552.1956,9.539994
1354.5931106002731,1354.5931106002731,3546.4636,9.534242
1354.5944994958068,1354.5944994958068,3551.8547,9.532535
1354.5958883913404,1354.5958883913404,3549.3625,9.543696
1354.597277286874,1354.597277286874,3538.38,9.54144
1354.5986661824072,1354.5986661824072,3557.9473,9.548659
1354.6000550779395,1354.6000550779395,3542.2659,9.534172
1354.6014439734731,1354.6014439734731,3552.251,9.539271
