time,time,flux,flux_err
1491.6407078217871,1491.6407078217871,1.0000721832548631,0.000725702536139229
1491.649041338689,1491.649041338689,1.0002011681047625,0.0007243470741997776
1491.6566803956805,1491.6566803956805,0.9991066226471117,0.000660291598359238
1491.6636249928556,1491.6636249928556,0.9999082097279525,0.000659185081839513
1491.6705695899377,1491.6705695899377,0.9997139765380701,0.0006584040470361335
1491.677514187019,1491.677514187019,0.9991941724062098,0.0006573000469697158
1491.6844587839146,1491.6844587839146,1.0006191759497918,0.0006565133048033057
1491.6914033808102,1491.6914033808102,1.000458466920858,0.0006554673947753783
1491.698347977706,1491.698347977706,1.001084065106869,0.0006549937181226688
1491.7052925743217,1491.7052925743217,0.9996467079055256,0.0006548222580678976
1491.7122371710313,1491.7122371710313,0.9991904485707839,0.00065339627071459
1491.7191817675543,1491.7191817675543,0.9994489395336025,0.0006519853582640387
1491.7261263640773,1491.7261263640773,1.0001608523501062,0.0006516162706958166
1491.7330709604141,1491.7330709604141,0.9998052247477227,0.000650399825508331
1491.740015556658,1491.740015556658,1.0005782720369187,0.000649713458187697
1491.7469601529012,1491.7469601529012,0.9997660994405141,0.0006495251795734983
1491.7539047489586,1491.7539047489586,1.000086705564862,0.000648375158705744
1491.7608493451094,1491.7608493451094,0.9999056728681783,0.0006481118440874132
1491.767793940887,1491.767793940887,1.0004277686952374,0.0006473944739985455
1491.7747385367582,1491.7747385367582,0.9997346586142657,0.0006464704385859942
1491.7816831325358,1491.7816831325358,0.9994980584377874,0.0006456381599666668
1491.7886277281275,1491.7886277281275,1.0003619942780562,0.0006453964877729952
1491.7955723237196,1491.7955723237196,1.000371034997681,0.0006451183140598002
1491.8025169190319,1491.8025169190319,0.9995956599296519,0.0006439515312677256
1491.8094615142506,1491.8094615142506,1.0008543561148024,0.0006438054343722384
1491.8164061094699,1491.8164061094699,0.9997159454388621,0.000643110821859384
1491.8233507046893,1491.8233507046893,1.0002075486232183,0.0006422741393381428
1491.8302952999081,1491.8302952999081,0.9991170304387808,0.0006413046397341402
1491.8372398946617,1491.8372398946617,0.9998834719195907,0.0006409877804067624
1491.8441844896015,1491.8441844896015,1.0003346677936764,0.0006401913959149281
1491.8511290842614,1491.8511290842614,1.0003173732208315,0.0006398825936024439
1491.8580736788294,1491.8580736788294,0.9998932680091016,0.0006392039776361781
1491.8650182733968,1491.8650182733968,0.9994788480437234,0.0006380742237622541
1491.8719628677777,1491.8719628677777,1.0002304995266063,0.0006377216632720658
1491.8789074619722,1491.8789074619722,0.9999415691230237,0.0006377190285895719
1491.885852056167,1491.885852056167,0.9999089763130634,0.0006369616471206727
1491.8927966502686,1491.8927966502686,1.0003629003362513,0.0006364075096513258
1491.8997412441836,1491.8997412441836,0.9995558625530562,0.0006355913785797673
1491.906685838006,1491.906685838006,1.0005811449285644,0.0006353821238316867
1491.913630431642,1491.913630431642,1.000072493717544,0.0006352737640220083
1491.9205750252775,1491.9205750252775,1.0000128646102282,0.0006348384168513694
1491.9275196187275,1491.9275196187275,0.9999859533227001,0.0006343750313158798
1491.934464212177,1491.934464212177,0.999846369421082,0.0006339236373207647
1491.941408805347,1491.941408805347,1.0002960111921606,0.000634053871176269
1491.9483533986106,1491.9483533986106,0.9996372276947525,0.00063328769209833
1491.9552979915015,1491.9552979915015,1.0000821808815998,0.0006332274971411831
1491.9622425843922,1491.9622425843922,1.0001019763343166,0.0006328097614143879
1491.9691871772832,1491.9691871772832,0.9991755337492544,0.0006328149245825004
1491.9761317698014,1491.9761317698014,1.0003549652708057,0.0006329786349085017
1491.9830763624127,1491.9830763624127,0.9996613047145987,0.0006324857900519321
1491.990020954838,1491.990020954838,1.0003927770414485,0.0006327635605525372
1491.9969655471705,1491.9969655471705,1.0002562302662503,0.0006325131583685699
1492.003910139223,1492.003910139223,1.0009534963609223,0.0006325968389031736
1492.0108547312757,1492.0108547312757,0.9997037779533888,0.00063248783284533
1492.017799323235,1492.017799323235,0.9986779364157397,0.0006320862218599462
1492.0247439150085,1492.0247439150085,1.0011756581455233,0.00063271712782109
1492.0316885066884,1492.0316885066884,0.9995359276838183,0.0006326509799386309
1492.0386330982758,1492.0386330982758,1.0005264251154602,0.0006320901965733265
1492.0455776897697,1492.0455776897697,1.0004963236240605,0.0006322195561966179
1492.052522281077,1492.052522281077,0.9993081160005313,0.0006319708751684513
1492.0594668721983,1492.0594668721983,1.0000582885672031,0.0006325272244110707
1492.0664114633198,1492.0664114633198,1.0000981228805457,0.0006326255855159167
1492.0733560542544,1492.0733560542544,1.0009553364027917,0.0006326618539377283
1492.0803006449103,1492.0803006449103,0.9993891782900398,0.0006322666777172738
1492.0872452358456,1492.0872452358456,1.0002514415904105,0.0006321829797325621
1492.0941898264077,1492.0941898264077,0.9998271817059147,0.0006319340320327882
1492.101134416598,1492.101134416598,0.9996477744971737,0.0006325671318449181
1492.1080790070673,1492.1080790070673,1.0006294803949018,0.000632539406442586
1492.115023597164,1492.115023597164,0.9995760754139112,0.0006322545407620784
1492.1219681872612,1492.1219681872612,0.9998323511488103,0.0006321621977215793
1492.1289127771718,1492.1289127771718,0.9995708366750058,0.0006325963868098282
1492.1358573668958,1492.1358573668958,1.0005358355164056,0.0006323683712195915
1492.1428019566206,1492.1428019566206,1.0003028718902045,0.0006323730918336212
1492.1497465462521,1492.1497465462521,0.9998787966472849,0.0006323800141176245
1492.1566911356038,1492.1566911356038,0.9999181993091775,0.0006323379322329155
1492.1636357248624,1492.1636357248624,1.0001941532456928,0.0006325783708101735
1492.170580314028,1492.170580314028,0.9999824301789779,0.0006322065188568064
1492.1775249030075,1492.1775249030075,1.0000875539386107,0.000632916493866201
1492.1844694918932,1492.1844694918932,0.9997522330617719,0.0006322088430548214
1492.1914140806864,1492.1914140806864,0.9997566346088551,0.000631902840197662
1492.1983586692932,1492.1983586692932,0.9999082834058894,0.0006322631725804103
1492.2053032578067,1492.2053032578067,1.0000653159731647,0.0006322150907909815
1492.212247846041,1492.212247846041,1.0002380527364372,0.0006325507459876577
1492.2191924342753,1492.2191924342753,0.9997892850608935,0.0006323486928070954
1492.2261370225092,1492.2261370225092,0.9997497673094655,0.0006320259544113049
1492.2330816104643,1492.2330816104643,1.0010574607376728,0.0006325373829605575
1492.2400261983262,1492.2400261983262,0.9986612766829213,0.0006322934349867358
1492.2469707860942,1492.2469707860942,1.0009089142071486,0.0006318870198202067
1492.2539153736768,1492.2539153736768,1.000255946319817,0.0006323322324588735
1492.2608599610728,1492.2608599610728,0.9996246249955301,0.0006319509710581392
1492.2678045484686,1492.2678045484686,1.0006006760316872,0.0006323458847828423
1492.2747491355854,1492.2747491355854,0.999539259667251,0.0006319633710898002
1492.2816937227021,1492.2816937227021,0.9991783840600228,0.0006320331005213
1492.2886383095395,1492.2886383095395,1.000528367435166,0.0006322367220049962
1492.2955828962836,1492.2955828962836,1.0003494080971058,0.0006323213888036495
1492.302527483028,1492.302527483028,0.9999115496840577,0.0006331403659142864
1492.309472069586,1492.309472069586,0.9998474640030878,0.0006321775645758549
1492.3164166559575,1492.3164166559575,0.9996467503538478,0.0006325204100030713
1492.323361242236,1492.323361242236,1.0001208433698485,0.0006325572392753243
1492.330305828328,1492.330305828328,1.0007854818191855,0.0006325899894923741
1492.337250414234,1492.337250414234,0.9995315599386515,0.0006326382174396453
1492.3441950001397,1492.3441950001397,1.0000259719479268,0.0006326453429797758
1492.3511395860457,1492.3511395860457,0.999958175928023,0.0006321693433416703
1492.3580841714859,1492.3580841714859,1.0002711887706708,0.0006324886174199761
1492.3650287570194,1492.3650287570194,0.9994772057869147,0.0006321435669843012
1492.3719733422736,1492.3719733422736,0.9998381162971028,0.0006322275227585588
1492.378917927527,1492.378917927527,0.9997703317389461,0.0006325840292009577
1492.385862512595,1492.385862512595,1.00077336632101,0.0006325441368822398
1492.3928070974766,1492.3928070974766,1.000174481317581,0.0006327859663124751
1492.3997516823576,1492.3997516823576,0.9993663824647641,0.000632339464638207
1492.40669626696,1492.40669626696,0.9999083548089889,0.000632160929770094
1492.4136408514692,1492.4136408514692,1.0000648994783545,0.0006321507466036703
1492.4205854359777,1492.4205854359777,1.0003486192517925,0.0006321958493643592
1492.4275300201143,1492.4275300201143,1.0000252446089912,0.0006321517467337034
1492.4344746042507,1492.4344746042507,0.9995394897059207,0.0006319199070811742
1492.441419188294,1492.441419188294,1.000585748871325,0.0006325497412305894
1492.4483637720582,1492.4483637720582,1.0008929717973392,0.0006326096583604444
1492.4553083560083,1492.4553083560083,0.9994854366972288,0.0006322753651624717
1492.4622529395858,1492.4622529395858,0.9997262538843801,0.0006324599774099911
1492.4691975228839,1492.4691975228839,0.999663033394976,0.0006323429904092476
1492.4761421062756,1492.4761421062756,0.9998445721725273,0.0006323590755852909
1492.4830866893876,1492.4830866893876,0.9996425130999343,0.0006327618119782971
1492.4900312724062,1492.4900312724062,1.0001281984728592,0.0006325544513025788
1492.496975855425,1492.496975855425,0.9988429189075866,0.0006327852303257932
1492.5039204381644,1492.5039204381644,1.000687605901107,0.0006325864153652009
1492.5108650208106,1492.5108650208106,1.0001794941335107,0.0006324187202925563
1492.5178096033637,1492.5178096033637,1.000420193684122,0.0006330352420557273
1492.524754185731,1492.524754185731,0.9998461288492614,0.0006327510354581337
1492.5316987680046,1492.5316987680046,0.9996026147630127,0.0006323396359442775
1492.5386433500921,1492.5386433500921,0.9998149490770734,0.0006322444340196711
1492.5455879320866,1492.5455879320866,1.0006461127824775,0.0006326377002247992
1492.5525325138942,1492.5525325138942,0.9999100264161418,0.0006325866945685888
1492.5594770956095,1492.5594770956095,0.999837291705654,0.0006326379494939146
1492.5664216772316,1492.5664216772316,0.9997260691151316,0.0006324873772444724
1492.5733662586667,1492.5733662586667,0.9998543428311212,0.0006323736583989762
1492.5803108399164,1492.5803108399164,0.9991888699808875,0.0006324201327369306
1492.5872554211655,1492.5872554211655,1.0002243080567657,0.0006323883926510403
1492.594200002135,1492.594200002135,1.0002716605980893,0.0006322352315627892
1492.6011445831057,1492.6011445831057,1.0011280911425118,0.0006322575585440493
1492.6080891637962,1492.6080891637962,1.0007579385250176,0.0006323037627514281
1492.6150337444867,1492.6150337444867,1.0000374843349262,0.0006322955754751671
1492.6219783249908,1492.6219783249908,0.9990404361868567,0.0006320612067335152
1492.628922905402,1492.628922905402,0.9998319274559808,0.0006325925239062454
1492.635867485627,1492.635867485627,0.9988651220095424,0.0006318717507819144
1492.6428120656653,1492.6428120656653,1.0007532457371116,0.000632199002087002
1492.6497566457042,1492.6497566457042,0.9997108250134442,0.0006323429745860662
1492.6567012255562,1492.6567012255562,1.0002782749368138,0.000632164385578316
1492.6636458052221,1492.6636458052221,0.9999236646959664,0.0006325219972380924
1492.6705903847953,1492.6705903847953,1.0001499419967075,0.0006319962579331042
1492.677534964182,1492.677534964182,1.0000412244642394,0.0006321807512226028
1492.6844795434754,1492.6844795434754,1.0002820467584732,0.0006322653813406756
1492.6914241226762,1492.6914241226762,0.9992873542399131,0.0006324695636638149
1492.698368701597,1492.698368701597,1.0001470592518609,0.0006324846163231635
1492.7053132805177,1492.7053132805177,1.000907952359239,0.0006324785322315432
1492.7122578594388,1492.7122578594388,0.9995504716623957,0.0006318812851309385
1492.7192024378942,1492.7192024378942,1.0005221070773345,0.0006324214812521439
1492.7261470164424,1492.7261470164424,1.000055407586801,0.0006320852583456408
1492.733091594898,1492.733091594898,1.000005675784454,0.0006325441165219558
1492.740036173074,1492.740036173074,0.9985232784971252,0.000632061595330725
1492.7469807511566,1492.7469807511566,1.0005318023133924,0.0006329740237946822
1492.7539253291463,1492.7539253291463,1.0001302403918904,0.000632267282238371
1492.7608699068571,1492.7608699068571,0.9997508109082599,0.0006325390967145291
1492.7678144846607,1492.7678144846607,0.9999928351386993,0.0006324305926412003
1492.7747590621843,1492.7747590621843,0.9998485336159998,0.0006323671107784849
1492.7817036396154,1492.7817036396154,1.0010454236706137,0.0006323635347102897
1492.7886482169529,1492.7886482169529,0.9997802364060965,0.0006320759918323474
1492.7955927941043,1492.7955927941043,0.9999117846750044,0.000632289155352063
1492.80253737107,1492.80253737107,0.9999522656480309,0.0006325432975364626
1492.8094819480352,1492.8094819480352,1.000000531513524,0.0006324255843573648
1492.8164265246278,1492.8164265246278,0.9993228351986637,0.0006324682895653192
1492.8233711012203,1492.8233711012203,1.000173408520134,0.0006324636011384492
1492.8303156778131,1492.8303156778131,1.0007977608818828,0.0006323106896708477
1492.8372602542192,1492.8372602542192,0.9993217775678206,0.0006325503974200983
1492.8442048304396,1492.8442048304396,1.000399455065668,0.0006324079535212714
1492.8511494064737,1492.8511494064737,0.9999797558148973,0.0006326534416347765
1492.8580939825074,1492.8580939825074,1.0002728625334685,0.0006324898607437845
1492.8650385582619,1492.8650385582619,1.0000157228742723,0.0006322379123244167
1492.8719831340163,1492.8719831340163,1.0001421753971256,0.0006323216530616436
1492.8789277094913,1492.8789277094913,0.9994344113591975,0.0006322931303574391
1492.8858722849666,1492.8858722849666,0.9995349865832501,0.0006324151595680167
1492.8928168602556,1492.8928168602556,0.9995343278120181,0.0006322333461072315
1492.899761435358,1492.899761435358,0.9999616411048151,0.0006324540445507794
1492.9067060103675,1492.9067060103675,1.0004628825799329,0.000632618589132043
1492.913650585377,1492.913650585377,1.000142897511815,0.0006324419741075835
1492.9205951600136,1492.9205951600136,1.0011586344080694,0.0006321431043491038
1492.9275397347442,1492.9275397347442,0.999702868038456,0.0006321481071493767
1492.934484309102,1492.934484309102,0.9996335373135539,0.00063208858606635
1492.9414288837388,1492.9414288837388,1.000450158026102,0.0006324857149893514
1492.9483734578166,1492.9483734578166,1.000100510325979,0.0006323363194050711
1492.9553180318019,1492.9553180318019,0.9993894971018736,0.0006321620008562385
1492.96226260588,1492.96226260588,0.9999776787753408,0.0006322904737691958
1492.9692071796785,1492.9692071796785,0.9996909915882906,0.00063238682619371
1492.9761517533843,1492.9761517533843,1.0003583616710712,0.0006326628288485657
1492.9830963269965,1492.9830963269965,0.9998813890264119,0.0006323438542913367
1492.9900409003296,1492.9900409003296,1.0005770136779795,0.0006322764612196005
1492.9969854736626,1492.9969854736626,0.9987204762439206,0.0006323780798534106
1493.003930046903,1493.003930046903,0.9998398777314824,0.0006323516013933113
1493.010874619863,1493.010874619863,1.001467248547724,0.000632673799582969
1493.0178191928237,1493.0178191928237,0.9991616265582494,0.000632147141647234
1493.024763765598,1493.024763765598,0.9994787926928325,0.0006322459471926472
1493.0317083381858,1493.0317083381858,1.0011042542000443,0.0006323454909943153
1493.0386529106809,1493.0386529106809,1.000241238562472,0.0006320781354834643
1493.0455974830827,1493.0455974830827,1.000053944692406,0.0006325951681526974
1493.0525420552046,1493.0525420552046,0.999691330673263,0.000632100759788797
1493.0594866276067,1493.0594866276067,0.9994278776743007,0.0006319628568477166
1493.0664311995429,1493.0664311995429,1.0002813418063994,0.0006322306793855037
1493.0733757712924,1493.0733757712924,1.0001403182368502,0.0006327076998315464
1493.080320342949,1493.080320342949,0.9999571377211165,0.0006327077043407651
1493.087264914606,1493.087264914606,0.9998953657755812,0.000632078901712001
1493.0942094860761,1493.0942094860761,0.9994566497088284,0.0006320681849028546
1493.1011540573609,1493.1011540573609,1.0004318636284957,0.0006325341861012034
1493.108098628552,1493.108098628552,0.9995874429355688,0.0006326658643362758
1493.1150431996498,1493.1150431996498,1.0000787966100508,0.0006328515240849852
1493.1219877704682,1493.1219877704682,1.00026037810084,0.000632104459717651
1493.1289323412868,1493.1289323412868,1.000713678969714,0.0006324300845224865
1493.135876912012,1493.135876912012,0.9995155047068615,0.0006323786254433926
1493.1428214825512,1493.1428214825512,1.0006905878975572,0.0006326072712174748
1493.1497660529042,1493.1497660529042,0.9993776246135907,0.0006325012238307834
1493.156710623257,1493.156710623257,0.9995117316926239,0.0006320777659314283
1493.1636551933302,1493.1636551933302,1.0005120217214902,0.0006324588394854981
1493.1705997633105,1493.1705997633105,1.0001965239449315,0.000632600824303912
1493.177544333291,1493.177544333291,0.99964813309718,0.0006321653366836214
1493.1844889028987,1493.1844889028987,0.9990641125196994,0.0006319782862175183
1493.1914334725066,1493.1914334725066,1.0009476534547894,0.0006327352224510096
1493.1983780421142,1493.1983780421142,1.0006880890246799,0.0006325552806331422
1493.2053226114424,1493.2053226114424,0.9998237756670963,0.0006325487274072819
1493.2122671806778,1493.2122671806778,0.9995970176745622,0.0006322892367951085
1493.21921174982,1493.21921174982,1.0003182503629002,0.0006329276403408033
1493.2261563186826,1493.2261563186826,0.9996015935116166,0.0006321152617633576
1493.2331008875453,1493.2331008875453,0.9991617308531616,0.0006321972427089103
1493.2400454563149,1493.2400454563149,0.99988194070154,0.0006324773087039545
1493.2469900248047,1493.2469900248047,1.0003543166760103,0.000632799063821725
1493.253934593295,1493.253934593295,1.000699309195055,0.0006324700675875968
1493.2608791615994,1493.2608791615994,1.0007698361853468,0.0006328858706990761
1493.2678237298098,1493.2678237298098,0.9991539860779988,0.0006324166490350099
1493.2747682978343,1493.2747682978343,1.0004597370667956,0.0006326194161929788
1493.281712865673,1493.281712865673,0.9996878132469961,0.0006327286611409863
1493.2886574335114,1493.2886574335114,1.0004099381831524,0.0006325410459137651
1493.2956020012564,1493.2956020012564,0.99953061904842,0.000632363653533566
1493.3025465687224,1493.3025465687224,0.999842744332329,0.0006323831195689884
1493.309491136281,1493.309491136281,0.9996381404831599,0.000632059760936474
1493.3164357035605,1493.3164357035605,1.0004556305825738,0.0006323850201040773
1493.3233802704674,1493.3233802704674,0.9985009663060431,0.0006322090863359584
1493.330324837654,1493.330324837654,1.0009700376083734,0.0006325469079214608
1493.3372694044674,1493.3372694044674,1.0009087165102482,0.0006324482796171702
1493.3442139711883,1493.3442139711883,0.999542290425482,0.0006321772382379475
1493.351158537816,1493.351158537816,1.0003615599215137,0.0006323884459858736
1493.358103104257,1493.358103104257,0.9999830216319158,0.0006323317440652814
1493.3650476706985,1493.3650476706985,0.9999259189771003,0.0006321425837639775
1493.3719922369532,1493.3719922369532,1.0002892267122045,0.0006328413970050588
1493.3789368030218,1493.3789368030218,0.9990583107431912,0.0006321027401360155
1493.3858813689978,1493.3858813689978,0.9998335335342073,0.0006326240854712293
1493.3928259348802,1493.3928259348802,1.0003446388818182,0.0006325371455924106
1493.399770500483,1493.399770500483,0.9997924739261214,0.0006324134981465048
1493.406715066179,1493.406715066179,1.0005896818554019,0.0006323976213803256
