time,time,flux,flux_err
1627.6541197598879,1627.6541197598879,1.0003002461288935,0.000415161503923745
1627.6624533350812,1627.6624533350812,0.9993999988288653,0.0004136108531127275
1627.6707869101967,1627.6707869101967,1.0005302219181809,0.00041237694829029367
1627.6791204853898,1627.6791204853898,1.0002594384771861,0.00041119341851009455
1627.6867595958981,1627.6867595958981,0.9999773390695804,0.00037441255110752595
1627.6937042418149,1627.6937042418149,1.0000584883595593,0.0003734907348856183
1627.7006488877314,1627.7006488877314,0.9997148302399556,0.00037258482465791674
1627.7075935335552,1627.7075935335552,1.0006450560277025,0.0003718024539026052
1627.7145381794714,1627.7145381794714,1.0002819757177632,0.0003711111712491474
1627.7214828252022,1627.7214828252022,0.9998982770592472,0.0003703678166953525
1627.7284274711185,1627.7284274711185,0.999802372276586,0.0003698987875073463
1627.7353721169422,1627.7353721169422,0.999750395617873,0.00036926245161689284
1627.7423167627653,1627.7423167627653,1.000235998073281,0.0003687929207050039
1627.7492614084028,1627.7492614084028,0.9996036145550586,0.00036828854267691635
1627.7562060542264,1627.7562060542264,1.000649012720663,0.00036788353271445274
1627.7631506999564,1627.7631506999564,1.0001650803920035,0.00036738581038188255
1627.770095345594,1627.770095345594,0.9999816039174242,0.0003669039327281495
1627.7770399914177,1627.7770399914177,0.9993300086773335,0.0003663768350278926
1627.783984636962,1627.783984636962,0.9999854487148703,0.0003660211278687088
1627.7909292826923,1627.7909292826923,1.0001121696794435,0.0003656737332783359
1627.7978739283299,1627.7978739283299,0.9995710932817368,0.00036523035412636725
1627.8048185739667,1627.8048185739667,1.0003802047799537,0.00036511124318625357
1627.8117632196038,1627.8117632196038,0.9997980493139356,0.00036468827122951937
1627.8187078650549,1627.8187078650549,1.0004163555720222,0.0003645562275740264
1627.825652510599,1627.825652510599,1.000603365114285,0.0003643450205356252
1627.8325971561433,1627.8325971561433,1.000078442852931,0.0003640287552289935
1627.8395418016873,1627.8395418016873,0.9997683967888087,0.00036374060408638783
1627.8464864471382,1627.8464864471382,1.0003521872636862,0.0003636182080808226
1627.8534310926823,1627.8534310926823,1.0000075011404799,0.00036332742586897733
1627.8603757381334,1627.8603757381334,0.999932369710716,0.00036312667562977887
1627.8673203835847,1627.8673203835847,0.9992927808009029,0.000362793128015001
1627.874265028942,1627.874265028942,1.000142237197693,0.0003625815909660394
1627.8812096743,1627.8812096743,1.0005225202111068,0.0003623976429253939
1627.8881543197508,1627.8881543197508,1.0000781392300826,0.00036201717052544805
1627.895098965016,1627.895098965016,1.0003914323662646,0.0003617901262045355
1627.9020436103735,1627.9020436103735,0.999752515671573,0.0003614017454030405
1627.9089882556382,1627.9089882556382,0.9997734137241171,0.0003610604817103499
1627.9159329010897,1627.9159329010897,1.0001965485107813,0.0003608085644911471
1627.9228775462611,1627.9228775462611,1.0001297944182421,0.0003603063519646516
1627.9298221915262,1627.9298221915262,0.9996588218615644,0.00036000021899372324
1627.9367668366972,1627.9367668366972,0.9998301408079486,0.00035958940054076234
1627.9437114819623,1627.9437114819623,1.0000648307690876,0.00035934260086485203
1627.950656127134,1627.950656127134,1.0001167788412606,0.00035887226910202803
1627.9576007721193,1627.9576007721193,1.0001017781103483,0.0003585383193855787
1627.9645454173838,1627.9645454173838,1.0006223442381006,0.0003582530674892959
1627.971490062462,1627.971490062462,1.0000512810531461,0.00035779019090482925
1627.9784347075406,1627.9784347075406,1.000043885171842,0.00035743620158324856
1627.9853793526192,1627.9853793526192,0.9996693454214641,0.00035696668844820666
1627.9923239976974,1627.9923239976974,0.9994132266297724,0.0003563520635160753
1627.9992686426829,1627.9992686426829,0.9999984531371762,0.00035623804814775075
1628.0062132876683,1628.0062132876683,1.000173440580463,0.0003559480034909597
1628.0131579326535,1628.0131579326535,1.000303114543497,0.00035552811246651855
1628.0201025775455,1628.0201025775455,0.9997131849689301,0.0003551400909778224
1628.0270472225309,1628.0270472225309,0.9994139632338968,0.0003548027310594115
1628.033991867423,1628.033991867423,1.000068417237196,0.0003543684137027447
1628.0409365123153,1628.0409365123153,0.9999053492574488,0.00035388040950364545
1628.0478811571143,1628.0478811571143,1.0003077937780351,0.0003535895822693205
1628.0548258020067,1628.0548258020067,1.0005424662011375,0.0003532540482681679
1628.0617704468054,1628.0617704468054,1.000175601213516,0.00035307356486950184
1628.0687150916046,1628.0687150916046,1.000224456341229,0.0003527622817904535
1628.0756597363109,1628.0756597363109,1.0001042774107334,0.00035243483649775284
1628.0826043811098,1628.0826043811098,0.9996627639001895,0.0003521764796431847
1628.0895490257226,1628.0895490257226,1.0000325677125765,0.000351887041660957
1628.0964936705216,1628.0964936705216,1.0004396727446492,0.0003516012038721964
1628.103438315135,1628.103438315135,0.9997846091243158,0.00035122293174819243
1628.1153831038387,1628.1153831038387,0.9996533127222215,0.0003506581801942432
1628.1326058224895,1628.1326058224895,0.9996550492558572,0.00034959831099201974
1628.1484396119572,1628.1484396119572,1.0000908404547726,0.00034895131036009143
1628.1609399719994,1628.1609399719994,0.9995651963944336,0.00034858448486367935
1628.1687179737123,1628.1687179737123,1.0001657610903503,0.0003478390258265658
1628.1795516189954,1628.1795516189954,1.0009838288107038,0.00034780660113156123
1628.191218621565,1628.191218621565,1.0004308669042934,0.0003473860556577207
1628.202052266662,1628.202052266662,0.9995962777650625,0.0003469400987115873
1628.2095524825193,1628.2095524825193,0.9996159182022837,0.0003467373067352927
1628.2187194128571,1628.2187194128571,1.0003112167546306,0.0003463463582018613
1628.2264974144769,1628.2264974144769,0.9998258581907544,0.00034592950780731446
1628.2353865588661,1628.2353865588661,0.999703227513205,0.00034537449624369194
1628.2423312031062,1628.2423312031062,0.9998192283136291,0.0003454476241243877
1628.2492758474395,1628.2492758474395,1.0004556290027804,0.00034512341748754326
1628.2562204914937,1628.2562204914937,1.0001879845113797,0.00034465214385582263
1628.2631651355473,1628.2631651355473,0.9995153500040692,0.00034442996696988984
1628.2701097796016,1628.2701097796016,1.0001922557751093,0.000344063519152203
1628.2770544236555,1628.2770544236555,0.9997083749235671,0.00034360846836556196
1628.2842768533787,1628.2842768533787,1.000331033175608,0.00034327623885599
1628.2934437831573,1628.2934437831573,1.0002382022665421,0.0003428088909964254
1628.304832999406,1628.304832999406,0.9997735896951383,0.00034198999525724306
1628.3145555007088,1628.3145555007088,1.0000712910142497,0.0003417300222583456
1628.3226112877185,1628.3226112877185,1.0004534098563016,0.00034153614891467094
1628.3298337171623,1628.3298337171623,0.999900195320709,0.00034118360905698584
1628.3367783610302,1628.3367783610302,0.9997733799768145,0.0003406459225491497
1628.3437230047111,1628.3437230047111,0.9996380697912579,0.0003403941549697016
1628.3506676484858,1628.3506676484858,0.9996144065784959,0.0003400071792947386
1628.3590012209781,1628.3590012209781,1.0002985914682097,0.0003393005090300423
1628.3659458646598,1628.3659458646598,1.0001355486320342,0.0003391444314990601
1628.3731682940102,1628.3731682940102,1.0003790302824562,0.0003388101387004982
1628.381224080554,1628.381224080554,1.0000224067757941,0.00033824986766686446
1628.3906687958156,1628.3906687958156,0.9998324866168764,0.00033779561202888547
1628.400669082508,1628.400669082508,0.999744958568052,0.0003373920363660502
1628.4076137260965,1628.4076137260965,1.0000641473222953,0.0003372344881427306
1628.4145583695913,1628.4145583695913,1.0005465252494634,0.00033676737829005035
1628.422891941618,1628.422891941618,0.9997081801070922,0.0003361915174185511
1628.4298365851132,1628.4298365851132,0.9994692434359493,0.000336207319420607
1628.4367812284224,1628.4367812284224,1.0002785194303445,0.0003360483257788553
1628.4437258718242,1628.4437258718242,0.9993404954749947,0.0003356863656400574
1628.4512260865642,1628.4512260865642,1.0008018255443927,0.0003356168626889029
1628.45900408716,1628.45900408716,0.9997699279243873,0.0003351792824864611
1628.467059873238,1628.467059873238,0.999458163337749,0.00033490317845649394
1628.4745600879783,1628.4745600879783,0.9999269098225911,0.0003347585140661263
1628.4826158740566,1628.4826158740566,1.0003847966102444,0.0003344192051622999
1628.490116088703,1628.490116088703,1.0000179306513646,0.0003346403701889152
1628.4978940890196,1628.4978940890196,1.0002837112280853,0.0003344326426237811
1628.5051165177179,1628.5051165177179,0.9995897185233054,0.00033414890942964
1628.515950161045,1628.515950161045,1.0004060264715076,0.0003337420838389048
1628.5242837325131,1628.5242837325131,0.9992380149903031,0.0003334146073600572
1628.532895089929,1628.532895089929,1.0001602345386014,0.0003334343746004561
1628.5409508757282,1628.5409508757282,1.0010832626367425,0.0003331382740025321
1628.5478955185713,1628.5478955185713,0.9996511252581437,0.0003332596587949867
1628.5551179471768,1628.5551179471768,0.9997980743008409,0.00033307681767279847
1628.5631737329754,1628.5631737329754,0.9997964616018798,0.00033301725415399945
1628.5701183757253,1628.5701183757253,1.0000295349526307,0.000332961475290872
1628.5770630184757,1628.5770630184757,1.0000722638535096,0.00033295112212004433
1628.584007661319,1628.584007661319,0.9998412838195009,0.0003328829921897222
1628.5909523039759,1628.5909523039759,1.0004747298071408,0.0003328547696940381
1628.5978969467262,1628.5978969467262,0.9999023598294784,0.00033273903061772025
1628.6059527322454,1628.6059527322454,0.9999623738271002,0.00033198160139880507
1628.6148418747719,1628.6148418747719,1.0001087276689622,0.00033231272518509895
1628.622897660105,1628.622897660105,1.0000824853619992,0.0003323026300016056
1628.6306756597692,1628.6306756597692,1.000276131188431,0.0003321943409462267
1628.6381758736711,1628.6381758736711,0.9995280551229107,0.0003320786780690292
1628.6451205161416,1628.6451205161416,1.00003947545726,0.0003320649927154648
1628.6520651586125,1628.6520651586125,1.0001434887926055,0.0003319872297966134
1628.6590098010838,1628.6590098010838,1.0004131095796047,0.00033182796741540015
1628.665954443461,1628.665954443461,0.999943294130133,0.0003317062819552698
1628.6728990857457,1628.6728990857457,0.9996080089864903,0.00033168934134429043
1628.679843728123,1628.679843728123,1.0006450446146387,0.00033173183970754036
1628.6867883704078,1628.6867883704078,0.9999230526021894,0.0003318199671767071
1628.6937330126918,1628.6937330126918,0.9996117793366533,0.00033147152394692666
1628.7006776549765,1628.7006776549765,0.999864303093549,0.00033164142834979685
1628.7076222971677,1628.7076222971677,1.00002552264302,0.00033145495125428646
1628.7145669393594,1628.7145669393594,0.9996785868970679,0.00033111465482334277
1628.7237338669026,1628.7237338669026,1.0001833238597928,0.0003311288035059986
1628.731234080432,1628.731234080432,0.999932272349145,0.00033093960627377054
1628.7381787224372,1628.7381787224372,1.0000616253781527,0.00033111936478384386
1628.7451233644422,1628.7451233644422,1.0000594832348533,0.00033118007347052956
1628.7520680065404,1628.7520680065404,1.0000705035910367,0.00033118907973335904
1628.7590126483597,1628.7590126483597,1.000338718705151,0.0003310802890977745
1628.7659572904577,1628.7659572904577,0.9994477365184118,0.00033079656522864466
1628.7729019322767,1628.7729019322767,1.0002870374778123,0.00033086883187818803
1628.779846574002,1628.779846574002,1.0003050102971573,0.0003306978327636947
1628.786791215914,1628.786791215914,0.9996586255457244,0.0003308156420604209
1628.7948470005952,1628.7948470005952,1.0004828991783192,0.00033087368476576327
1628.8034583563353,1628.8034583563353,1.0001561154064595,0.00033067930987584055
1628.810402998061,1628.810402998061,1.0002427772938405,0.00033082890683760227
1628.8179032111245,1628.8179032111245,1.0013347776866737,0.0003305178300727733
1628.825681209671,1628.825681209671,1.0000044940041002,0.0003306194606488129
1628.8326258511174,1628.8326258511174,0.999781403289238,0.0003306166008257165
1628.8423483495333,1628.8423483495333,0.9995750133959309,0.0003306288039194802
1628.8492929909794,1628.8492929909794,1.0001554621279385,0.0003309556435396598
1628.8562376325187,1628.8562376325187,1.0011555582407852,0.0003309161174662175
1628.863182273965,1628.863182273965,1.0001087064039518,0.000330767500062281
1628.870126915505,1628.870126915505,0.9999281327093386,0.0003308758456240915
1628.8770715567648,1628.8770715567648,1.0001125335838057,0.0003308856571427094
1628.8840161981177,1628.8840161981177,1.0001488632997533,0.00033054192483942076
1628.890960839564,1628.890960839564,0.9996486394271559,0.0003304312144322722
1628.8984610521625,1628.8984610521625,0.9992986036977387,0.0003303243321473474
1628.910405835092,1628.910405835092,1.0004121527842462,0.0003304825937984621
1628.917350476259,1628.917350476259,1.0004745486296855,0.0003302439700466414
1628.9251284744334,1628.9251284744334,0.9998285350723586,0.0003302720520136626
1628.932628686845,1628.932628686845,0.9998640726803657,0.000330309651283819
1628.9395733279184,1628.9395733279184,0.9995450450008205,0.00033010709545695186
1628.9465179690856,1628.9465179690856,1.0004734920171134,0.00033014609941428596
1628.9534626099728,1628.9534626099728,1.0000018916275792,0.00032989079910375897
1628.9604072511397,1628.9604072511397,1.0004032667750302,0.00032988399193413645
1628.9676296776966,1628.9676296776966,1.0004117241236536,0.0003296948567894281
1628.9756854610737,1628.9756854610737,0.9997003517442424,0.00032942750455327305
1628.9826301019607,1628.9826301019607,1.0002416129105645,0.00032947234496812723
1628.9895747428486,1628.9895747428486,1.000198030447247,0.0003293007523705699
1628.9973527405568,1628.9973527405568,0.9996859790206342,0.0003288869038918965
1629.004852952596,1629.004852952596,0.9994614335836962,0.0003287686641505187
1629.0117975932976,1629.0117975932976,1.000282610918547,0.00032867549255561956
1629.0187422340919,1629.0187422340919,0.9994904410513554,0.0003284985394403494
1629.0256868746997,1629.0256868746997,1.0004243250690044,0.00032855671362874125
1629.032631515494,1629.032631515494,1.0003541649565126,0.00032834705748908635
1629.039576156009,1629.039576156009,1.000252080565197,0.0003282664192625264
1629.0465207966172,1629.0465207966172,0.999718435508437,0.0003279333343591488
1629.053465437132,1629.053465437132,0.999456363401492,0.0003280861305598619
1629.060410077554,1629.060410077554,1.0003021795875924,0.000327732262125842
1629.067354718069,1629.067354718069,0.9999543412902755,0.00032754894276693824
1629.0742993584906,1629.0742993584906,0.9999789426341387,0.0003272959624586091
1629.0812439989127,1629.0812439989127,1.0002958899573529,0.0003270826905717023
1629.0881886392413,1629.0881886392413,1.0001720207834928,0.00032705179880471077
1629.0951332795698,1629.0951332795698,0.9997436348956568,0.0003266490366243116
1629.1020779198057,1629.1020779198057,0.9996825221829498,0.0003268255451551677
1629.1090225601342,1629.1090225601342,1.0002670664646847,0.00032667025389983246
1629.1159672002764,1629.1159672002764,0.9998253409327755,0.0003265870885651086
1629.1229118405122,1629.1229118405122,1.0001679560750867,0.00032648726777459463
1629.1298564806548,1629.1298564806548,0.9997684892144246,0.0003261821285838816
1629.1368011207971,1629.1368011207971,1.0001867908766282,0.0003261512311798321
1629.1437457608463,1629.1437457608463,1.0005533630803496,0.00032601119254253765
1629.1506904008957,1629.1506904008957,0.9996599612078253,0.000325983933248667
1629.1576350408518,1629.1576350408518,0.9995673050246952,0.00032580960440899566
1629.1645796808077,1629.1645796808077,1.0001560141898493,0.00032587862850073424
1629.171524320764,1629.171524320764,0.9999933113836657,0.00032550991659688284
1629.17846896072,1629.17846896072,1.0001666449586644,0.0003256142205608716
1629.18541360049,1629.18541360049,1.0000051110877028,0.00032551342098806715
1629.1923582403529,1629.1923582403529,1.0000487744971105,0.0003252562346879866
1629.2006918080956,1629.2006918080956,1.0000219096815042,0.0003250625244915034
1629.2076364478653,1629.2076364478653,0.9998668015668744,0.0003252089416580517
1629.214581087542,1629.214581087542,0.9997845359172288,0.000325131494640916
1629.221525727219,1629.221525727219,1.0003447730363138,0.00032497317445240727
1629.2284703668956,1629.2284703668956,0.9995332781654129,0.000324866749434253
1629.2354150064793,1629.2354150064793,1.0002846239516046,0.00032479075345464225
1629.2423596458768,1629.2423596458768,0.9999651676767899,0.00032492015081662587
1629.2493042856465,1629.2493042856465,1.0002935036905978,0.00032480131105709273
1629.2562489251375,1629.2562489251375,1.0006166292643368,0.00032475195612506066
1629.2631935645345,1629.2631935645345,1.000038711047224,0.0003245412352578444
1629.270138203932,1629.270138203932,0.9998782504903059,0.00032450362336223224
1629.277082843329,1629.277082843329,0.9997748021250631,0.0003243497827282295
1629.2840274827267,1629.2840274827267,1.000109274364076,0.0003244843306023389
1629.2909721220308,1629.2909721220308,1.000078030405804,0.00032418614093892965
1629.2979167610554,1629.2979167610554,0.9992497091663501,0.00032408784436664375
1629.304861400453,1629.304861400453,1.0001891888802827,0.00032394931104996614
1629.311806039571,1629.311806039571,0.9997436213344937,0.00032348945820408757
1629.318750678782,1629.318750678782,1.0008781491116319,0.0003239966291055035
1629.3256953178068,1629.3256953178068,1.000488563918308,0.00032367428072159016
1629.3326399570178,1629.3326399570178,1.000142500336303,0.0003237450213745941
1629.3395845960426,1629.3395845960426,0.9995379629143221,0.0003235643302637118
1629.3465292349742,1629.3465292349742,1.0002878737974101,0.0003236389383402435
1629.3534738739993,1629.3534738739993,1.0000463203905636,0.0003232602160156041
1629.360418512931,1629.360418512931,1.0000082089142812,0.000323092204483301
1629.3673631518625,1629.3673631518625,0.9993844275853743,0.00032287148100872555
1629.374307790608,1629.374307790608,0.9997968624143985,0.0003229249124921584
1629.3812524294467,1629.3812524294467,1.0004375229898372,0.00032287301872998257
1629.3881970682855,1629.3881970682855,0.9993704970611091,0.0003228289186015154
1629.3951417070307,1629.3951417070307,1.0000680480474737,0.00032270040880557233
1629.402086345683,1629.402086345683,1.0007547033010658,0.0003226011783481873
1629.4090309844285,1629.4090309844285,1.0008045766933609,0.0003225727973699862
1629.4159756230806,1629.4159756230806,0.9995144363087827,0.00032227572437925023
1629.4229202616398,1629.4229202616398,0.9998997149863691,0.00032232571305477716
1629.4298649001055,1629.4298649001055,0.9996132096621798,0.0003222133401390314
1629.4368095386649,1629.4368095386649,0.9997625391840075,0.000321694214863697
1629.4437541771313,1629.4437541771313,1.0004326582965868,0.00032205270055041344
1629.4506988155968,1629.4506988155968,1.0000574713682635,0.00032184941478852734
1629.457643454063,1629.457643454063,0.9997909929523636,0.00032173843332257467
1629.464588092343,1629.464588092343,0.9997118212530053,0.00032181915584816986
1629.4715327307158,1629.4715327307158,0.9999271647026953,0.00032176219499331323
1629.4784773689958,1629.4784773689958,1.0000408292941627,0.00032150089509966643
1629.4854220071823,1629.4854220071823,0.9999728413910016,0.00032147415176038603
1629.492366645462,1629.492366645462,0.9998972452606785,0.0003213730580495802
1629.4993112836487,1629.4993112836487,1.0006539991353915,0.00032121458962145133
1629.5062559217422,1629.5062559217422,1.0001400872931505,0.00032120359100911794
1629.5132005599287,1629.5132005599287,1.0000291519628877,0.00032089819268451495
1629.5201451979292,1629.5201451979292,0.9999957088605018,0.00032108606740888993
