time,time,flux,flux_err
1385.9527980092025,1385.9527980092025,1.0000711527421127,0.0001336147572916407
1385.9611315240718,1385.9611315240718,0.9998779349883852,0.00013360892383878668
1385.969465038901,1385.969465038901,1.0000206688115336,0.0001336145023027729
1385.977104094132,1385.977104094132,1.000052942483871,0.00012197901837325958
1385.9840486897515,1385.9840486897515,0.9999689876437159,0.00012197657225308963
1385.990993285359,1385.990993285359,0.9998487259353246,0.00012196996480462828
1385.9979378809312,1385.9979378809312,1.0000881649888866,0.00012197924333599231
1386.0048824764579,1386.0048824764579,1.0001337563294785,0.00012198989140329397
1386.0118270719722,1386.0118270719722,1.0001034002097424,0.00012198351366079347
1386.0187716674395,1386.0187716674395,0.9999988443492164,0.0001219789584365249
1386.0257162628848,1386.0257162628848,1.0000353529526473,0.00012198453020181178
1386.0326608582945,1386.0326608582945,0.9998983612986114,0.00012197937582421206
1386.0396054536686,1386.0396054536686,0.9998764974751296,0.0001219809158160776
1386.0465500490207,1386.0465500490207,0.9998935059588095,0.00012197765140613104
1386.0534946443493,1386.0534946443493,1.0002323964174646,0.00012199631834544412
1386.0604392396303,1386.0604392396303,1.0000025413309561,0.00012198750857354214
1386.067383834877,1386.067383834877,0.9999387516269334,0.00012198439303800991
1386.0743284301243,1386.0743284301243,0.999976182722186,0.00012199065906463649
1386.0812730253238,1386.0812730253238,1.0000115271251837,0.00012199070874709418
1386.0882176204773,1386.0882176204773,1.0000032184984398,0.00012198299121990901
1386.0951622156194,1386.0951622156194,0.9998929774970098,0.00012198144829552312
1386.1021068107148,1386.1021068107148,1.0000278342363447,0.00012199163719099337
1386.1090514057983,1386.1090514057983,1.0000755983490806,0.00012199068957105368
1386.1159960008358,1386.1159960008358,1.0000817632062005,0.00012199108265326253
1386.1229405958497,1386.1229405958497,0.9998441878188362,0.0001219773088467808
1386.1298851908164,1386.1298851908164,0.999947360141394,0.00012198029013553323
1386.136829785773,1386.136829785773,1.0000498047829443,0.00012198605370265015
1386.143774380705,1386.143774380705,1.000234332854438,0.00012199818117901795
1386.1507189755903,1386.1507189755903,1.0000285612768105,0.00012198863510671574
1386.1576635704416,1386.1576635704416,0.9998262867133576,0.00012197149582422157
1386.164608165258,1386.164608165258,0.9999880316224827,0.00012198240848989427
1386.1715527600616,1386.1715527600616,0.9998301516203275,0.00012197465176448247
1386.178497354831,1386.178497354831,1.0000902936565217,0.00012198768229168352
1386.185441949566,1386.185441949566,1.0000515296708095,0.00012198426905884613
1386.1923865442536,1386.1923865442536,0.9999339754144781,0.00012198180549220081
1386.199331138918,1386.199331138918,0.9998767002281921,0.0001219758337870178
1386.2062757335832,1386.2062757335832,1.0003217447198751,0.00012199853507121065
1386.2132203282013,1386.2132203282013,1.0000099650023313,0.00012198150945231929
1386.2201649227718,1386.2201649227718,0.999978923908297,0.00012198182973248377
1386.2271095173207,1386.2271095173207,0.9998132171393989,0.00012197286746940398
1386.234054111846,1386.234054111846,0.9999542601971345,0.0001219832386858701
1386.2409987063234,1386.2409987063234,0.9999666579146519,0.00012198806430765352
1386.247943300779,1386.247943300779,1.000031268727293,0.0001219869009024528
1386.2548878951995,1386.2548878951995,1.0000595222392805,0.00012199441617012649
1386.2618324896189,1386.2618324896189,1.000027644822754,0.0001219902571385017
1386.268777083958,1386.268777083958,0.9998862468143741,0.00012198496203902093
1386.275721678297,1386.275721678297,0.9997686114563858,0.00012197630211450239
1386.2826662726004,1386.2826662726004,0.9998879222477418,0.00012198237650172178
1386.289610866869,1386.289610866869,1.0000718787836689,0.0001219865628568255
1386.2965554610917,1386.2965554610917,1.0001801253986735,0.00012199306392002369
1386.303500055314,1386.303500055314,1.0000443903518574,0.0001219849969310768
1386.3104446494888,1386.3104446494888,0.9999094562739869,0.00012197785566527102
1386.3173892436303,1386.3173892436303,1.0000920218093945,0.0001219871128531731
1386.3243338377595,1386.3243338377595,1.0000305388295962,0.00012198571635253674
1386.3312784318414,1386.3312784318414,1.0002958200176013,0.00012199474008204765
1386.3382230258896,1386.3382230258896,0.9999257770825223,0.0001219738045572744
1386.3451676199143,1386.3451676199143,0.9998172222091022,0.00012197121067738419
1386.352112213903,1386.352112213903,0.9999675065361039,0.00012197584173779963
1386.3590568078694,1386.3590568078694,1.0000018828351411,0.00012198483184345634
1386.3668347530559,1386.3668347530559,0.9998076237437207,0.00012197509523742074
1386.3743349144784,1386.3743349144784,1.0001261203904188,0.00012199003207016342
1386.3812795083281,1386.3812795083281,1.0000694034320095,0.00012199123970599193
1386.388224102155,1386.388224102155,0.9999761586563156,0.00012198420513407631
1386.3951686959463,1386.3951686959463,1.0000470754995852,0.00012198344523432918
1386.4021132897374,1386.4021132897374,0.9998963845761892,0.0001219770304370704
1386.4090578834591,1386.4090578834591,0.9999575392511033,0.00012197774289311733
1386.4160024771695,1386.4160024771695,1.0000199076132095,0.00012198615936771466
1386.4229470708324,1386.4229470708324,1.0000257850820302,0.00012198883156951988
1386.4298916644843,1386.4298916644843,1.0001209714396946,0.00012199186050326832
1386.4368362580904,1386.4368362580904,1.000097405026241,0.00012199412441622163
1386.4437808516834,1386.4437808516834,0.999891207973622,0.00012197866650103129
1386.4507254452303,1386.4507254452303,1.0000002143595244,0.00012198425003447108
1386.4576700387315,1386.4576700387315,0.9999419816902492,0.00012198104701631907
1386.4646146322314,1386.4646146322314,0.9997958061529222,0.00012196867575237663
1386.4715592256969,1386.4715592256969,1.0001085757216808,0.00012199226040912752
1386.4785038191396,1386.4785038191396,1.0000502712512707,0.000121988331122509
1386.4854484125237,1386.4854484125237,1.000093019248473,0.00012198902851320536
1386.4923930058953,1386.4923930058953,1.0000959050256644,0.00012199204709935088
1386.4993375992215,1386.4993375992215,0.9998097021160983,0.00012197728644244199
1386.5062821925244,1386.5062821925244,1.000129343779255,0.00012199165619318126
1386.5132267858035,1386.5132267858035,1.0000268812414232,0.0001219883862490025
1386.5201713790127,1386.5201713790127,0.9999977350571239,0.00012198796743602832
1386.5271159722229,1386.5271159722229,0.9999097101358705,0.00012198112934921612
1386.5340605654317,1386.5340605654317,1.0000818016663482,0.00012198907159180509
1386.541005158571,1386.541005158571,0.9999414437322789,0.00012198379975787593
1386.5479497516883,1386.5479497516883,0.9997933131287692,0.00012197119616920809
1386.5548943447811,1386.5548943447811,0.999920763050764,0.00012197918620770903
1386.562394505272,1386.562394505272,1.0000517125977697,0.00012198713843512081
1386.570172449458,1386.570172449458,1.000269969781952,0.000122001284490778
1386.5771170424346,1386.5771170424346,1.0000058893547321,0.00012198187502858175
1386.5840616353755,1386.5840616353755,0.9999698528068282,0.00012198022462274794
1386.5910062282942,1386.5910062282942,0.9999668738375377,0.00012197513758257258
1386.5979508212126,1386.5979508212126,1.0000260345926875,0.00012198233440288886
1386.6048954140613,1386.6048954140613,0.9999306717695884,0.00012197250372910761
1386.6118400068976,1386.6118400068976,1.0000651333169146,0.00012198712324227139
1386.6187845996885,1386.6187845996885,0.999997593211144,0.00012198784115271787
1386.6257291924676,1386.6257291924676,0.999896932505842,0.00012198231602263638
1386.6326737851991,1386.6326737851991,1.0000313520909303,0.00012198746491444644
1386.6396183779082,1386.6396183779082,1.0001733782706606,0.00012199808891671781
1386.6465629705942,1386.6465629705942,0.9999438171367414,0.0001219808564516614
1386.6535075632207,1386.6535075632207,0.9998188385237622,0.00012197258676540756
1386.6604521558486,1386.6604521558486,1.0000958340455348,0.00012198581464343029
1386.667396748418,1386.667396748418,0.9999612805825514,0.00012197978074411124
1386.6743413409636,1386.6743413409636,1.0000182269132387,0.0001219798404123968
1386.681285933486,1386.681285933486,1.0000460386134615,0.00012198588730798026
1386.6882305259621,1386.6882305259621,1.0000316853067246,0.00012198435023335007
1386.6951751184267,1386.6951751184267,0.9999763611248863,0.00012197842059940096
1386.7021197108438,1386.7021197108438,0.999845878233358,0.00012197225186544143
1386.7090643032504,1386.7090643032504,1.0001357739403176,0.00012199133358191025
1386.7160088955873,1386.7160088955873,0.9999623675996071,0.00012197717533986799
1386.7229534879232,1386.7229534879232,0.9998723089196482,0.0001219720240819022
1386.7298980802475,1386.7298980802475,1.0000919074270245,0.00012198696189344889
1386.736842672515,1386.736842672515,1.000146359897339,0.00012198899177304032
1386.7437872647577,1386.7437872647577,1.00002865698641,0.00012198180378809706
1386.7507318569656,1386.7507318569656,1.0000535599764884,0.00012198203709480395
1386.7576764491394,1386.7576764491394,0.9999435197488662,0.00012198106965909518
1386.7646210412781,1386.7646210412781,0.9998957068167643,0.0001219770468221264
1386.7721212007564,1386.7721212007564,1.0000242116983602,0.00012198163359648364
1386.7798991438822,1386.7798991438822,0.999866128126536,0.00012198041056873589
1386.7868437359277,1386.7868437359277,1.0001216046930357,0.00012199013224002458
1386.7937883279494,1386.7937883279494,0.9999157652461717,0.00012197402588391187
1386.8007329199247,1386.8007329199247,0.9999123555962633,0.00012197721934836365
1386.8076775118773,1386.8076775118773,1.0002746892163212,0.00012200383843501569
1386.8146221038064,1386.8146221038064,0.9998320910589307,0.00012197343556222956
1386.821566695688,1386.821566695688,1.0000623856421438,0.00012198623370546379
1386.8285112875474,1386.8285112875474,1.0000612751052222,0.00012199102823141207
1386.835455879372,1386.835455879372,0.9999410721003184,0.00012198503335553377
1386.8424004711603,1386.8424004711603,1.0001365218588278,0.00012199223217226769
1386.849345062915,1386.849345062915,0.9998271396394367,0.00012197722698195714
1386.8562896546694,1386.8562896546694,0.9998514346202079,0.00012197591797278044
1386.8632342463538,1386.8632342463538,1.0002078286035405,0.00012199786557631675
1386.8701788380379,1386.8701788380379,0.9999630548739129,0.00012198218619991722
1386.877123429676,1386.877123429676,0.999982176882121,0.00012198511852260187
1386.8840680212793,1386.8840680212793,0.9999657276714974,0.00012198298046896636
1386.891012612858,1386.891012612858,1.0000555784399683,0.00012198897696188342
1386.8979572044032,1386.8979572044032,1.0000637891008366,0.00012198344078759771
1386.9049017959017,1386.9049017959017,1.00004823126183,0.00012198575309176644
1386.911846387423,1386.911846387423,0.9997380353216873,0.00012196877955268828
1386.918790978839,1386.918790978839,0.9999825586968976,0.00012198161055233605
1386.925735570268,1386.925735570268,1.0001967319985532,0.0001219901986819355
1386.9326801616614,1386.9326801616614,1.000047622329141,0.00012198488365062812
1386.9396247530192,1386.9396247530192,1.0000807376161482,0.00012198497311881397
1386.946569344343,1386.946569344343,0.9998599836767939,0.00012196545602606264
1386.9535139356435,1386.9535139356435,0.9999786278890233,0.00012197270782311272
1386.9604585268974,1386.9604585268974,0.9998779221561586,0.00012197213238107416
1386.967403118139,1386.967403118139,0.9999033830098734,0.00012197479142245468
1386.974347709323,1386.974347709323,1.000036002339805,0.00012198562433441136
1386.9824034350718,1386.9824034350718,1.0001785702104375,0.00012199592445772871
1386.9896258098665,1386.9896258098665,1.0002273974192575,0.0001219944548192559
1386.9965704009692,1386.9965704009692,1.0004163741075123,0.00012201339231849625
1387.0035149920373,1387.0035149920373,0.9998756745826327,0.0001219806401438417
1387.010459583069,1387.010459583069,0.9999202888193853,0.0001219801894774626
1387.0174041740897,1387.0174041740897,0.9998364719107264,0.00012197897583897785
1387.0243487650646,1387.0243487650646,0.9997418246706274,0.0001219702631764978
1387.031293356004,1387.031293356004,0.9998678012547494,0.00012197711204680233
1387.038237946931,1387.038237946931,0.9998232626451562,0.00012197178251372035
1387.0451825378125,1387.0451825378125,1.0002587344223228,0.0001220002126441278
1387.0521271286475,1387.0521271286475,1.0001142437976727,0.00012198635998815778
1387.0590717194816,1387.0590717194816,1.000115411043417,0.00012198810371303565
1387.066016310258,1387.066016310258,1.0002083653525342,0.00012198896774739483
1387.072960901023,1387.072960901023,1.000176747702995,0.00012199217468240167
1387.0799054917413,1387.0799054917413,0.9999651084356094,0.00012197137401241722
1387.0868500824356,1387.0868500824356,0.9996813209941345,0.00012195447539847988
1387.093794673096,1387.093794673096,0.9999818458573735,0.0001219719333551571
1387.100739263733,1387.100739263733,0.9999254472280356,0.00012197427350594152
1387.1076838543459,1387.1076838543459,0.9999568466102475,0.00012197621835150578
1387.1146284448891,1387.1146284448891,1.0000443233524001,0.00012197857795773933
1387.1215730354331,1387.1215730354331,0.9999092318418006,0.00012196589800219223
1387.128517625942,1387.128517625942,1.000214187855105,0.00012199302783068747
1387.135462216415,1387.135462216415,1.000067628839114,0.00012197941054018611
1387.142406806866,1387.142406806866,0.999959386392262,0.00012197478655823794
1387.1493513972703,1387.1493513972703,0.9999806408211851,0.00012197899301782384
1387.1562959876505,1387.1562959876505,0.9998432089494855,0.00012196594894684268
1387.1632405780074,1387.1632405780074,1.0000486125500836,0.00012198333637689453
1387.1701851683188,1387.1701851683188,0.9999972335807857,0.00012197571609633736
1387.1771297586179,1387.1771297586179,1.0001448579183485,0.00012198115816805886
1387.184074348858,1387.184074348858,1.0001627859876507,0.00012198519883999039
1387.1910189390758,1387.1910189390758,1.000043485512601,0.00012198098498536066
1387.1979635292705,1387.1979635292705,0.9998418885975161,0.00012196927211643133
1387.2049081194414,1387.2049081194414,1.0000239477582444,0.00012197747997961554
1387.2118527095654,1387.2118527095654,1.0000584816187126,0.00012197587843395632
1387.2187972996667,1387.2187972996667,0.9999329002110618,0.00012197386815905804
1387.225741889722,1387.225741889722,1.0000484567472419,0.0001219777003108587
1387.2326864797876,1387.2326864797876,1.0000515914369128,0.00012198386861438548
1387.2396310697725,1387.2396310697725,0.9998553678762804,0.00012196515034796447
1387.2465756597462,1387.2465756597462,1.0001532033922507,0.00012198614295057029
1387.2535202496724,1387.2535202496724,0.9999667875140256,0.00012197855869831502
1387.260464839587,1387.260464839587,0.9999017012415676,0.00012196925544715133
1387.2674094294673,1387.2674094294673,0.999833811337084,0.00012196757983045338
1387.2743540193128,1387.2743540193128,1.000249981992196,0.00012198942693938872
1387.2812986091224,1387.2812986091224,1.0001680013892726,0.00012199002370162156
1387.2882431989206,1387.2882431989206,0.9999670503236542,0.00012198065790911031
1387.2951877886728,1387.2951877886728,0.999807508599719,0.0001219725318951541
1387.3021323784021,1387.3021323784021,0.9999306059829705,0.00012196739991349698
1387.3101881024263,1387.3101881024263,1.0000641950452738,0.00012197880074572437
1387.3187993935942,1387.3187993935942,0.9999889491976385,0.0001219818000847949
1387.325743983207,1387.325743983207,0.9999893533563007,0.00012197655927551492
1387.3337997071035,1387.3337997071035,0.9999823567966152,0.0001219769651731272
1387.3410220802461,1387.3410220802461,1.0001513990478579,0.00012198687467561504
1387.3485222369084,1387.3485222369084,0.9998442732064472,0.00012197219680527325
1387.3563001771352,1387.3563001771352,1.0000837446662456,0.00012198335631827248
1387.363244766584,1387.363244766584,0.999904739606956,0.00012197073375589129
1387.3701893559987,1387.3701893559987,1.0001521348859592,0.00012198328287179839
1387.3771339453665,1387.3771339453665,1.0000330083593922,0.000121977841785968
1387.3840785347222,1387.3840785347222,0.9999114037616769,0.00012196514381650474
1387.3910231240436,1387.3910231240436,0.9999189998621597,0.00012197552972333598
1387.3979677133184,1387.3979677133184,1.000045918342089,0.0001219794970086389
1387.4049123025816,1387.4049123025816,1.0000088810485512,0.00012197880662101013
1387.4118568917975,1387.4118568917975,1.0000145428234013,0.00012197783829392837
1387.4188014810024,1387.4188014810024,0.9999424835797498,0.00012197331011165613
1387.4257460701378,1387.4257460701378,1.0000667320362162,0.00012197706683418174
1387.4326906592723,1387.4326906592723,1.0001553973161605,0.00012198266483477065
1387.4396352483839,1387.4396352483839,0.9999135774820038,0.00012196218194611694
1387.4465798374495,1387.4465798374495,0.9999925731124322,0.00012197905604823319
1387.4535244264796,1387.4535244264796,0.9998925706452371,0.00012196828887240299
1387.4604690154742,1387.4604690154742,0.9998834507996796,0.00012197076515330081
1387.4674136044582,1387.4674136044582,0.9999700664028015,0.00012197446644570131
1387.4743581933953,1387.4743581933953,1.0001556186046858,0.00012198572328900072
1387.4813027822975,1387.4813027822975,1.0002106734747294,0.00012198617714207044
1387.4882473711873,1387.4882473711873,0.9997997761420094,0.00012196568895095343
1387.4951919600317,1387.4951919600317,1.0000331661141062,0.00012197839464124949
1387.502136548841,1387.502136548841,0.999941381522458,0.00012197119494748981
1387.5090811376263,1387.5090811376263,0.9998324662490898,0.0001219667201191186
1387.5160257263656,1387.5160257263656,0.9999646758778384,0.00012197023341248339
1387.5229703151047,1387.5229703151047,0.999818541761288,0.00012196961236607371
1387.5299149037742,1387.5299149037742,1.0002475138263194,0.00012199031250974244
1387.5368594924316,1387.5368594924316,0.999998699970094,0.000121975069502569
1387.5438040810543,1387.5438040810543,1.0000660208261667,0.00012198556218811743
1387.550748669654,1387.550748669654,1.0000032318328997,0.00012197607289953947
1387.5576932582303,1387.5576932582303,0.9997977042136931,0.00012196090104710804
1387.5646378467359,1387.5646378467359,0.9999324691276105,0.00012196518684713732
1387.5715824352426,1387.5715824352426,1.0001105848728247,0.00012197848556226743
1387.5785270237025,1387.5785270237025,1.0001167466454781,0.00012197672103957948
1387.585471612139,1387.585471612139,1.0001038016289199,0.00012198318349088499
1387.5924162005401,1387.5924162005401,0.9999666720267509,0.00012197406331141387
1387.599360788907,1387.599360788907,0.9999314922935373,0.00012196741447038119
1387.606305377251,1387.606305377251,1.0000746098881277,0.00012196954694903604
1387.6132499655466,1387.6132499655466,0.9999571209823482,0.0001219630452557135
1387.6201945538432,1387.6201945538432,0.9998324792987228,0.00012195490974773071
1387.627139142071,1387.627139142071,1.0000152223814327,0.00012197298076743553
1387.634083730298,1387.634083730298,0.9998668628669739,0.00012197091469982996
1387.6410283184773,1387.6410283184773,0.9999655468439632,0.00012197410975108931
1387.647972906635,1387.647972906635,1.0000790741181658,0.000121981362915984
1387.6549174947456,1387.6549174947456,0.9998910509921458,0.0001219670206536867
1387.6618620828326,1387.6618620828326,1.0001953411621658,0.00012198891467639456
1387.6688066708848,1387.6688066708848,0.9998862145862196,0.00012196889375721764
1387.675751258914,1387.675751258914,0.9999678729229331,0.00012197178047268548
1387.6826958468853,1387.6826958468853,1.0000234602698097,0.00012197812133797122
1387.6896404348554,1387.6896404348554,0.9999962450005734,0.0001219690358510206
1387.6965850227912,1387.6965850227912,1.0000423899916655,0.00012197593635674236
1387.703529610681,1387.703529610681,1.0002233220240722,0.00012198822667493768
1387.7104741985474,1387.7104741985474,1.0000210988474023,0.00012197445110661877
