time,time,flux,flux_err
1354.1126998494929,1354.1126998494929,1.000421022442674,0.0006985567266966677
1354.1214962546728,1354.1214962546728,0.9995068071461192,0.000698245358211299
1354.1291352384724,1354.1291352384724,1.000302133567835,0.0006375285191391586
1354.136079769387,1354.136079769387,0.9989953163361773,0.0006371031530942765
1354.143024300534,1354.143024300534,1.0009146549901424,0.000637522481295044
1354.1499688319143,1354.1499688319143,1.0006297251856682,0.0006373394873902388
1354.1569133634807,1354.1569133634807,0.9992865824170751,0.0006370093353306307
1354.1638578952568,1354.1638578952568,0.9995138005559285,0.0006369933565418836
1354.1708024272423,1354.1708024272423,1.0007701214088713,0.0006372551012740783
1354.1777469594376,1354.1777469594376,1.0002091547042071,0.000637152850021804
1354.1846914918187,1354.1846914918187,0.9988749098518832,0.0006366007247128034
1354.1916360243863,1354.1916360243863,0.9999108242175592,0.0006368288573605418
1354.198580557187,1354.198580557187,0.9999104801652603,0.0006369673609971182
1354.2055250901503,1354.2055250901503,1.000340629561355,0.0006369848616550492
1354.212469623323,1354.212469623323,0.9996127491715423,0.0006369241320793567
1354.2194141567059,1354.2194141567059,1.00025912195836,0.0006368656088442419
1354.2263586902511,1354.2263586902511,0.9994103735896699,0.0006368701326589977
1354.2333032239599,1354.2333032239599,0.9997810524657759,0.0006369255319913956
1354.2402477578776,1354.2402477578776,1.0012330558571634,0.0006370876764029366
1354.247192291982,1354.247192291982,0.9986118137414357,0.000636695062236054
1354.2541368262955,1354.2541368262955,1.0001473154258138,0.0006369902159639057
1354.2610813607262,1354.2610813607262,1.000121081277139,0.0006368303352569008
1354.268025895389,1354.268025895389,1.0001412580138902,0.000636865529533597
1354.2749704301687,1354.2749704301687,1.000256767097113,0.0006368468929024675
1354.2819149651575,1354.2819149651575,1.0004801116263708,0.0006370072722513955
1354.288859500333,1354.288859500333,0.999853435235836,0.0006368416444638329
1354.2958040356477,1354.2958040356477,0.9995611410542166,0.000636823137235526
1354.3027485711257,1354.3027485711257,0.9990686805388822,0.0006367575992541802
1354.3096931067903,1354.3096931067903,1.0001813769090095,0.0006367227339155156
1354.3166376425709,1354.3166376425709,1.000539839861912,0.0006369365924521588
1354.3235821785843,1354.3235821785843,1.0002378029978178,0.0006368537633203201
1354.330526714714,1354.330526714714,0.9997313828286559,0.0006367396252283693
1354.3374712510072,1354.3374712510072,0.9997781494582035,0.0006366903278491537
1354.3444157874633,1354.3444157874633,1.000094290755254,0.0006367152016784433
1354.3513603240585,1354.3513603240585,1.0005044792715132,0.0006368207868948507
1354.358304860817,1354.358304860817,0.9993118805732614,0.0006365362131245784
1354.3652493977388,1354.3652493977388,1.0006516991701235,0.0006367544655785855
1354.3721939347997,1354.3721939347997,0.9999337089247433,0.0006365781331404174
1354.3791384720241,1354.3791384720241,0.9994353068724682,0.0006365312276068395
1354.386083009365,1354.386083009365,0.9997682398492793,0.0006366266048943998
1354.3930275468217,1354.3930275468217,1.0007628177826642,0.0006368298934482814
1354.3999720844884,1354.3999720844884,1.0002043197202095,0.0006367572223551661
1354.4069166222714,1354.4069166222714,1.000170691570922,0.0006367297095145731
1354.4138611601943,1354.4138611601943,1.0001465824301303,0.0006367302971517599
1354.4208056982336,1354.4208056982336,0.9999639045498785,0.0006366980565590448
1354.4277502364353,1354.4277502364353,0.9992668354823537,0.0006365714952767882
1354.4346947747538,1354.4346947747538,1.000655591620776,0.0006368567363922984
1354.441639313212,1354.441639313212,0.9991079442722228,0.0006366262316762005
1354.4485838518099,1354.4485838518099,0.9999406440114431,0.0006367159509896794
1354.4555283905245,1354.4555283905245,0.9996445526616183,0.0006365815883261933
1354.4624729293785,1354.4624729293785,1.0002867140655654,0.0006367458123545006
1354.4694174683718,1354.4694174683718,1.0005622338405789,0.0006367427347816082
1354.476362007459,1354.476362007459,0.9993534928859932,0.0006365672299227894
1354.4833065467087,1354.4833065467087,1.0002665785074947,0.0006366349284887712
1354.4902510860752,1354.4902510860752,1.000530314580989,0.0006366294679916254
1354.4971956255113,1354.4971956255113,1.0002373336703512,0.0006366878304837336
1354.5041401651335,1354.5041401651335,1.0006533531654662,0.0006367959936713501
1354.511084704803,1354.511084704803,0.9994174649928652,0.0006363759858411593
1354.5180292446344,1354.5180292446344,0.999568838736025,0.0006364603628187862
1354.5249737845595,1354.5249737845595,0.9991419221775798,0.0006362647311985532
1354.531918324648,1354.531918324648,0.999756974404496,0.0006364592772178409
1354.5388628648057,1354.5388628648057,1.0008402432706651,0.0006367363637217933
1354.5458074050798,1354.5458074050798,1.00002992117818,0.0006364591604173244
1354.552751945494,1354.552751945494,0.9998674231778801,0.0006366546433675585
1354.559696486024,1354.559696486024,1.0011410342313036,0.0006370264711220655
1354.5666410266012,1354.5666410266012,1.000151098819799,0.0006367768784101356
1354.5735855672945,1354.5735855672945,0.9996725663071473,0.0006366922674929721
1354.5805301081277,1354.5805301081277,0.999340690265867,0.0006365722319885796
1354.5874746490542,1354.5874746490542,1.0000097467546136,0.0006367591072233524
1354.5944191900733,1354.5944191900733,0.9995804509778349,0.0006365753559513938
1354.6013637312092,1354.6013637312092,1.000270114481449,0.0006368690873415986
1354.6083082724613,1354.6083082724613,0.999807566150337,0.0006367176782733727
1354.6152528137832,1354.6152528137832,1.0004312219247615,0.0006368997761504738
1354.6221973551983,1354.6221973551983,0.999504661608135,0.0006366007148080064
1354.6291418967303,1354.6291418967303,1.000241362786047,0.0006368464651817289
1354.636086438378,1354.636086438378,0.9992949195367604,0.0006364494612739348
1354.6430309800728,1354.6430309800728,1.0009804659996895,0.0006365703454149729
1354.6499755219068,1354.6499755219068,0.9997677225716517,0.0006365338674974796
1354.6569200637878,1354.6569200637878,1.0000030202380334,0.0006364103645959383
1354.6638646057854,1354.6638646057854,1.000025715845765,0.0006364835884939722
1354.6708091478754,1354.6708091478754,1.0000909647803193,0.0006363695539437316
1354.677753690059,1354.677753690059,0.9995966047020888,0.0006364732206922228
1354.6846982323354,1354.6846982323354,1.0002093560558314,0.0006365116909828215
1354.691642774682,1354.691642774682,0.9994246115203577,0.0006364191651376101
1354.6985873171218,1354.6985873171218,1.0008107774271733,0.0006367519041241307
1354.7055318596545,1354.7055318596545,0.9998101628589857,0.0006364808015523651
1354.712476402257,1354.712476402257,0.9991895154395454,0.0006366003206501131
1354.719420944953,1354.719420944953,0.9995477682108224,0.0006366032149876645
1354.7263654877418,1354.7263654877418,1.0000613790148276,0.0006367698763489599
1354.733310030601,1354.733310030601,0.9995762307036482,0.0006366312620678856
1354.740254573529,1354.740254573529,1.0003611643216672,0.0006367565023505566
1354.7471991165507,1354.7471991165507,0.9999821523120817,0.0006365485420091286
1354.7541436596655,1354.7541436596655,1.0006451317682221,0.0006367419372190662
1354.76108820285,1354.76108820285,1.000707286724149,0.000636579713498618
1354.7680327461046,1354.7680327461046,0.9992870863126748,0.000636451161444363
1354.7749772894292,1354.7749772894292,0.9992928136148729,0.0006362479886477391
1354.7819218328234,1354.7819218328234,1.0005242468529265,0.000636618810282974
1354.7888663763108,1354.7888663763108,1.00036583406412,0.0006365360773373984
1354.795810919868,1354.795810919868,0.9999523389812106,0.0006364738294422202
1354.8027554635185,1354.8027554635185,0.9997966161319519,0.0006364381090199637
1354.809700007192,1354.809700007192,0.9991232529887139,0.0006364650883469807
1354.8166445510055,1354.8166445510055,1.0001767499291037,0.0006365905994150968
1354.8235890948185,1354.8235890948185,1.00102404006893,0.0006366582864615483
1354.8305336387718,1354.8305336387718,1.0000481618410273,0.0006364769306505002
1354.8374781827017,1354.8374781827017,0.9996318562761104,0.0006364667676885814
1354.8444227268178,1354.8444227268178,0.9995851363566303,0.0006363950552253433
1354.85136727091,1354.85136727091,1.0003304887030722,0.0006366475614027215
1354.858311815096,1354.858311815096,1.000623109763321,0.0006366100779182338
1354.865256359329,1354.865256359329,0.99918995145838,0.0006362861296896894
1354.8722009036542,1354.8722009036542,1.0002444893570825,0.0006365543917849969
1354.8791454480497,1354.8791454480497,0.9993377383160279,0.0006364997358660853
1354.8860899924916,1354.8860899924916,1.0008137402098911,0.0006367947083535721
1354.8930345369802,1354.8930345369802,0.9995965028224886,0.0006364830083539734
1354.8999790815622,1354.8999790815622,1.0003716227294281,0.0006365027577555035
1354.9069236261898,1354.9069236261898,0.999331437929835,0.0006364590091562626
1354.9138681709112,1354.9138681709112,0.9993340731975382,0.0006363174379768629
1354.9208127156562,1354.9208127156562,1.0006601942968274,0.0006367169244869215
1354.9277572604706,1354.9277572604706,1.0002903533825749,0.0006365368958745384
1354.936090714346,1354.936090714346,0.9998810252394096,0.0006364525184110469
1354.9430352592767,1354.9430352592767,1.00078775468342,0.0006366418301934815
1354.9499798042775,1354.9499798042775,1.0000971052920051,0.0006363092760623663
1354.9569243493247,1354.9569243493247,1.0001152999222704,0.0006367044706083277
1354.9638688944888,1354.9638688944888,0.9996537956806831,0.0006365568805257105
1354.9708134396055,1354.9708134396055,0.9990122576237006,0.0006362608191676157
1354.9777579848628,1354.9777579848628,1.000063064032118,0.0006366122518621909
1354.9847025301199,1354.9847025301199,1.0009125848744795,0.0006366362629879587
1354.9916470754695,1354.9916470754695,1.0000966097681607,0.0006367699178070985
1354.998591620843,1354.998591620843,0.9993408206421972,0.0006365127471110692
1355.005536166286,1355.005536166286,0.9997771915377701,0.0006367345918284236
1355.0124807117759,1355.0124807117759,1.0007956173077166,0.0006368300299128426
1355.0194252573124,1355.0194252573124,0.999374810707376,0.000636399891021183
1355.0263698029416,1355.0263698029416,1.0001718823591272,0.0006365556524521717
1355.0333143485711,1355.0333143485711,0.9999783784819483,0.0006366637672370251
1355.040258894247,1355.040258894247,0.9993213679678821,0.0006363549434652893
1355.047203439993,1355.047203439993,1.0008898511655377,0.0006367901784469206
1355.0541479857852,1355.0541479857852,1.0004759446285676,0.0006365714460319268
1355.0610925316475,1355.0610925316475,0.9997239959770242,0.0006363760082036643
1355.0680370775565,1355.0680370775565,1.0001867912623612,0.0006365084443327384
1355.0749816234652,1355.0749816234652,1.0004477428276013,0.0006364731444634262
1355.0819261694437,1355.0819261694437,1.000578205407025,0.0006364064318127056
1355.0888707155154,1355.0888707155154,0.9992837783466324,0.0006362753632765199
1355.0958152615644,1355.0958152615644,0.9996829027645644,0.0006363351349608381
1355.1027598077058,1355.1027598077058,1.000591443052921,0.0006363605637922487
1355.1097043538475,1355.1097043538475,0.9992633202668049,0.0006363373734445176
1355.1166489000589,1355.1166489000589,1.0003994983294913,0.000636509656992339
1355.123593446317,1355.123593446317,1.0005149744934745,0.0006365485707729216
1355.1305379925986,1355.1305379925986,0.9988470259386798,0.000636362797917673
1355.1374825389491,1355.1374825389491,1.0001554460947866,0.0006363839884435986
1355.144427085301,1355.144427085301,0.9994684401695066,0.0006364612893804678
1355.1513716317684,1355.1513716317684,0.9993964431024173,0.0006363947481669717
1355.1583161782123,1355.1583161782123,0.9995805962271976,0.0006363824067464272
1355.1652607247502,1355.1652607247502,1.0004618116384427,0.0006364416588949761
1355.1722052712873,1355.1722052712873,0.9998888393547208,0.0006365038106174456
1355.1791498178716,1355.1791498178716,1.0003969871277147,0.0006364829443709493
1355.1860943644792,1355.1860943644792,1.0016856791013498,0.0006364653428628638
1355.193038911156,1355.193038911156,0.9996383521495809,0.000636290910382284
1355.199983457857,1355.199983457857,0.9999934379318811,0.0006362233301636226
1355.2069280046035,1355.2069280046035,0.9995660227703409,0.0006362622584182917
1355.2138725513973,1355.2138725513973,0.9997874762114265,0.0006363222841237308
1355.2208170982144,1355.2208170982144,1.0003386890485924,0.0006364592683199303
1355.2277616451008,1355.2277616451008,0.9992022199606424,0.0006364100734979538
1355.2347061919413,1355.2347061919413,1.0000889253079304,0.0006367365756662754
1355.2416507388741,1355.2416507388741,1.0002302654466675,0.0006365703765048316
1355.2485952858774,1355.2485952858774,0.9992449329633224,0.0006363066484518906
1355.2555398328573,1355.2555398328573,0.9998375895142939,0.0006367099686005704
1355.2624843799301,1355.2624843799301,1.0011220617490864,0.0006369378465125686
1355.2694289270032,1355.2694289270032,1.0000600166690246,0.0006365088332487951
1355.276373474076,1355.276373474076,1.0001824671597657,0.0006366105679453176
1355.2833180212422,1355.2833180212422,1.0002992050538653,0.0006366128411689246
1355.2902625684317,1355.2902625684317,0.9983969005718757,0.0006361084401151167
1355.2972071156441,1355.2972071156441,1.0002620533373108,0.000636549184461445
1355.3041516628803,1355.3041516628803,0.9998505471967999,0.0006363889355602769
1355.3110962101396,1355.3110962101396,0.9999088903840597,0.0006362879128712468
1355.3180407574687,1355.3180407574687,1.0002060966701654,0.0006364049342336896
1355.3249853047978,1355.3249853047978,1.0004858685329887,0.0006366173378661553
1355.332763197875,1355.332763197875,1.001143792501074,0.0006366542062526822
1355.3402633090523,1355.3402633090523,1.0001477987907024,0.0006362758886964653
1355.3472078564978,1355.3472078564978,0.9999661109847183,0.0006364899066962301
1355.3541524039665,1355.3541524039665,0.9990533170192007,0.0006363006289783501
1355.3610969514818,1355.3610969514818,0.9995629758560369,0.0006364301824157794
1355.368041498997,1355.368041498997,0.9999726001743825,0.0006364261480588696
1355.3749860465825,1355.3749860465825,1.0001538738928648,0.0006365033107955109
1355.3819305941677,1355.3819305941677,0.999101217888002,0.0006363530698129989
1355.3888751417994,1355.3888751417994,1.0007641785219359,0.000636826004504183
1355.3969308170804,1355.3969308170804,1.0002174566686772,0.0006367164717010009
1355.4041531466587,1355.4041531466587,1.0004487225334542,0.0006366288823757543
1355.4110976943607,1355.4110976943607,1.0003822329008618,0.0006365812867467275
1355.418042242109,1355.418042242109,0.9996044068330073,0.0006364623234145415
1355.4249867898802,1355.4249867898802,0.9988740155614269,0.0006360920339285047
1355.4319313376752,1355.4319313376752,0.9997224737496916,0.0006363682850133545
1355.4388758854932,1355.4388758854932,1.0013948342998862,0.0006367159272669379
1355.4458204333575,1355.4458204333575,0.9998667622741442,0.0006364711819025536
1355.4527649812458,1355.4527649812458,0.9998953496639071,0.0006365394502488871
1355.459709529157,1355.459709529157,0.9996487022903804,0.0006363774696757861
1355.4666540770681,1355.4666540770681,0.9997725155793526,0.0006364485276196452
1355.473598625026,1355.473598625026,1.0007126248927507,0.0006367021234394447
1355.4805431730067,1355.4805431730067,1.0004661926703284,0.0006365874978870657
1355.4874877210345,1355.4874877210345,0.9999415917516961,0.0006364286369780565
1355.4944322690155,1355.4944322690155,0.9989339420821489,0.0006363267117327944
1355.5013768171125,1355.5013768171125,0.9996662709716514,0.0006366154404211118
1355.5083213652101,1355.5083213652101,1.000693145885491,0.0006366627973225328
1355.515265913308,1355.515265913308,0.9989080548820987,0.0006362526085141376
1355.5222104614047,1355.5222104614047,1.0007701330413223,0.0006364986520273502
1355.5291550095722,1355.5291550095722,0.9994552328954673,0.0006363211025495568
1355.5360995577398,1355.5360995577398,1.0009736695388878,0.0006365257428660567
1355.5430441059302,1355.5430441059302,0.9996180887087002,0.0006365038740942621
1355.5499886541675,1355.5499886541675,1.0002667862722805,0.0006365657824563161
1355.5569332024047,1355.5569332024047,1.0003344616346743,0.0006364037842944682
1355.5638777506883,1355.5638777506883,1.0003884036157171,0.0006365617472783851
1355.570822298972,1355.570822298972,0.9995862941601861,0.000636177932420499
1355.5777668472788,1355.5777668472788,0.9995153223687655,0.000636332110486709
1355.5847113956092,1355.5847113956092,0.9994628620788607,0.0006362694007067857
1355.591655943986,1355.591655943986,1.0003109437183508,0.0006366259176053751
1355.5986004923627,1355.5986004923627,0.9997323171325696,0.0006365189559073775
1355.605545040763,1355.605545040763,1.0009942071026976,0.0006365782002359322
1355.6124895891633,1355.6124895891633,0.9996140042496,0.000636318529690199
1355.6194341376097,1355.6194341376097,1.0002666676407774,0.0006366441915266312
1355.6263786860566,1355.6263786860566,1.0001034133443505,0.0006365839288373983
1355.6333232345266,1355.6333232345266,1.00035918104271,0.000636434753490571
1355.640267783066,1355.640267783066,0.999746961959076,0.0006363579097097509
1355.6472123315596,1355.6472123315596,0.9996665446036633,0.0006363784042959137
1355.6541568800997,1355.6541568800997,0.9998200026905707,0.0006364179390655881
1355.6611014286857,1355.6611014286857,0.9992790550530849,0.0006364666824542322
1355.6680459772722,1355.6680459772722,0.9999252441799987,0.0006365837764585163
1355.6749905258353,1355.6749905258353,1.0005822300103726,0.0006366303562951618
1355.6819350744913,1355.6819350744913,0.9999189139084608,0.000636416346682739
1355.688879623078,1355.688879623078,1.000180534147103,0.000636276428845527
1355.6958241717573,1355.6958241717573,1.0001167612179251,0.0006364694605089225
1355.7027687204368,1355.7027687204368,1.0005952489794672,0.0006366767382060446
1355.7097132691165,1355.7097132691165,0.9999696144206013,0.0006363078231447485
1355.7166578178426,1355.7166578178426,0.9996783197678102,0.0006362008521021013
1355.723602366592,1355.723602366592,0.9992752009219231,0.0006362012248388612
1355.730546915318,1355.730546915318,1.0001801941579012,0.0006364966070307832
1355.7374914640675,1355.7374914640675,1.0009641388966755,0.0006366192714301701
1355.7458249226224,1355.7458249226224,0.99920242615208,0.0006363492094282142
1355.7527694714418,1355.7527694714418,1.000427012881551,0.0006365584412114422
1355.7597140202377,1355.7597140202377,0.9998072772605548,0.0006366600550104307
1355.7666585690802,1355.7666585690802,1.000029612450205,0.0006365640320017062
1355.7736031179454,1355.7736031179454,0.9995892050322872,0.0006365776444293801
1355.780547666812,1355.780547666812,0.9999694100220257,0.0006364722088211841
1355.7874922156775,1355.7874922156775,1.0002328672397776,0.000636585387713697
1355.79443676459,1355.79443676459,0.9997908111441175,0.0006364985546077936
1355.8013813135253,1355.8013813135253,1.000004021080479,0.0006366359184780761
1355.8083258624379,1355.8083258624379,1.0007130802439128,0.0006366465177965092
1355.815270411397,1355.815270411397,0.9999214079673692,0.0006367969273111458
1355.8222149603794,1355.8222149603794,0.9998152621100193,0.0006365768526504126
1355.8291595093378,1355.8291595093378,1.0001817411978067,0.0006365757698917811
1355.8361040583204,1355.8361040583204,1.0003529081901188,0.0006365191356340555
1355.843048607349,1355.843048607349,0.9993036988394683,0.0006365186631312195
1355.8499931563779,1355.8499931563779,0.9991591830660195,0.0006363055466875079
1355.8569377054064,1355.8569377054064,1.0003648427247502,0.0006366684789388773
1355.8638822544585,1355.8638822544585,0.9998807206462782,0.0006366297477993527
1355.870826803534,1355.870826803534,1.0006683383557284,0.0006367646614448583
1355.8777713526329,1355.8777713526329,0.9999106168072972,0.0006364640767568491
1355.884715901731,1355.884715901731,1.0006536808451876,0.0006366691861204843
