time,time,flux,flux_err
1517.3673565511333,1517.3673565511333,1.0006830114826002,0.00013315802341392225
1517.375967772904,1517.375967772904,1.0001959084387508,0.00013026736089403226
1517.383190088207,1517.383190088207,0.9999488146606401,0.00012807831856937517
1517.3901346223106,1517.3901346223106,0.9997450026211414,0.00012616058974719032
1517.3970791569727,1517.3970791569727,0.9997530462592168,0.00012441959444719241
1517.4054125985667,1517.4054125985667,0.9997875136594983,0.00012256677273167837
1517.4123571336017,1517.4123571336017,0.9999502716674558,0.0001211566716190219
1517.4193016689155,1517.4193016689155,1.0001516996066306,0.00011986831003411257
1517.4262462044155,1517.4262462044155,1.0001382122564884,0.00011868254335693906
1517.4331907401024,1517.4331907401024,1.000010797700166,0.00011759198589859614
1517.440135276161,1517.440135276161,0.9998318456113958,0.00011657855788533517
1517.4470798124064,1517.4470798124064,1.0002023927272694,0.00011564441918801959
1517.4540243487452,1517.4540243487452,0.9997488591716719,0.00011477234439305729
1517.4609688853625,1517.4609688853625,0.9997772330896103,0.0001139691966403136
1517.467913422167,1517.467913422167,1.000136522940948,0.00011322984217658107
1517.4748579591574,1517.4748579591574,1.000028615608913,0.00011253795016523368
1517.4818024963338,1517.4818024963338,1.0001015861355014,0.00011187901132812766
1517.4887470336969,1517.4887470336969,1.0001585696349395,0.00011124099671523866
1517.495691571246,1517.495691571246,1.0000025043369767,0.00011063789022616754
1517.5026361089808,1517.5026361089808,0.9999064129968789,0.00011006003561882976
1517.50958064681,1517.50958064681,1.000098471575891,0.0001095321012434684
1517.5165251847316,1517.5165251847316,0.9997952259543827,0.00010900819181525183
1517.5234697228393,1517.5234697228393,1.0001174258598278,0.0001084981276067557
1517.530414261227,1517.530414261227,1.0000473145227844,0.00010804851554086935
1517.5373587997071,1517.5373587997071,1.0000131051499963,0.00010759523536629993
1517.5443033381875,1517.5443033381875,1.0000237647561212,0.00010717387458517701
1517.5512478768546,1517.5512478768546,0.9998485658287795,0.00010675545166587524
1517.5581924157075,1517.5581924157075,1.0000603957096241,0.00010639280132913995
1517.5651369545608,1517.5651369545608,1.0000671317954848,0.00010603190106225645
1517.572081493693,1517.572081493693,1.00001708683251,0.00010565964292300617
1517.5790260326387,1517.5790260326387,0.9999160789442545,0.00010533607281034507
1517.585970571958,1517.585970571958,0.9998174813654022,0.00010500927761976856
1517.5929151112764,1517.5929151112764,1.0001062643520504,0.0001047024846562218
1517.5998596505947,1517.5998596505947,1.0000870770908328,0.00010441441925626395
1517.6068041903795,1517.6068041903795,0.9999130437874788,0.0001041316444320359
1517.6137487297908,1517.6137487297908,1.0000723130644347,0.0001038774464124494
1517.6206932694822,1517.6206932694822,0.999899959419626,0.00010362606230792225
1517.6276378092666,1517.6276378092666,1.0000674079440202,0.00010339885460695309
1517.634582349144,1517.634582349144,0.9999886892218367,0.00010316104506132687
1517.6415268890214,1517.6415268890214,0.9999905692012423,0.00010295547369582672
1517.6484714289923,1517.6484714289923,1.0000084990768014,0.00010274808571142954
1517.6554159690556,1517.6554159690556,0.9999722241328941,0.00010254334815551802
1517.6623605091195,1517.6623605091195,1.0000438904398137,0.00010235347944765827
1517.6693050491833,1517.6693050491833,1.0000499822469682,0.00010216680734800282
1517.6762495894332,1517.6762495894332,0.9999843252288493,0.0001019740477001369
1517.6831941296832,1517.6831941296832,1.000030158446044,0.00010180087739233349
1517.690138670026,1517.690138670026,1.0000064608558892,0.00010161710451323349
1517.6970832102763,1517.6970832102763,0.9999694714260846,0.00010144500030581435
1517.7040277507124,1517.7040277507124,0.9999806654049328,0.00010127251356415996
1517.7109722909624,1517.7109722909624,0.9998803059971768,0.0001010897956200585
1517.7179168314917,1517.7179168314917,1.000112875949837,0.00010094561231754186
1517.724861371928,1517.724861371928,1.0000142216789374,0.00010077661653133244
1517.7318059124575,1517.7318059124575,0.9999807114865356,0.00010061849085900967
1517.7387504528938,1517.7387504528938,0.9999703762262216,0.00010046564898447529
1517.7456949934233,1517.7456949934233,0.9999814148378633,0.00010031611240207028
1517.7526395341386,1517.7526395341386,1.000135271209288,0.00010018109739374104
1517.7595840745748,1517.7595840745748,0.9999237148896034,0.00010003614662316138
1517.7665286151973,1517.7665286151973,1.0001025614216694,9.989645307723334e-05
1517.77347315582,1517.77347315582,0.9999632217643828,9.975998041533653e-05
1517.7804176963496,1517.7804176963496,0.9999650692013529,9.96242854448957e-05
1517.787362236972,1517.787362236972,0.9999812827516464,9.949552104796712e-05
1517.794306777594,1517.794306777594,1.0000031237665836,9.93520188264493e-05
1517.8012513182168,1517.8012513182168,0.9998728369802672,9.923461540794725e-05
1517.8081958588393,1517.8081958588393,0.9999295566049998,9.910159146477002e-05
1517.8151403993688,1517.8151403993688,1.0008326430971015,9.900247292086459e-05
1517.8220849400846,1517.8220849400846,1.0008305850907147,9.883979622285599e-05
1517.8290294806136,1517.8290294806136,1.0002945522827922,9.869107591197828e-05
1517.8359740213295,1517.8359740213295,0.9995869458409283,9.857374472985502e-05
1517.8429185617656,1517.8429185617656,1.0015165986396881,9.856432826526103e-05
1517.849863102388,1517.849863102388,1.0018337544264093,9.848309935214718e-05
1517.8568076430106,1517.8568076430106,1.0007946477476886,9.834630910453786e-05
1517.863752183447,1517.863752183447,1.0002923318039116,9.823303474061145e-05
1517.870696723976,1517.870696723976,0.999653166892372,9.814041655430378e-05
1517.8776412644124,1517.8776412644124,0.9997027401631566,9.807758730220602e-05
1517.884585804942,1517.884585804942,0.9996583464856281,9.801467679811857e-05
1517.8915303453778,1517.8915303453778,0.9999005017490722,9.797527751369117e-05
1517.8984748859075,1517.8984748859075,0.999886026223689,9.791559462557884e-05
1517.9054194261576,1517.9054194261576,0.9997812248539184,9.786722623395322e-05
1517.9123639665936,1517.9123639665936,0.9999844040414502,9.783249189785458e-05
1517.9193085069369,1517.9193085069369,1.0000238369203038,9.779198179078607e-05
1517.9262530472797,1517.9262530472797,1.0000740922473335,9.775092759064681e-05
1517.9331975875298,1517.9331975875298,0.9999852777930526,9.77270576934982e-05
1517.94014212778,1517.94014212778,1.0001742230214286,9.769025228237077e-05
1517.9481977944138,1517.9481977944138,0.9999431718276155,9.763124002754717e-05
1517.9554201161436,1517.9554201161436,1.0000520611777595,9.760682653256147e-05
1517.9623646563002,1517.9623646563002,0.9998227943152498,9.756437071270727e-05
1517.9693091963638,1517.9693091963638,1.0001198739109882,9.753841702457904e-05
1517.9762537364277,1517.9762537364277,0.999997402045089,9.749266211214263e-05
1517.9831982763983,1517.9831982763983,1.0000961875853764,9.747712677721816e-05
1517.990142816369,1517.990142816369,0.9999781467848816,9.743528451167845e-05
1517.9970873562465,1517.9970873562465,0.9997970650240928,9.739496912209298e-05
1518.0040318961237,1518.0040318961237,1.000107215134331,9.737328822592202e-05
1518.010976435908,1518.010976435908,0.9998666309726552,9.733141433967147e-05
1518.0179209756927,1518.0179209756927,1.0001107043894135,9.729429941711893e-05
1518.0248655153832,1518.0248655153832,1.0000332366016336,9.728444907634474e-05
1518.031810055075,1518.031810055075,1.0000650789715673,9.725787199142002e-05
1518.0387545946728,1518.0387545946728,1.0000296718487194,9.720966774508164e-05
1518.0456991342708,1518.0456991342708,1.000035825199286,9.717894782584279e-05
1518.052643673776,1518.052643673776,0.9999252023121533,9.715462164186275e-05
1518.0595882130947,1518.0595882130947,1.0000035291099747,9.712496026015178e-05
1518.0665327524127,1518.0665327524127,0.9999610737656534,9.708453565013335e-05
1518.073477291732,1518.073477291732,1.000144836607758,9.707372894315966e-05
1518.0804218310504,1518.0804218310504,0.9999829491863089,9.70428089729652e-05
1518.087366370369,1518.087366370369,0.9999609757417727,9.698946400318722e-05
1518.0943109096875,1518.0943109096875,0.9999508517690764,9.698100041494535e-05
1518.1012554485405,1518.1012554485405,0.9999026568450997,9.694149190843309e-05
1518.108199987673,1518.108199987673,0.9998747890552492,9.69091751733943e-05
1518.115144526619,1518.115144526619,1.0001094236058077,9.68908274471265e-05
1518.1220890655652,1518.1220890655652,1.0002031298720184,9.686271204977851e-05
1518.1290336043253,1518.1290336043253,0.9999721704246957,9.683487377939561e-05
1518.1359781430851,1518.1359781430851,0.9999356253831986,9.679982324025134e-05
1518.1429226818445,1518.1429226818445,1.0002856176011528,9.67785056413915e-05
1518.1498672205114,1518.1498672205114,1.0001854238101957,9.674576518709738e-05
1518.1568117590855,1518.1568117590855,0.9997020841351159,9.667727202020292e-05
1518.1637562975652,1518.1637562975652,1.0001819544752204,9.6669537848591e-05
1518.1707008359529,1518.1707008359529,0.9999896506557489,9.664178576055762e-05
1518.1776453743403,1518.1776453743403,0.9998489280174845,9.662339032316311e-05
1518.1845899126342,1518.1845899126342,1.0002138167495274,9.660553666465847e-05
1518.1915344509284,1518.1915344509284,0.999935420038167,9.657145377912889e-05
1518.1984789891299,1518.1984789891299,1.0000344414296038,9.652849473683517e-05
1518.2054235270512,1518.2054235270512,1.0001512148668346,9.654948432093389e-05
1518.212368065066,1518.212368065066,1.000181461888783,9.652162586651618e-05
1518.2193126029877,1518.2193126029877,0.9996911587986664,9.64856511635029e-05
1518.2262571409094,1518.2262571409094,1.0000431579766351,9.648024496934313e-05
1518.233201678645,1518.233201678645,1.0000683920601052,9.647531946661271e-05
1518.2401462163803,1518.2401462163803,0.9999402168415543,9.645392056641294e-05
1518.2470907540226,1518.2470907540226,0.9998790595355572,9.643788710277527e-05
1518.2540352914784,1518.2540352914784,1.0000197098884647,9.645313648339179e-05
1518.2609798290275,1518.2609798290275,1.0000241932382854,9.644168647237129e-05
1518.26820214787,1518.26820214787,0.9999803971881216,9.64174363412596e-05
1518.2762578111513,1518.2762578111513,0.9999444079405366,9.639935354066748e-05
1518.2832023484211,1518.2832023484211,0.9999373855842751,9.640816355144657e-05
1518.2901468854113,1518.2901468854113,1.0000715345859024,9.637183075027225e-05
1518.297091422402,1518.297091422402,1.000126077355078,9.638436197481852e-05
1518.3040359593924,1518.3040359593924,1.000079640600879,9.635147426916989e-05
1518.3109804963824,1518.3109804963824,0.9999293129660216,9.634202921507686e-05
1518.3193139406778,1518.3193139406778,0.9999004691112446,9.632849365407009e-05
1518.3262584772954,1518.3262584772954,1.0001967905154556,9.630780758239534e-05
1518.3332030139134,1518.3332030139134,1.0000494985448187,9.630115084371817e-05
1518.340147550438,1518.340147550438,1.000020093450131,9.628634462991797e-05
1518.3470920869624,1518.3470920869624,0.9999484370516042,9.627264288514294e-05
1518.3540366233012,1518.3540366233012,1.0000063199323885,9.62622652691346e-05
1518.3609811596396,1518.3609811596396,1.000079825193828,9.623973487773142e-05
1518.3679256957917,1518.3679256957917,1.0000245771955996,9.623536707300984e-05
1518.374870231944,1518.374870231944,0.9997313164440044,9.620200699943518e-05
1518.3818147680026,1518.3818147680026,1.0000191865329036,9.619981799348487e-05
1518.3887593037823,1518.3887593037823,1.0000482007556375,9.619498906947502e-05
1518.3957038398416,1518.3957038398416,1.0001155407449118,9.615929607553566e-05
1518.4026483754346,1518.4026483754346,1.0000066411094808,9.61529393080132e-05
1518.4095929112143,1518.4095929112143,1.0000246606861949,9.612421110956163e-05
1518.4173707910604,1518.4173707910604,0.9998682515675433,9.610261444277416e-05
1518.4248708893335,1518.4248708893335,0.9999838877970919,9.610381568781064e-05
1518.4318154248338,1518.4318154248338,1.0001453809869036,9.608666886561006e-05
1518.4387599600548,1518.4387599600548,0.9999782959130762,9.607375360073004e-05
1518.445704495275,1518.445704495275,1.000134202383497,9.605394111367505e-05
1518.4526490304963,1518.4526490304963,0.9998798662756107,9.605139929603366e-05
1518.459593565531,1518.459593565531,0.9999915093959337,9.604477819094748e-05
1518.4679270073116,1518.4679270073116,0.9999774253834082,9.599575513457457e-05
1518.4748715423461,1518.4748715423461,0.9999121603406189,9.602340204718288e-05
1518.4818160770083,1518.4818160770083,1.0000016234600848,9.601320281381284e-05
1518.4887606116702,1518.4887606116702,0.9999854027850933,9.599799376732742e-05
1518.4957051463323,1518.4957051463323,1.0001278005159375,9.599885993068014e-05
1518.5026496805285,1518.5026496805285,0.9999697525453698,9.598318474918589e-05
1518.5095942150972,1518.5095942150972,0.9999288643475284,9.597210114135741e-05
1518.5165387492939,1518.5165387492939,1.000010276668956,9.597256907097239e-05
1518.52348328349,1518.52348328349,0.9998374038042591,9.594429724845744e-05
1518.5304278175934,1518.5304278175934,1.0002205546367882,9.596923563375767e-05
1518.5373723516032,1518.5373723516032,1.0000223570995717,9.59623257087405e-05
1518.5443168855202,1518.5443168855202,1.0001490535785027,9.597036491607879e-05
1518.5512614192514,1518.5512614192514,1.000038488976024,9.595870199895466e-05
1518.5582059530748,1518.5582059530748,0.999877887223532,9.594035177572792e-05
1518.5651504865264,1518.5651504865264,1.0000681837036094,9.595149825149252e-05
1518.5720950200707,1518.5720950200707,0.9998264688283456,9.595139419508208e-05
1518.5790395535219,1518.5790395535219,0.9998636925328475,9.593827034749584e-05
1518.5859840868802,1518.5859840868802,0.9999691630195683,9.592761162944423e-05
1518.5929286201454,1518.5929286201454,1.0001578841276237,9.59464952632643e-05
1518.5998731532236,1518.5998731532236,0.9999645581655077,9.593925263036165e-05
1518.606817686303,1518.606817686303,1.0001454756677937,9.595653419181023e-05
1518.6137622191952,1518.6137622191952,0.9998889167915245,9.592118146346484e-05
1518.6207067520875,1518.6207067520875,0.9999466344361881,9.59462761238088e-05
1518.6276512848872,1518.6276512848872,1.0000916919064364,9.592595809099642e-05
1518.6345958175932,1518.6345958175932,1.000122474321463,9.596141645991748e-05
1518.64154035002,1518.64154035002,0.9998563711649883,9.595679266639449e-05
1518.648484882354,1518.648484882354,0.9999653328796241,9.594233490702034e-05
1518.6554294146877,1518.6554294146877,0.9999978179348752,9.593399512327404e-05
1518.6623739470213,1518.6623739470213,1.0000314007583804,9.594941194007539e-05
1518.6693184793553,1518.6693184793553,1.000073393472303,9.594388073142803e-05
1518.6762630113162,1518.6762630113162,0.9999822059204082,9.593887293045528e-05
1518.6832075433704,1518.6832075433704,0.9999989760135316,9.594198056508946e-05
1518.6901520752388,1518.6901520752388,0.9999867363650463,9.595330629999028e-05
1518.6970966070135,1518.6970966070135,0.9999307294976161,9.595366892583209e-05
1518.7040411386024,1518.7040411386024,1.0000705109469779,9.595573052766527e-05
1518.710985670284,1518.710985670284,1.0000793249551374,9.595227235586534e-05
1518.7179302016864,1518.7179302016864,0.9998599924791701,9.591967958979141e-05
1518.7248747329959,1518.7248747329959,0.9998832847637313,9.591823927474231e-05
1518.7318192643047,1518.7318192643047,1.0000478501157937,9.594206740271931e-05
1518.7387637954282,1518.7387637954282,1.000089855994054,9.594433208627939e-05
1518.745708326551,1518.745708326551,1.0000032317168972,9.595102739476982e-05
1518.7526528574876,1518.7526528574876,1.0001392810471554,9.594854515892153e-05
1518.7595973883315,1518.7595973883315,1.0000317603207844,9.594904262659901e-05
1518.766541919175,1518.766541919175,0.9999301923833818,9.592209785198481e-05
1518.7734864497386,1518.7734864497386,1.0000161844480524,9.593433605612155e-05
1518.7804309803037,1518.7804309803037,0.9999040980175418,9.592220856015368e-05
1518.7873755107744,1518.7873755107744,0.9998900403082424,9.594052415225264e-05
1518.7943200411519,1518.7943200411519,1.0000733932040093,9.593694216208442e-05
1518.801264571344,1518.801264571344,0.999885103376025,9.590746102555843e-05
1518.8082091013491,1518.8082091013491,1.0000060824235468,9.593104180435364e-05
1518.8151536315409,1518.8151536315409,0.9999652571116989,9.593236412188412e-05
1518.82209816136,1518.82209816136,0.9999737865036131,9.592851949221725e-05
1518.8290426913657,1518.8290426913657,1.000101204926653,9.592461698031653e-05
1518.8359872210917,1518.8359872210917,1.0010601554557033,9.597553720776466e-05
1518.8429317507246,1518.8429317507246,1.0010934120794102,9.59657160313976e-05
1518.8498762802642,1518.8498762802642,1.000105300143856,9.59359217781874e-05
1518.8568208097108,1518.8568208097108,0.9999046211757279,9.593669636930656e-05
1518.8637653390645,1518.8637653390645,0.9998359454168047,9.592597898447678e-05
1518.8707098683244,1518.8707098683244,0.9998616823880175,9.593549327715774e-05
1518.8776543973986,1518.8776543973986,0.9999872258555754,9.592580900451491e-05
1518.8845989263796,1518.8845989263796,0.999842189483944,9.593770863522724e-05
1518.8915434552675,1518.8915434552675,1.0000706687642889,9.594424173216133e-05
1518.8984879840623,1518.8984879840623,0.9999881800207671,9.591806609718538e-05
1518.9054325128568,1518.9054325128568,1.0000471377795703,9.594125796808255e-05
1518.9123770414653,1518.9123770414653,1.0002031381122722,9.592578002125375e-05
1518.9193215699802,1518.9193215699802,1.0000586583691076,9.593476070381615e-05
1518.9262660983095,1518.9262660983095,1.0000555328376142,9.592778711422209e-05
1518.9332106266384,1518.9332106266384,0.9997972276126991,9.592756237873927e-05
1518.9401551547812,1518.9401551547812,1.000001670113541,9.59315943825424e-05
1518.9470996828309,1518.9470996828309,0.9998984069514048,9.59125190228558e-05
1518.9540442109733,1518.9540442109733,0.999936895808857,9.592356922318577e-05
1518.960988738651,1518.960988738651,1.0001052643398642,9.590622242714086e-05
1518.967933266328,1518.967933266328,1.00001843905673,9.591194448686304e-05
1518.974877794005,1518.974877794005,0.9999032027924859,9.591224360809584e-05
1518.981822321682,1518.981822321682,1.0000449398721791,9.591904114334118e-05
1518.9887668491733,1518.9887668491733,1.0002761119100032,9.593356466447808e-05
1518.9957113764772,1518.9957113764772,0.999936862479432,9.589189892555973e-05
1519.0026559036892,1519.0026559036892,0.9999839124507277,9.590144382236646e-05
1519.0096004308075,1519.0096004308075,0.9999025194960727,9.590197164216895e-05
1519.0165449579251,1519.0165449579251,0.9999574732676342,9.591200042452116e-05
1519.0234894847647,1519.0234894847647,0.9998869586744279,9.590659153944443e-05
1519.0304340116031,1519.0304340116031,0.9997803489995102,9.588530738791087e-05
1519.037378538349,1519.037378538349,1.0001385339816373,9.59114096060643e-05
1519.0443230649087,1519.0443230649087,1.000377623530107,9.591846100457428e-05
1519.0512675913747,1519.0512675913747,1.000657164325896,9.592836480583694e-05
1519.0582121178413,1519.0582121178413,1.0002915339001361,9.592331080007725e-05
1519.0651566441215,1519.0651566441215,0.9999064074774436,9.590348069417741e-05
1519.0721011703083,1519.0721011703083,0.9999058081465095,9.591129208928368e-05
1519.0790456964023,1519.0790456964023,1.0000669532037858,9.590494854842313e-05
1519.0859902223099,1519.0859902223099,1.0000478371341979,9.590579152615016e-05
1519.0929347482172,1519.0929347482172,1.0000303057294553,9.59063137863287e-05
1519.099879274032,1519.099879274032,0.9997500100829149,9.590282138528764e-05
1519.10682379966,1519.10682379966,0.999948318833279,9.590552453724075e-05
1519.113768325195,1519.113768325195,0.9998654664769171,9.591599076130056e-05
1519.120712850544,1519.120712850544,1.000106552974902,9.592649737812225e-05
1519.1276573758923,1519.1276573758923,1.0001622672297252,9.591947783997837e-05
1519.1346019012412,1519.1346019012412,0.9999308920212456,9.591243331352346e-05
