time,time,flux,flux_err
1354.1129208583545,1354.1129208583545,0.9997609163881483,0.0004174959941013891
1354.1217172538527,1354.1217172538527,0.9997995035151178,0.0004175878274799625
1354.129356229189,1354.129356229189,1.0000563316182594,0.00038122724339984817
1354.1363007524433,1354.1363007524433,1.0000732981521478,0.0003812514520076133
1354.143245275907,1354.143245275907,1.000406720341684,0.0003812677852275717
1354.1501897995572,1354.1501897995572,0.9998935787680245,0.0003812146919788419
1354.1571343233936,1354.1571343233936,1.0004946214161845,0.00038128387198422647
1354.16407884744,1354.16407884744,0.9998155753138571,0.00038114463657723996
1354.1710233716954,1354.1710233716954,1.0002025006965516,0.00038124334021650934
1354.177967896114,1354.177967896114,1.0003549375937486,0.00038124182918726403
1354.184912420742,1354.184912420742,0.9992439444726715,0.00038107004136764256
1354.1918569455797,1354.1918569455797,1.00082664203307,0.0003812939800775587
1354.1988014706035,1354.1988014706035,1.000394544356974,0.00038129274847971005
1354.2057459957673,1354.2057459957673,0.999533525874552,0.00038111176964581003
1354.2126905211633,1354.2126905211633,0.9992743756032363,0.00038110384627272766
1354.2196350467464,1354.2196350467464,0.9997702242687959,0.00038115611309234306
1354.2265795724684,1354.2265795724684,1.0003081768406077,0.0003812665630271895
1354.2335240983775,1354.2335240983775,1.0000916061942298,0.00038126219388133476
1354.2404686244722,1354.2404686244722,1.0001214957968512,0.00038122790331016727
1354.2474131507533,1354.2474131507533,1.0004925229331936,0.00038124345858234784
1354.2543576772437,1354.2543576772437,0.9996837897816789,0.0003811518970285407
1354.261302203828,1354.261302203828,1.0002338787473803,0.0003812555460007679
1354.2682467305744,1354.2682467305744,0.999411603165312,0.0003810603154291398
1354.275191257531,1354.275191257531,1.00024711442384,0.0003812142165227234
1354.2821357846503,1354.2821357846503,0.9998806797499548,0.00038114573351136384
1354.2890803119562,1354.2890803119562,1.0000680407278495,0.0003811686596564544
1354.2960248393779,1354.2960248393779,1.000112886939386,0.00038115435851723134
1354.3029693670094,1354.3029693670094,0.9999102268000343,0.0003811336504123906
1354.3099138947346,1354.3099138947346,1.0000150527134413,0.00038111428078514107
1354.3168584226687,1354.3168584226687,0.9998576105752767,0.00038107085009414564
1354.323802950696,1354.323802950696,1.0003666964715874,0.0003810641383511285
1354.3307474789563,1354.3307474789563,1.0000171879992252,0.00038103524750007664
1354.3376920073097,1354.3376920073097,0.9995886245607528,0.0003810288638242395
1354.3446365358263,1354.3446365358263,0.9999784443429792,0.00038105712650451007
1354.351581064482,1354.351581064482,1.0001752256392242,0.0003811003664369888
1354.3585255933476,1354.3585255933476,1.000404434857946,0.00038108494364926237
1354.36547012226,1354.36547012226,0.9995376598845496,0.000381037766616229
1354.3724146513348,1354.3724146513348,0.9996780772691298,0.00038102844790093775
1354.3793591806198,1354.3793591806198,1.0002334315056036,0.0003811397428239299
1354.386303709951,1354.386303709951,1.0004554000999022,0.00038117345470113694
1354.3932482394916,1354.3932482394916,0.999891750086894,0.0003810339075279318
1354.400192769149,1354.400192769149,0.9999848992843571,0.00038105836242877534
1354.407137298946,1354.407137298946,1.0001058390589004,0.00038101865083783827
1354.4140818288827,1354.4140818288827,0.9997060582401603,0.00038102299828767015
1354.421026358936,1354.421026358936,0.9998063084989077,0.00038104364198638296
1354.427970889105,1354.427970889105,1.0001971054548349,0.00038116607634810997
1354.434915419414,1354.434915419414,1.0006078238268477,0.00038116712015086714
1354.4418599498397,1354.4418599498397,0.9998383379183997,0.0003810496064796325
1354.4488044804282,1354.4488044804282,1.000221837191943,0.0003810598168368846
1354.455749011087,1354.455749011087,0.9998955205176152,0.00038102048852600403
1354.462693541908,1354.462693541908,1.000062868386951,0.00038105498434284305
1354.4696380728456,1354.4696380728456,1.0000364937587671,0.00038099456300834725
1354.4765826039002,1354.4765826039002,0.9999198416712481,0.0003810338915937534
1354.4835271350707,1354.4835271350707,0.9999871458435081,0.00038099946632006007
1354.4904716663577,1354.4904716663577,0.9999549827716313,0.00038101345036892144
1354.4974161977611,1354.4974161977611,1.000181960669487,0.0003810169886756373
1354.504360729281,1354.504360729281,0.9996516400711173,0.0003809174005222676
1354.5113052609177,1354.5113052609177,0.9999951558140638,0.00038095468176008304
1354.5182497926003,1354.5182497926003,1.0000387438107752,0.0003809810134723285
1354.5251943244925,1354.5251943244925,1.0004095085748912,0.0003810003172153646
1354.5321388564785,1354.5321388564785,1.0001300756684508,0.00038096727160900646
1354.5390833885335,1354.5390833885335,1.0001858872837666,0.000380977377137384
1354.5460279207055,1354.5460279207055,0.9996670092284881,0.0003809184757262986
1354.5529724529938,1354.5529724529938,0.9999134808354728,0.0003809255755492161
1354.5599169853747,1354.5599169853747,0.999985669325676,0.000380985319777061
1354.5668615178495,1354.5668615178495,0.999468226178778,0.00038088048094674705
1354.5738060504634,1354.5738060504634,1.0003785394425415,0.00038100727538505227
1354.5807505831476,1354.5807505831476,1.000322285901873,0.0003810048862207046
1354.5876951159485,1354.5876951159485,0.99949482897979,0.00038084861750336857
1354.594639648795,1354.594639648795,1.0000237543109567,0.00038093659425524794
1354.601584181805,1354.601584181805,0.9999028695678633,0.0003809437282532555
1354.6085287148849,1354.6085287148849,1.0003022529166592,0.0003809784681154871
1354.6154732480577,1354.6154732480577,1.0000191972688444,0.00038092723515455266
1354.622417781347,1354.622417781347,0.9997797864425181,0.0003809090286544035
1354.6293623147067,1354.6293623147067,1.0004229619153961,0.0003809852061531018
1354.6363068482053,1354.6363068482053,0.9996786973793957,0.00038088697959309597
1354.643251381751,1354.643251381751,1.0005806355625033,0.00038103593921636175
1354.6501959153427,1354.6501959153427,1.0003110275477245,0.00038101129912701136
1354.6571404490746,1354.6571404490746,0.9993708330160157,0.0003808465494387634
1354.6640849828768,1354.6640849828768,0.999808650090827,0.0003809193456938713
1354.6710295167943,1354.6710295167943,0.99994087687002,0.00038093538344577226
1354.677974050759,1354.677974050759,0.9996015606995059,0.0003809025103654324
1354.6849185848864,1354.6849185848864,0.9999299093651104,0.0003809653540078245
1354.691863119014,1354.691863119014,1.0005449425821584,0.00038103794962496143
1354.6988076532116,1354.6988076532116,0.9997708327593111,0.00038094704953302034
1354.7057521875488,1354.7057521875488,1.000540737799239,0.0003810508915139918
1354.7126967219556,1354.7126967219556,1.0001829555298176,0.00038097885506340097
1354.7196412564094,1354.7196412564094,0.9999000861588716,0.0003809769433903596
1354.7265857909558,1354.7265857909558,0.99994000442383,0.0003809515707287003
1354.7335303256427,1354.7335303256427,0.9994402600243362,0.00038088683679751224
1354.740474860352,1354.740474860352,0.9995208327665681,0.0003809041437403689
1354.7474193950848,1354.7474193950848,1.000874063244856,0.0003811357036168653
1354.7543639299574,1354.7543639299574,0.9994676152610005,0.00038090026918259504
1354.7613084648765,1354.7613084648765,1.0004191093788968,0.0003810212582896945
1354.7682529999122,1354.7682529999122,1.0004225809581453,0.0003810433837290672
1354.7751975349945,1354.7751975349945,0.9994891345157816,0.0003809290056465942
1354.7821420701232,1354.7821420701232,0.9999024943406025,0.00038095961116339924
1354.7890866053451,1354.7890866053451,1.0003063349094456,0.0003809524225690824
1354.79603114066,1354.79603114066,0.9999435250834905,0.0003809622384876688
1354.8029756760218,1354.8029756760218,0.9997467879082576,0.0003809381700455902
1354.8099202114531,1354.8099202114531,1.0000250116655405,0.0003809805648731998
1354.8168647469545,1354.8168647469545,0.9999295335900273,0.0003809742699973633
1354.8238092825022,1354.8238092825022,1.0001319452580892,0.00038100346752208293
1354.8307538181434,1354.8307538181434,0.9998184584852063,0.00038093634740219784
1354.837698353831,1354.837698353831,1.000108672849728,0.00038093398897495734
1354.8446428896118,1354.8446428896118,1.0004540069062287,0.00038098659390051117
1354.8515874254851,1354.8515874254851,0.9999842546525051,0.00038094430302124176
1354.858531961359,1354.858531961359,0.9996758339222325,0.0003808768339400111
1354.8654764972798,1354.8654764972798,1.0003472695856614,0.00038100527398469183
1354.872421033293,1354.872421033293,0.9998503068223809,0.00038088608159676194
1354.8793655693767,1354.8793655693767,0.9996021429238198,0.00038089982842341106
1354.8863101055297,1354.8863101055297,0.999861904487695,0.00038087634416788954
1354.893254641706,1354.893254641706,0.9998302674156404,0.00038086702297948394
1354.9001991779528,1354.9001991779528,1.0000936881095486,0.0003808879459555895
1354.9071437142686,1354.9071437142686,1.000112870642871,0.00038092928097149375
1354.9140882506777,1354.9140882506777,1.000189588312509,0.0003809107262096176
1354.9210327870176,1354.9210327870176,1.0004123308802064,0.00038104112271023833
1354.9279773235899,1354.9279773235899,1.0006324529037927,0.00038100462265144657
1354.9363107674067,1354.9363107674067,1.000065463539697,0.0003808799869253418
1354.9432553040256,1354.9432553040256,0.999367444582418,0.00038080418025654807
1354.950199840668,1354.950199840668,0.9995093603880015,0.0003808118757352996
1354.9571443773798,1354.9571443773798,0.9999440970282725,0.00038087920045535336
1354.9640889141617,1354.9640889141617,1.0000827712808777,0.0003808592918346953
1354.9710334509666,1354.9710334509666,0.9998097304026645,0.00038088716558701063
1354.977977987842,1354.977977987842,1.0000908321278519,0.00038096940543911825
1354.9849225247635,1354.9849225247635,0.9999896994769554,0.00038089100629611815
1354.9918670617778,1354.9918670617778,1.0003231957492473,0.0003809805121642871
1354.9988115988158,1354.9988115988158,0.999657720264374,0.00038081964196109665
1355.005756135854,1355.005756135854,1.0004215894321955,0.0003808744108593046
1355.0127006729617,1355.0127006729617,1.0004107028774958,0.0003809688900495443
1355.0196452101163,1355.0196452101163,0.9990624786573552,0.00038070527127035005
1355.0265897473637,1355.0265897473637,1.000392872888796,0.00038089920070890195
1355.0335342846115,1355.0335342846115,1.0001774764166629,0.00038086756318953565
1355.0404788219519,1355.0404788219519,0.9998040786404131,0.00038085038261804767
1355.0474233592927,1355.0474233592927,0.9997762876339502,0.0003808152297359455
1355.054367896703,1355.054367896703,1.0002001985144529,0.00038092748026150264
1355.0613124341603,1355.0613124341603,0.999902887305136,0.000380859519344529
1355.0682569716405,1355.0682569716405,0.9999789024171741,0.0003808997023344007
1355.0752015091673,1355.0752015091673,1.000126142468003,0.0003809593830976589
1355.082146046764,1355.082146046764,1.0003863017571026,0.00038094759882082373
1355.089090584384,1355.089090584384,0.999832917626249,0.00038084087132076767
1355.0960351220742,1355.0960351220742,0.999848291648769,0.00038091430255465504
1355.1029796597873,1355.1029796597873,1.0002148640023332,0.00038091206663205324
1355.109924197524,1355.109924197524,0.9993276035626442,0.00038078370674434007
1355.11686873533,1355.11686873533,1.0004729740460658,0.0003809418946007879
1355.1238132731596,1355.1238132731596,0.9996949917715552,0.00038088708397182
1355.1307578110595,1355.1307578110595,1.00008952187262,0.00038093569056620806
1355.1377023489815,1355.1377023489815,0.9996723952761073,0.00038083863451896394
1355.1446468869049,1355.1446468869049,1.0006816436879027,0.0003810295224706291
1355.151591424897,1355.151591424897,1.0002177289827265,0.0003810266646565732
1355.1585359629594,1355.1585359629594,0.9999129625283478,0.0003809573768989952
1355.165480501022,1355.165480501022,0.9999417106046911,0.00038090597568785724
1355.1724250391308,1355.1724250391308,0.9998274359973248,0.00038087842527596567
1355.1793695772865,1355.1793695772865,0.9996073775747277,0.00038088303872289223
1355.1863141154888,1355.1863141154888,1.0000331727177172,0.0003809194993339344
1355.1932586536907,1355.1932586536907,0.9997684045086634,0.0003808687291642536
1355.2002031919396,1355.2002031919396,1.0000951128869375,0.00038095861560693363
1355.2071477302347,1355.2071477302347,0.9997308489339668,0.00038088875734274604
1355.2140922685767,1355.2140922685767,1.0009224699322112,0.000381083453082645
1355.2210368069186,1355.2210368069186,1.000502110091655,0.000380980257919385
1355.2279813453301,1355.2279813453301,1.0000038486385674,0.00038093087929850936
1355.2349258837653,1355.2349258837653,0.9990374125613727,0.0003807594669325621
1355.2418704222466,1355.2418704222466,1.00042253414862,0.00038099749193902884
1355.2488149607282,1355.2488149607282,0.9994683667368104,0.0003807913002987475
1355.2557594992797,1355.2557594992797,0.9997930271431782,0.00038089465968142456
1355.2627040378543,1355.2627040378543,0.9998943262614522,0.0003809173695639655
1355.2696485764288,1355.2696485764288,1.0004603084242536,0.00038097282329535765
1355.2765931150734,1355.2765931150734,1.0003285315070072,0.0003809900309613291
1355.2835376537178,1355.2835376537178,1.0000809119200427,0.0003809782670703553
1355.2904821924324,1355.2904821924324,1.0002494967765752,0.0003809333563545283
1355.2974267311465,1355.2974267311465,0.9994193814814452,0.00038074793537478546
1355.3043712699307,1355.3043712699307,1.0004456568434712,0.0003809700856414182
1355.311315808715,1355.311315808715,1.0003433406357523,0.00038097292969578323
1355.3182603474993,1355.3182603474993,0.9996551056149944,0.00038085024313884533
1355.3252048863533,1355.3252048863533,1.000264049093707,0.0003809810118212825
1355.3329827699079,1355.3329827699079,0.9999540273190133,0.0003809663089274627
1355.3404828719115,1355.3404828719115,1.0001058644868688,0.0003809575782700546
1355.3474274108587,1355.3474274108587,1.0000447555006047,0.0003809082430585687
1355.354371949829,1355.354371949829,0.9995907133117672,0.0003808966390429972
1355.361316488823,1355.361316488823,0.9997652095091158,0.00038090957771204343
1355.3682610278397,1355.3682610278397,0.9998290937456996,0.0003808450106747779
1355.3752055669036,1355.3752055669036,1.0002451105399746,0.00038095717204468147
1355.3821501059672,1355.3821501059672,1.000211526254053,0.0003808973637163505
1355.3890946450774,1355.3890946450774,1.0004198674051132,0.00038096484188286525
1355.3971503104863,1355.3971503104863,1.000021045263004,0.0003808924433143804
1355.404372631217,1355.404372631217,1.0001944128081721,0.00038091191164615283
1355.4113171703975,1355.4113171703975,0.9994765399144795,0.0003808344450727778
1355.4182617096242,1355.4182617096242,1.000323283143174,0.00038095069387466277
1355.4252062488506,1355.4252062488506,0.9996197659254168,0.0003807753888767846
1355.4321507881007,1355.4321507881007,0.9996679005855924,0.0003809036395915976
1355.4390953273737,1355.4390953273737,0.9998452551423977,0.00038086435333740596
1355.4460398667165,1355.4460398667165,1.0006728702880172,0.0003809635183308492
1355.452984406083,1355.452984406083,1.0004132646819612,0.00038095014065648496
1355.4599289454495,1355.4599289454495,0.9994433921929641,0.00038081762405509263
1355.4668734848158,1355.4668734848158,0.9996436969703032,0.00038084263871322147
1355.473818024182,1355.473818024182,0.9998563945999092,0.00038088420219676644
1355.480762563641,1355.480762563641,1.0005708011636298,0.00038096806813324116
1355.4877071030776,1355.4877071030776,1.0000324704552506,0.0003808342542644562
1355.4946516425603,1355.4946516425603,1.000261845834333,0.0003809183018402277
1355.501596182066,1355.501596182066,1.0001720102623515,0.00038096995567447764
1355.5085407215952,1355.5085407215952,0.9999324962190729,0.0003809039009864673
1355.515485261125,1355.515485261125,1.0000208193540217,0.00038097152019567367
1355.5224298007001,1355.5224298007001,1.0001389950626707,0.0003810429123425255
1355.529374340276,1355.529374340276,0.9994085144668288,0.00038091811904374025
1355.5363188798988,1355.5363188798988,0.9996013478330527,0.0003808715006544506
1355.5432634194976,1355.5432634194976,1.0005967351214786,0.00038109581381510403
1355.5502079591668,1355.5502079591668,0.9995183112333281,0.00038091000108283953
1355.5571524988359,1355.5571524988359,0.9997692892766524,0.00038092344418174637
1355.564097038528,1355.564097038528,1.000205711480336,0.0003809219151813021
1355.5710415782437,1355.5710415782437,1.0000354645481768,0.000380958433620982
1355.5779861179822,1355.5779861179822,0.9995630715078766,0.0003809025529752935
1355.584930657721,1355.584930657721,1.0002463248170144,0.0003808797026950439
1355.5918751975066,1355.5918751975066,1.0008521231314502,0.0003809794997258134
1355.5988197372685,1355.5988197372685,0.9998746403778653,0.000380860134016538
1355.6057642771007,1355.6057642771007,1.0001183654089374,0.0003808803090960611
1355.6127088169094,1355.6127088169094,1.0003909369636523,0.00038088512077324115
1355.6196533567643,1355.6196533567643,0.9995534240479664,0.00038078917607800176
1355.626597896643,1355.626597896643,0.9993146058895267,0.0003807264618497546
1355.6335424364984,1355.6335424364984,0.9998567440440931,0.00038083801205433625
1355.6404869764233,1355.6404869764233,1.0002985709012804,0.0003808932755764563
1355.6474315163719,1355.6474315163719,1.0002690738769888,0.0003809033741307943
1355.6543760563204,1355.6543760563204,0.9999416063009227,0.0003808684872511689
1355.6613205962683,1355.6613205962683,0.9999453802025464,0.0003808433561663194
1355.6682651362169,1355.6682651362169,1.0000912948941572,0.0003808813479644304
1355.6752096761652,1355.6752096761652,1.0003684514153302,0.00038092420955815234
1355.6821542161833,1355.6821542161833,0.9995325425133684,0.00038078517000430444
1355.6890987561785,1355.6890987561785,0.9998806983583874,0.0003808480644064142
1355.696043296243,1355.696043296243,1.0001747668419516,0.00038091198154522406
1355.7029878362846,1355.7029878362846,0.9999242114772044,0.00038085477255658264
1355.7099323763493,1355.7099323763493,1.0001294079256038,0.00038086390423733795
1355.7168769164607,1355.7168769164607,0.9993804386928243,0.000380725449433742
1355.723821456549,1355.723821456549,1.0002349719375143,0.00038091237895078586
1355.7307659966602,1355.7307659966602,1.000236872841652,0.00038091266381237303
1355.737710536795,1355.737710536795,1.000114974389308,0.0003809237994501016
1355.7460439849656,1355.7460439849656,0.9999040207284302,0.0003808560463929064
1355.752988525147,1355.752988525147,1.0005340887240133,0.0003809820348347013
1355.7599330653281,1355.7599330653281,1.000537842267831,0.00038102919561668026
1355.7668776055093,1355.7668776055093,0.9995286420702669,0.0003808649107747672
1355.7738221457366,1355.7738221457366,0.9994273868144458,0.0003808618805261518
1355.780766685965,1355.780766685965,1.0000275831122125,0.00038093983527506846
1355.787711226216,1355.787711226216,0.9997275964613657,0.00038087439961075064
1355.7946557664438,1355.7946557664438,0.9999144134362583,0.0003808902444747895
1355.8016003066946,1355.8016003066946,0.9999084198176167,0.00038087727756707025
1355.8085448469924,1355.8085448469924,0.9997938149144099,0.0003808859314584261
1355.8154893872902,1355.8154893872902,1.0009122494504819,0.00038104474368696166
1355.822433927588,1355.822433927588,1.0003094977994151,0.00038096503607891073
1355.8293784679086,1355.8293784679086,0.9995575767440457,0.00038081697831723237
1355.836323008253,1355.836323008253,0.9999925451841355,0.0003808223624526043
1355.8432675485735,1355.8432675485735,0.9999649430089084,0.000380895024692326
1355.8502120889646,1355.8502120889646,1.0000764740358845,0.0003809273507964575
1355.8571566293085,1355.8571566293085,0.9998400135540745,0.00038081724213530403
1355.8641011696993,1355.8641011696993,1.0001667309484819,0.0003809001312340828
1355.8710457100904,1355.8710457100904,1.0004538937924639,0.00038099388293190916
