time,time,flux,flux_err
1410.9066028500597,1410.9066028500597,1.0000058543157695,0.000136416007908713
1410.9135474380196,1410.9135474380196,1.0001628119792891,0.0001364310127025243
1410.9204920260734,1410.9204920260734,1.0001337669421932,0.00013642246158616396
1410.927436614196,1410.927436614196,0.999896494266407,0.00013641708733247752
1410.9343812023656,1410.9343812023656,0.9999506615913365,0.00013639991668332025
1410.9413257906285,1410.9413257906285,0.9999574220741089,0.00013641154751208392
1410.9482703790304,1410.9482703790304,0.9999798377841831,0.0001364004395346397
1410.9552149674337,1410.9552149674337,0.9997301172353559,0.00013638961705743596
1410.9632706900973,1410.9632706900973,0.999990067932717,0.00013638090504401534
1410.9777154344056,1410.9777154344056,0.9998507753286818,0.00013629605106285793
1410.9871600750716,1410.9871600750716,1.000064141464985,0.0001363985154380309
1410.9957713652161,1410.9957713652161,0.9997871721284639,0.00013630318468491585
1411.0066049239074,1411.0066049239074,1.0003857583359639,0.0001364025707460723
1411.0135495128918,1411.0135495128918,0.9998175540437039,0.00013637059548304964
1411.0204941019224,1411.0204941019224,1.0000264842188495,0.00013637302009060205
1411.0274386910476,1411.0274386910476,0.9997891948756898,0.0001363557016179007
1411.034383280194,1411.034383280194,1.0000696408450476,0.00013635544138581535
1411.041327869412,1411.041327869412,0.9999007966716228,0.0001363584506548058
1411.0491058093835,1411.0491058093835,1.0002286370030098,0.0001363822185895004
1411.0566059659182,1411.0566059659182,1.00025005605508,0.00013635694535574095
1411.0635505552289,1411.0635505552289,0.9999114318659604,0.00013635049582074637
1411.0704951447253,1411.0704951447253,0.999787297277099,0.00013634851723949684
1411.0774397341993,1411.0774397341993,0.9999814908390731,0.00013633937799957605
1411.0843843237656,1411.0843843237656,0.9997914068667086,0.0001363475739882999
1411.091328913332,1411.091328913332,1.000127497286718,0.000136374792605772
1411.098273502992,1411.098273502992,0.9999829817261359,0.00013638799739790073
1411.1052180926513,1411.1052180926513,1.0000919474540926,0.00013637773622889282
1411.1121626824047,1411.1121626824047,0.9997993834406996,0.0001363381218184144
1411.1191072721574,1411.1191072721574,1.0000996169979843,0.00013639075319129068
1411.12605186198,1411.12605186198,0.9999683125397587,0.0001363271247472988
1411.1329964518263,1411.1329964518263,1.0000047352344148,0.00013636395758425055
1411.1399410417184,1411.1399410417184,1.0000317811311281,0.00013634854464177033
1411.1468856316583,1411.1468856316583,1.000139746777965,0.00013637706533452533
1411.15383022162,1411.15383022162,1.0002692544198182,0.00013638058294795466
1411.1607748116294,1411.1607748116294,0.9997824676720939,0.00013633770865429594
1411.167719401685,1411.167719401685,0.9998505201251344,0.00013631061892802662
1411.1746639917635,1411.1746639917635,0.9998526440523969,0.00013634211181670833
1411.1816085818896,1411.1816085818896,1.0000893484792475,0.0001363566898068093
1411.1885531720611,1411.1885531720611,0.9999064271284908,0.0001363686142649445
1411.1954977622097,1411.1954977622097,1.0000360413020892,0.0001363334763443609
1411.2024423524517,1411.2024423524517,1.0000686474282605,0.00013633764497042515
1411.2093869426928,1411.2093869426928,0.9999285751350744,0.0001363580625260064
1411.2163315329587,1411.2163315329587,1.0001658404019744,0.00013632457181731193
1411.2232761232467,1411.2232761232467,1.0001191706951698,0.00013635773221130253
1411.2302207136051,1411.2302207136051,0.9998364628744069,0.0001363063191087104
1411.2371653039638,1411.2371653039638,0.9998483934463008,0.00013632648107393653
1411.2441098943443,1411.2441098943443,0.9999378857613938,0.00013635672804915733
1411.2510544847503,1411.2510544847503,1.0000317425982075,0.00013636730097197253
1411.2579990752008,1411.2579990752008,1.0001740572579871,0.00013635796526840197
1411.2649436656525,1411.2649436656525,1.0000921272698418,0.00013635676196905975
1411.2718882561505,1411.2718882561505,0.999930137115052,0.00013632255241412256
1411.2788328466713,1411.2788328466713,1.0001404646523677,0.0001363330845621268
1411.2857774371464,1411.2857774371464,0.9998220261827122,0.00013632312650295117
1411.2927220277375,1411.2927220277375,1.000141484790864,0.00013633505284074997
1411.2996666183285,1411.2996666183285,0.9998129793721249,0.0001363141362956106
1411.3066112089195,1411.3066112089195,0.9999338252214841,0.00013634022677904087
1411.3135557995101,1411.3135557995101,1.000039444340865,0.00013636908507282645
1411.3205003901016,1411.3205003901016,1.0000083600673702,0.00013636167741416615
1411.3274449807625,1411.3274449807625,0.9999505625164569,0.00013636600145230704
1411.3343895714002,1411.3343895714002,1.0002997597547338,0.00013633305114553357
1411.3413341620846,1411.3413341620846,1.0000693041863005,0.00013636261971165396
1411.3482787527682,1411.3482787527682,1.000019628062042,0.00013636359594781198
1411.3552233434764,1411.3552233434764,0.9997964515406386,0.00013634038313058882
1411.3621679341834,1411.3621679341834,0.9998946740416738,0.0001363517472319175
1411.3691125249147,1411.3691125249147,0.9999824483617603,0.00013632727681224868
1411.3760571156681,1411.3760571156681,1.0000123889464172,0.00013637177511709127
1411.383001706399,1411.383001706399,0.9999518138454926,0.0001363594900101186
1411.389946297177,1411.389946297177,0.9999991422629384,0.00013634725173703257
1411.3968908879306,1411.3968908879306,0.9999894952363475,0.00013633466964773586
1411.4038354787083,1411.4038354787083,0.9998995626839248,0.0001363409738421919
1411.4107800694853,1411.4107800694853,1.0001945500254616,0.00013634721039510015
1411.4177246603092,1411.4177246603092,1.0002557872540367,0.00013633168621364955
1411.4246692511101,1411.4246692511101,1.0000453128438007,0.00013635453919573205
1411.431613841933,1411.431613841933,0.9996525939732914,0.0001363041648325513
1411.4385584327342,1411.4385584327342,1.000062542725231,0.0001363124482491916
1411.445503023558,1411.445503023558,1.0001827874385174,0.00013634469003766773
1411.4524476144052,1411.4524476144052,0.999944719095992,0.0001363486641859874
1411.4593922052297,1411.4593922052297,0.9998493924853662,0.00013634283192325263
1411.4663367960761,1411.4663367960761,0.9999981643359099,0.0001363430395713435
1411.4732813869243,1411.4732813869243,1.0001421909986743,0.00013636426147169183
1411.4802259777707,1411.4802259777707,0.9996936995225564,0.00013632701392851069
1411.4871705686182,1411.4871705686182,1.0000349270720152,0.00013637145107051377
1411.4941151594653,1411.4941151594653,1.0001554700678275,0.00013638998624840195
1411.5010597503356,1411.5010597503356,1.0000331266825553,0.00013637956965545747
1411.50800434116,1411.50800434116,1.0000127220626835,0.0001363583676378707
1411.5149489320302,1411.5149489320302,0.9999622961147207,0.00013632764015322435
1411.5218935228772,1411.5218935228772,1.0005721089477417,0.0001364245606726657
1411.528838113748,1411.528838113748,1.0002104782273267,0.00013639427728734025
1411.5357827045948,1411.5357827045948,1.0000767540173972,0.0001363430053394695
1411.5427272954425,1411.5427272954425,0.9998492611116184,0.0001363389931556697
1411.5496718862892,1411.5496718862892,0.999963264255635,0.00013634227359881612
1411.55661647716,1411.55661647716,0.9998584172824494,0.00013636425799981486
1411.563561067984,1411.563561067984,1.0001298007644919,0.00013636614514963918
1411.5705056588308,1411.5705056588308,1.0000102540414908,0.00013635728717500986
1411.5774502496783,1411.5774502496783,1.0000056159723845,0.00013634825266775068
1411.5843948405018,1411.5843948405018,1.00000705813479,0.00013636705595378222
1411.5913394313263,1411.5913394313263,1.0000225099612814,0.00013637419430992067
1411.5982840221498,1411.5982840221498,1.0001009454478116,0.00013638952439663912
1411.6052286129739,1411.6052286129739,1.0000056170470963,0.000136373145399533
1411.6121732037745,1411.6121732037745,0.9998281332835928,0.0001363708047310961
1411.6191177945982,1411.6191177945982,0.9999683900866316,0.00013636945501191875
1411.6260623853761,1411.6260623853761,0.999978641757686,0.00013638616770176546
1411.6330069761764,1411.6330069761764,1.0000866774071304,0.00013640688390307952
1411.6399515669539,1411.6399515669539,0.9999466039338998,0.00013638583160015914
1411.6468961577311,1411.6468961577311,1.0001300581000685,0.0001363781491615964
1411.6538407485311,1411.6538407485311,1.000170277639294,0.0001363974641072724
1411.660785339263,1411.660785339263,0.9999074203755699,0.00013638609420096187
1411.6677299300163,1411.6677299300163,0.9998452392399424,0.00013636224695139735
1411.6746745207706,1411.6746745207706,1.0000204747714816,0.00013637626502191038
1411.6816191115017,1411.6816191115017,0.9998960468792243,0.00013634476674658896
1411.6885637022085,1411.6885637022085,0.9998719969304203,0.0001363697028784158
1411.6955082929169,1411.6955082929169,1.0000754783381764,0.00013638804346911214
1411.7024528836234,1411.7024528836234,1.0000326008207725,0.00013636006256263604
1411.7093974743086,1411.7093974743086,1.0000341628016942,0.0001363711213237762
1411.716342064969,1411.716342064969,1.0003771093383456,0.00013641456018925895
1411.7232866556765,1411.7232866556765,0.9999603167417487,0.00013637134971002113
1411.7302312462912,1411.7302312462912,0.9995573527390601,0.0001363654572946804
1411.737175836975,1411.737175836975,1.0002653903643626,0.00013638468537369668
1411.7441204275667,1411.7441204275667,1.0000234437632396,0.00013638746324698262
1411.751065018157,1411.751065018157,0.9999821017975734,0.00013638279837414286
1411.7580096087488,1411.7580096087488,0.9998941719889638,0.00013639958931548237
1411.7649541993392,1411.7649541993392,0.9999575853038261,0.00013640766084768388
1411.7718987899307,1411.7718987899307,1.0000405308817535,0.0001363817581130983
1411.778843380522,1411.778843380522,1.0001324872719572,0.0001364233262291124
1411.785787971066,1411.785787971066,0.9999206703545745,0.00013638206723595186
1411.7927325615879,1411.7927325615879,0.9999304978187737,0.0001363807396621039
1411.7996771520852,1411.7996771520852,0.9996962919071949,0.00013637791487183158
1411.8066217426067,1411.8066217426067,1.0001685551069044,0.00013639270521587755
1411.8135663330818,1411.8135663330818,1.000390712284543,0.00013641434777074556
1411.8205109235555,1411.8205109235555,0.9999004092473018,0.0001363869513621367
1411.8274555140076,1411.8274555140076,1.0000955358638062,0.00013640334221277128
1411.8344001044354,1411.8344001044354,0.9997334356458307,0.00013636295205074353
1411.8413446948405,1411.8413446948405,1.0000173255398503,0.0001363821742811631
1411.848289285222,1411.848289285222,0.9999486866211017,0.00013639066401969704
1411.8552338756265,1411.8552338756265,1.000208220451325,0.00013641279950869618
1411.8621784659854,1411.8621784659854,0.9998876561898472,0.000136383759549373
1411.8691230563195,1411.8691230563195,1.0000042923675196,0.00013639475137256282
1411.8760676466786,1411.8760676466786,0.9998901928960253,0.00013638152077054968
1411.8830122369664,1411.8830122369664,1.0001040099879304,0.0001363841918493726
1411.8899568272784,1411.8899568272784,1.0000263239369207,0.00013639918036077072
1411.8969014175204,1411.8969014175204,0.9999147808641229,0.00013638659002952798
1411.9038460077852,1411.9038460077852,1.0000794847900112,0.00013639294564492585
1411.910790598004,1411.910790598004,0.999826868111812,0.00013637310099393708
1411.9177351882224,1411.9177351882224,1.0000528155021595,0.0001363747629519793
1411.9246797784183,1411.9246797784183,1.0001185317854804,0.00013641373448651043
1411.9316243685898,1411.9316243685898,1.0000679209076426,0.00013640101870122178
1411.9385689587386,1411.9385689587386,1.000128035103711,0.00013639967439951116
1411.9455135488638,1411.9455135488638,0.9998112537917148,0.00013637803644472881
1411.9524581389892,1411.9524581389892,0.9998690172218987,0.00013639902999315585
1411.9594027290452,1411.9594027290452,1.0001618368628287,0.00013642221312872206
1411.966347319147,1411.966347319147,1.0000109918091231,0.00013639191611395407
1411.9732919091564,1411.9732919091564,0.9999496034766298,0.00013638522773819147
1411.9802364991651,1411.9802364991651,0.9998247154883184,0.0001363738510288104
1411.987181089174,1411.987181089174,1.0001436910919745,0.00013640927693529695
1411.9941256791838,1411.9941256791838,1.0000468916620324,0.00013638548938684313
1412.0010702691454,1412.0010702691454,0.9998689610494494,0.00013640025353114718
1412.0080148590853,1412.0080148590853,1.0002223565736552,0.00013641210532442275
1412.0149594489772,1412.0149594489772,0.9998486562121638,0.00013637949601973554
1412.0219040388702,1412.0219040388702,1.0000539313379206,0.0001364013034745477
1412.0288486287395,1412.0288486287395,0.999950789753758,0.00013638603191898035
1412.0357932185852,1412.0357932185852,0.9998846164911841,0.00013636677408307508
1412.042737808385,1412.042737808385,1.000144698959878,0.00013636639921214778
1412.0496823982073,1412.0496823982073,0.9998299451003879,0.00013634312019564205
1412.056626987961,1412.056626987961,1.0001725839759301,0.00013638748675455238
1412.0635715777366,1412.0635715777366,1.000182323368587,0.0001364001401343693
1412.0705161674434,1412.0705161674434,1.000091673277225,0.00013641226605864368
1412.0774607571495,1412.0774607571495,0.9999292700478415,0.00013640352814335053
1412.084405346809,1412.084405346809,1.000011170944419,0.00013637194429205827
1412.0913499364692,1412.0913499364692,0.9997139780864842,0.00013635166452543465
1412.0982945261053,1412.0982945261053,0.9997001982000556,0.00013637040930171982
1412.1052391156727,1412.1052391156727,1.0000326877307448,0.00013639510471729653
1412.112183705262,1412.112183705262,1.000208165975661,0.00013641389230591692
1412.1191282948055,1412.1191282948055,1.0002311408721358,0.00013642624147493256
1412.1260728843488,1412.1260728843488,1.000017727872659,0.0001363931269059752
1412.1330174738223,1412.1330174738223,1.0000973060408325,0.00013639176824851488
1412.1399620633197,1412.1399620633197,0.9999239386037548,0.00013636361324987652
1412.1469066527459,1412.1469066527459,1.0003672448783705,0.00013639715594294488
1412.1538512421732,1412.1538512421732,0.9996878749062248,0.00013637450474738108
1412.1607958316001,1412.1607958316001,0.9999016323876623,0.00013639299335514862
1412.1677404209106,1412.1677404209106,0.9998534056324306,0.00013638618134010342
1412.1746850102677,1412.1746850102677,1.000167282960827,0.0001363964830821664
1412.1816295995782,1412.1816295995782,1.0000220694637565,0.0001364164031627701
1412.1885741888887,1412.1885741888887,1.0001564010594488,0.00013642335810788128
1412.195518778106,1412.195518778106,1.00007370522109,0.00013640750683063937
1412.202463367347,1412.202463367347,0.9998148078472902,0.0001364047428347282
1412.209407956564,1412.209407956564,1.0000145085933192,0.0001364283489874915
1412.2163525457584,1412.2163525457584,1.0000818914781637,0.00013640501727496247
1412.2232971349063,1412.2232971349063,0.9998667399509691,0.00013639051706139526
1412.23024172403,1412.23024172403,0.9999791849163524,0.0001364134933089027
1412.2371863131082,1412.2371863131082,1.0001090730639257,0.00013640989610255708
1412.2441309021851,1412.2441309021851,0.9998276692399098,0.00013638847124492365
1412.2516310583478,1412.2516310583478,0.9999347037336965,0.0001363895082648877
1412.2602423487012,1412.2602423487012,1.0003064081785327,0.00013629116895153747
1412.2699647732477,1412.2699647732477,0.9999783854153179,0.00013633456572607119
1412.2807983319622,1412.2807983319622,0.999964267864684,0.00013630940845884432
1412.2899651893533,1412.2899651893533,1.0001167776121225,0.0001363316649445828
1412.2969097781984,1412.2969097781984,0.999811829873327,0.00013638967563533387
1412.3038543669734,1412.3038543669734,1.0001001976010413,0.00013639000732310576
1412.3107989557714,1412.3107989557714,1.0000226178951537,0.0001363793858271084
1412.3177435445236,1412.3177435445236,0.9998447430246082,0.00013641694893468825
1412.3246881332748,1412.3246881332748,0.9999815215060665,0.00013635778099416754
1412.3316327219804,1412.3316327219804,1.0000460109717122,0.00013642508791997444
1412.3385773106388,1412.3385773106388,1.0001106432764342,0.00013640192796035049
1412.3455218992979,1412.3455218992979,0.9999072288645461,0.0001363610016547748
1412.3524664879096,1412.3524664879096,0.9999539889074569,0.00013632754280372655
1412.3594110764984,1412.3594110764984,1.0000917032667054,0.0001363509742832263
1412.3663556650406,1412.3663556650406,1.0001194913712035,0.00013638807701016683
1412.3733002535596,1412.3733002535596,1.0002477452288443,0.00013642296993674006
1412.3802448420556,1412.3802448420556,0.9999936569952134,0.0001364025895659003
1412.3871894305507,1412.3871894305507,0.9999204634538927,0.00013640986498753097
1412.3941340189535,1412.3941340189535,0.9999324590377026,0.00013640331839577971
1412.4010786073554,1412.4010786073554,0.9999819729177452,0.00013638279784141256
1412.408023195735,1412.408023195735,0.9997549005444227,0.000136369151403937
1412.414967784091,1412.414967784091,1.0000819384428883,0.00013629694773336436
1412.4219123724001,1412.4219123724001,0.9999152358503288,0.00013640086770982967
1412.4288569606636,1412.4288569606636,1.0000267049383869,0.0001364281025572012
1412.4358015489258,1412.4358015489258,1.0001824596922817,0.00013643101302388471
1412.4427461371424,1412.4427461371424,1.000088855892415,0.00013638398664123704
1412.4496907253354,1412.4496907253354,1.0002878548403196,0.0001364018592224596
1412.4566353134817,1412.4566353134817,0.9998833569555486,0.00013636642042681388
1412.4635799016046,1412.4635799016046,1.0000764671266513,0.00013633627309484953
1412.4705244897045,1412.4705244897045,0.9997409265903772,0.00013632919781029213
1412.4774690777579,1412.4774690777579,0.9996099803662135,0.00013625776674883102
1412.4844136658107,1412.4844136658107,0.9999323557833872,0.00013639800779077812
1412.4913582537715,1412.4913582537715,1.0001090736219431,0.00013640935625993392
1412.4983028417544,1412.4983028417544,1.0001119110302361,0.0001363599990096451
1412.5052474296917,1412.5052474296917,1.0002029613932653,0.00013641243424180287
1412.5121920176052,1412.5121920176052,1.0000633751136667,0.00013638759999806346
1412.519136605472,1412.519136605472,0.9999481527413534,0.0001364103725911796
1412.5260811932926,1412.5260811932926,0.9999974268877843,0.00013641383943210206
1412.5330257811124,1412.5330257811124,1.0000602985452112,0.0001364006581427661
1412.5399703689104,1412.5399703689104,0.9999242886590649,0.0001363965339067899
1412.5469149566138,1412.5469149566138,0.9998759568816272,0.00013638614233354247
1412.5538595443882,1412.5538595443882,0.9999494626548525,0.0001364058720495141
1412.5608041320688,1412.5608041320688,1.0001733922239802,0.00013640767520039853
1412.567748719633,1412.567748719633,0.999830829029553,0.00013640042115846177
1412.5746933072908,1412.5746933072908,1.000316462204832,0.00013640975635532382
1412.5816378948546,1412.5816378948546,0.9996825136531247,0.00013638518768214943
1412.588582482396,1412.588582482396,1.00014877849431,0.00013640918269020394
1412.5955270699367,1412.5955270699367,0.9999892970052786,0.00013639043804135076
1412.6024716574084,1412.6024716574084,0.9999236687670248,0.0001363678682038008
1412.6094162448555,1412.6094162448555,0.9999935726596408,0.00013639617205151542
1412.6163608322572,1412.6163608322572,0.999940442844131,0.00013637112647256244
1412.6233054196587,1412.6233054196587,1.0001033411759783,0.00013638060597937466
1412.63025000699,1412.63025000699,1.0000883570538173,0.00013636086824766227
1412.6371945942988,1412.6371945942988,0.9999632941290024,0.00013640334499591774
1412.6441391816063,1412.6441391816063,1.0003011396967012,0.0001364333516773965
1412.6510837688454,1412.6510837688454,1.0000632884676623,0.00013641181723456568
1412.6580283560595,1412.6580283560595,0.9998897230503804,0.0001363870886833216
1412.6649729432522,1412.6649729432522,0.9998275967557362,0.0001363961252292234
1412.6719175304202,1412.6719175304202,1.0002501810698274,0.00013640680228826972
1412.678862117519,1412.678862117519,1.0001241147248292,0.000136365086976038
