time,time,flux,flux_err
1325.302423806349,1325.302423806349,0.9999795321602142,8.564716903823637e-05
1325.3107573560262,1325.3107573560262,1.000066631002838,8.567643561340738e-05
1325.3190909056655,1325.3190909056655,0.9999762572483694,8.568919150630779e-05
1325.3274244551874,1325.3274244551874,1.0000875232025763,8.570724440849149e-05
1325.3350635422398,1325.3350635422398,0.9998858823209542,7.824455816008986e-05
1325.342008166706,1325.342008166706,0.9998825129701239,7.825640381951875e-05
1325.3489527911722,1325.3489527911722,1.0000272057055535,7.826814103120838e-05
1325.3558974155917,1325.3558974155917,1.0000266120017223,7.827663420410107e-05
1325.3628420399646,1325.3628420399646,1.0000055719127188,7.828394202787474e-05
1325.3697866642447,1325.3697866642447,0.999944148515499,7.82860873656104e-05
1325.376731288524,1325.376731288524,1.000021398740787,7.829212621027453e-05
1325.3836759127576,1325.3836759127576,0.9999777297427895,7.829558686027349e-05
1325.3906205368512,1325.3906205368512,1.000092408549457,7.830551150851834e-05
1325.3975651609912,1325.3975651609912,0.9999113993791079,7.829910545657368e-05
1325.4045097850849,1325.4045097850849,1.0000234494665485,7.830203616574696e-05
1325.411454409085,1325.411454409085,0.9999975893073065,7.830128949075273e-05
1325.4183990330391,1325.4183990330391,0.9999228837756954,7.830290624278277e-05
1325.4253436569463,1325.4253436569463,0.9999989856054932,7.830326639138635e-05
1325.4322882808538,1325.4322882808538,1.000199307518033,7.830995212685453e-05
1325.439232904668,1325.439232904668,1.0000392356000742,7.83066970821919e-05
1325.4461775284356,1325.4461775284356,0.9999218056943466,7.829861690038603e-05
1325.4531221521563,1325.4531221521563,0.9999323306298293,7.8297417952577e-05
1325.4600667758775,1325.4600667758775,0.9999824358069069,7.830290780225195e-05
1325.4670113995053,1325.4670113995053,1.0000254629985763,7.830286717276416e-05
1325.4739560231799,1325.4739560231799,0.9998794236708044,7.829506221955658e-05
1325.4809006467146,1325.4809006467146,1.0000777150240703,7.830546358569094e-05
1325.4878452702494,1325.4878452702494,1.00005729852101,7.830922084199916e-05
1325.4947898935982,1325.4947898935982,1.0001392001777785,7.831309908970727e-05
1325.501734517086,1325.501734517086,0.9999820302770409,7.831027046190058e-05
1325.5086791404349,1325.5086791404349,1.0000141397819218,7.831048202996759e-05
1325.5156237637834,1325.5156237637834,0.9998151150149809,7.830279952788523e-05
1325.5225683870854,1325.5225683870854,0.9999302207109864,7.831032893480794e-05
1325.5295130103405,1325.5295130103405,1.000064528989909,7.831780946523535e-05
1325.5364576335028,1325.5364576335028,1.0000519294430403,7.831925529262244e-05
1325.5434022566649,1325.5434022566649,1.0000861038669917,7.832383301726468e-05
1325.5503468798274,1325.5503468798274,1.0001273078266653,7.832769383507667e-05
1325.5572915028963,1325.5572915028963,0.9999559218381524,7.832321975227244e-05
1325.564236125919,1325.564236125919,0.9998100623166707,7.831528051622562e-05
1325.5711807488951,1325.5711807488951,0.9999600517417917,7.832254719372815e-05
1325.5781253718244,1325.5781253718244,0.9999645500120804,7.83223786166238e-05
1325.5850699948005,1325.5850699948005,0.9999845725119018,7.83260547998312e-05
1325.5920146176363,1325.5920146176363,1.0001082239353452,7.833161970305887e-05
1325.598959240473,1325.598959240473,0.9998935301473697,7.832417767438912e-05
1325.6059038632625,1325.6059038632625,1.000188490277114,7.833403885506489e-05
1325.6128484860524,1325.6128484860524,1.0000232308863695,7.832893411092224e-05
1325.6197931087488,1325.6197931087488,1.0000499094389668,7.833041063554016e-05
1325.6267377314457,1325.6267377314457,0.9998628369251709,7.831859708323196e-05
1325.6336823540491,1325.6336823540491,1.000049252709394,7.832448896775835e-05
1325.640626976606,1325.640626976606,0.9998890381009036,7.8320936955857e-05
1325.6475715992092,1325.6475715992092,0.9999797762964274,7.832626722070159e-05
1325.6545162217196,1325.6545162217196,1.0001425542257931,7.833029224535494e-05
1325.6614608441832,1325.6614608441832,0.9999163384704076,7.832311676900964e-05
1325.668405466554,1325.668405466554,0.9999952749610956,7.832331963027541e-05
1325.6753500889245,1325.6753500889245,1.0000813947368297,7.832599329230517e-05
1325.6822947112953,1325.6822947112953,0.9999216507590901,7.83199329054891e-05
1325.6892393336661,1325.6892393336661,0.9998938412861703,7.831974597697849e-05
1325.6961839560365,1325.6961839560365,1.0000949548375258,7.832615207227267e-05
1325.7031285781748,1325.7031285781748,1.0000498210434494,7.832448062548767e-05
1325.7100732004053,1325.7100732004053,1.0000298736742503,7.832726854918758e-05
1325.7170178225897,1325.7170178225897,0.9999809230555815,7.832796529603025e-05
1325.7239624447272,1325.7239624447272,0.9999031483614974,7.83266593323699e-05
1325.7309070668186,1325.7309070668186,1.0001358761024262,7.833829501209851e-05
1325.7378516888632,1325.7378516888632,1.000085435047334,7.833525487735132e-05
1325.7447963108611,1325.7447963108611,0.9998877924738325,7.83334881521537e-05
1325.7517409328127,1325.7517409328127,0.9999273424947519,7.833762016718004e-05
1325.758685554811,1325.758685554811,0.9999828426060586,7.834125886754445e-05
1325.765630176716,1325.765630176716,1.0000822035156294,7.834664562659168e-05
1325.7725747985744,1325.7725747985744,0.9999702802733628,7.834522372751531e-05
1325.779519420386,1325.779519420386,0.999990502775454,7.835002864757385e-05
1325.7864640422445,1325.7864640422445,1.000028288098895,7.835435175624042e-05
1325.7934086639168,1325.7934086639168,0.999891428920809,7.835316123607435e-05
1325.800353285682,1325.800353285682,1.000032583767728,7.836110796664157e-05
1325.8072979073545,1325.8072979073545,1.0000963759996209,7.836324431207512e-05
1325.8142425290262,1325.8142425290262,1.0000131355634037,7.83618066093602e-05
1325.821187150652,1325.821187150652,0.9999042457180876,7.835823122081814e-05
1325.8281317721844,1325.8281317721844,1.0000665110051326,7.836541687413879e-05
1325.8350763937633,1325.8350763937633,0.9999424489380623,7.836113338906755e-05
1325.8420210152494,1325.8420210152494,0.9999964447211198,7.836551108753622e-05
1325.848965636735,1325.848965636735,0.9999665010158589,7.836349125856868e-05
1325.8559102581276,1325.8559102581276,0.9999441572565992,7.836339495524578e-05
1325.8628548795205,1325.8628548795205,1.000118998920016,7.83712661366353e-05
1325.8697995008667,1325.8697995008667,0.9999789917592541,7.836397255141358e-05
1325.8767441222594,1325.8767441222594,1.0000419087677856,7.836552358814028e-05
1325.8836887435125,1325.8836887435125,1.0001113869774287,7.836539226421273e-05
1325.890633364719,1325.890633364719,1.0000521334358146,7.836488749575908e-05
1325.8975779859254,1325.8975779859254,0.9998698584216095,7.835509257579999e-05
1325.9045226071319,1325.9045226071319,0.9999274786290708,7.83590017870786e-05
1325.9114672283383,1325.9114672283383,0.9999795994904351,7.835952756746384e-05
1325.9184118494516,1325.9184118494516,0.9999769274379492,7.835787162053208e-05
1325.9253564705184,1325.9253564705184,1.0000261026637853,7.836237015970452e-05
1325.9323010915389,1325.9323010915389,1.0000507864500328,7.836454233744856e-05
1325.9392457125589,1325.9392457125589,1.0000529824938162,7.836402437699541e-05
1325.9461903335323,1325.9461903335323,0.9999753169606646,7.835997429760216e-05
1325.95313495446,1325.95313495446,0.9999115151742052,7.835690444252244e-05
1325.9600795753402,1325.9600795753402,1.0000832469002117,7.836458275685148e-05
1325.9681353355672,1325.9681353355672,0.9998921666063906,7.835784304917365e-05
1325.9753577412496,1325.9753577412496,1.00010245258618,7.836522009159425e-05
1325.9823023619902,1325.9823023619902,0.9999627673643585,7.835859897011465e-05
1325.9892469827776,1325.9892469827776,0.9999340531980252,7.835885784680651e-05
1325.9961916035181,1325.9961916035181,1.0000243360771783,7.836281980331606e-05
1326.0031362241662,1326.0031362241662,1.0000777429466567,7.836657696653588e-05
1326.01008084486,1326.01008084486,1.000089252716577,7.836912248257376e-05
1326.0170254654615,1326.0170254654615,0.999880724917913,7.836142686308212e-05
1326.023970086016,1326.023970086016,0.9999517373191141,7.836472723492275e-05
1326.0309147065705,1326.0309147065705,1.000041294761202,7.837119600052389e-05
1326.0378593270784,1326.0378593270784,0.9999517744431081,7.836632471132422e-05
1326.0448039475862,1326.0448039475862,0.9999906720422759,7.836622165372604e-05
1326.0517485680016,1326.0517485680016,0.9999744500589995,7.836967650710489e-05
1326.0586931884623,1326.0586931884623,1.0000588768198402,7.83726005038691e-05
1326.0656378087847,1326.0656378087847,1.0001065660217325,7.837304226126907e-05
1326.0725824291062,1326.0725824291062,1.0000613937878315,7.837533035879026e-05
1326.0795270494277,1326.0795270494277,0.9999586091583665,7.837010823487874e-05
1326.086471669703,1326.086471669703,0.9999824419095692,7.837238162667766e-05
1326.0934162899782,1326.0934162899782,0.9999313408927062,7.837084934204911e-05
1326.1003609101604,1326.1003609101604,0.9999565680568777,7.837277405497821e-05
1326.1073055302961,1326.1073055302961,1.0000109624746503,7.837673987365016e-05
1326.1142501504776,1326.1142501504776,1.0000288556493777,7.838014107725272e-05
1326.121194770613,1326.121194770613,0.9999772759771876,7.838175613181521e-05
1326.1281393906552,1326.1281393906552,0.9999799003782716,7.837903050154041e-05
1326.1350840106982,1326.1350840106982,1.0000190618730724,7.838085611064152e-05
1326.1420286307398,1326.1420286307398,1.0000609784905612,7.838064778377817e-05
1326.14897325055,1326.14897325055,0.9999296340201104,7.837944904618091e-05
1326.155917870592,1326.155917870592,0.9999990570724682,7.838002006961195e-05
1326.1628624904479,1326.1628624904479,0.9999986041774476,7.838197113574927e-05
1326.1698071103042,1326.1698071103042,1.0000824266738202,7.838410519296686e-05
1326.17675173016,1326.17675173016,0.9999418950944662,7.838051387592581e-05
1326.1836963499231,1326.1836963499231,1.000052235622732,7.838375552021896e-05
1326.1906409697326,1326.1906409697326,0.9999768704448521,7.838162591961314e-05
1326.1975855894023,1326.1975855894023,1.0000907642625243,7.838257592472075e-05
1326.2045302091187,1326.2045302091187,1.0000393519561708,7.838388258906178e-05
1326.211474828742,1326.211474828742,0.9998640039691764,7.837611071130817e-05
1326.2184194484119,1326.2184194484119,0.9999758449162977,7.838084604806813e-05
1326.2253640679885,1326.2253640679885,0.999795592897231,7.837137921884568e-05
1326.2323086875185,1326.2323086875185,1.0000303813026172,7.838239660642222e-05
1326.239253307095,1326.239253307095,1.0001833397482454,7.838745056545675e-05
1326.2461979265317,1326.2461979265317,1.0000963094254136,7.838440478559128e-05
1326.253142546016,1326.253142546016,1.0000472953259778,7.838228245323079e-05
1326.2600871654527,1326.2600871654527,0.9999939885942328,7.838009246245024e-05
1326.2670317847965,1326.2670317847965,0.9998166828442798,7.837205016752961e-05
1326.2739764041871,1326.2739764041871,0.9999674621799027,7.837684594700317e-05
1326.280921023484,1326.280921023484,0.999934805257161,7.83752767286457e-05
1326.2878656427815,1326.2878656427815,1.000057870574318,7.837742299465486e-05
1326.2948102620321,1326.2948102620321,0.999981608713225,7.837386149583495e-05
1326.3017548812363,1326.3017548812363,1.0000229237457412,7.837720881424926e-05
1326.30869950044,1326.30869950044,1.0001198900161294,7.8378751524938e-05
1326.3156441195515,1326.3156441195515,1.000020001596727,7.837698430040012e-05
1326.3225887386625,1326.3225887386625,0.9999643978958431,7.837488012126655e-05
1326.3295333577732,1326.3295333577732,0.9999689655881319,7.837508004330707e-05
1326.3364779767912,1326.3364779767912,1.0000426988489397,7.838102396867705e-05
1326.3434225958558,1326.3434225958558,0.9999979005712355,7.838058583672385e-05
1326.3514783538012,1326.3514783538012,1.0000836002818327,7.838672684248856e-05
1326.3600896812563,1326.3600896812563,0.9999869036511262,7.838477815003855e-05
1326.367034300321,1326.367034300321,0.9998944025498633,7.838534911042842e-05
1326.3739789190126,1326.3739789190126,1.00000552250095,7.838811845921928e-05
1326.3809235378444,1326.3809235378444,0.9998881623912448,7.838681321320351e-05
1326.3878681567226,1326.3878681567226,1.000003340035021,7.83938378039446e-05
1326.3948127754609,1326.3948127754609,1.0000311801094028,7.839596501207013e-05
1326.4017573941996,1326.4017573941996,1.0001066140486718,7.840114256488242e-05
1326.4087020128914,1326.4087020128914,0.9998982409687173,7.839376178902789e-05
1326.4156466315374,1326.4156466315374,1.0001601939416065,7.840685077176133e-05
1326.4225912501356,1326.4225912501356,0.9999141070759086,7.839934398900643e-05
1326.4295358687345,1326.4295358687345,0.9999806884262948,7.840113503245973e-05
1326.436480487333,1326.436480487333,1.0001176934661178,7.840653226315588e-05
1326.4434251057924,1326.4434251057924,0.9998239898068435,7.84005354916767e-05
1326.4503697242978,1326.4503697242978,1.00006314737777,7.840759115591762e-05
1326.4573143428036,1326.4573143428036,1.0000271367476175,7.840974796629894e-05
1326.4642589612163,1326.4642589612163,1.0000310607844347,7.84129376042109e-05
1326.471203579582,1326.471203579582,1.0000085289788658,7.840856554580273e-05
1326.4781481979476,1326.4781481979476,0.9998885078709427,7.840682974122804e-05
1326.4850928163141,1326.4850928163141,1.0000398162572346,7.841471629509137e-05
1326.4920374345866,1326.4920374345866,0.9999310683083056,7.841145919383198e-05
1326.4989820527667,1326.4989820527667,1.00009868034228,7.841829436264481e-05
1326.5059266710389,1326.5059266710389,0.9999321653046234,7.841159759910886e-05
1326.512871289219,1326.512871289219,1.0000574089107133,7.841768600258799e-05
1326.519815907352,1326.519815907352,1.0000079918196034,7.841869959318889e-05
1326.5267605254387,1326.5267605254387,0.9999880361984903,7.84198015433978e-05
1326.5337051435251,1326.5337051435251,1.0000830196409225,7.842563897152717e-05
1326.5406497616113,1326.5406497616113,0.9999612106520255,7.842414322309866e-05
1326.5475943796052,1326.5475943796052,1.000020015529545,7.842688338495304e-05
1326.5545389975985,1326.5545389975985,0.999928825583248,7.842672427395556e-05
1326.561483615499,1326.561483615499,0.9999996897843125,7.843187194071198e-05
1326.5684282333991,1326.5684282333991,1.0000294615261704,7.843060301541906e-05
1326.5753728512993,1326.5753728512993,0.9999838735859292,7.842905843157215e-05
1326.5823174691534,1326.5823174691534,0.9998329167366512,7.842588551758617e-05
1326.5892620869602,1326.5892620869602,1.000093835111831,7.843531399831573e-05
1326.5962067046744,1326.5962067046744,0.9999209206216619,7.842961386379009e-05
1326.6031513223884,1326.6031513223884,1.0002191402186078,7.844017053159018e-05
1326.6100959401024,1326.6100959401024,0.9999258971673768,7.842996134466962e-05
1326.6170405578166,1326.6170405578166,1.0000488300923764,7.843657808585628e-05
1326.6239851755302,1326.6239851755302,1.000007764597432,7.843411098520627e-05
1326.6309297930115,1326.6309297930115,0.9999827297098788,7.843474280841508e-05
1326.637874410632,1326.637874410632,0.9999995706704349,7.84364737997772e-05
1326.6448190281603,1326.6448190281603,0.9999671885783261,7.843594062906765e-05
1326.651763645688,1326.651763645688,1.0000163645469144,7.84382877377163e-05
1326.6587082631227,1326.6587082631227,1.0000872714403792,7.843952997482314e-05
1326.6656528805574,1326.6656528805574,0.9998774704360184,7.843187385462402e-05
1326.6725974979915,1326.6725974979915,0.9999952761231796,7.843474797448151e-05
1326.679542115287,1326.679542115287,0.9999719353855527,7.843229576239333e-05
1326.686486732628,1326.686486732628,1.0001129389734151,7.843442025995004e-05
1326.694820273373,1326.694820273373,1.0000472796852606,7.843573970922924e-05
1326.7017648906212,1326.7017648906212,0.999899838643808,7.842476296668275e-05
1326.7087095078696,1326.7087095078696,0.9999706604199753,7.842511095792175e-05
1326.7164874790574,1326.7164874790574,0.9999716502126554,7.842388722995348e-05
1326.7239876656301,1326.7239876656301,0.9999806785503683,7.842253466413343e-05
1326.7309322826918,1326.7309322826918,0.9999348230858557,7.841975102645048e-05
1326.7378768998005,1326.7378768998005,1.0000452590638147,7.84256201885889e-05
1326.7448215168165,1326.7448215168165,1.0000195709932211,7.841797779379133e-05
1326.7517661338316,1326.7517661338316,1.000074191983863,7.842354842066946e-05
1326.7587107508004,1326.7587107508004,1.0001311864355653,7.842464795975358e-05
1326.765655367723,1326.765655367723,0.9999994757008869,7.841780224284895e-05
1326.7725999846455,1326.7725999846455,1.0000416873265618,7.841934208128907e-05
1326.7795446014745,1326.7795446014745,0.9999854859493993,7.841809551296315e-05
1326.7864892183038,1326.7864892183038,0.9999145375559291,7.84174999627819e-05
1326.7934338350867,1326.7934338350867,1.0000134763843653,7.842165784448257e-05
1326.8003784518692,1326.8003784518692,1.0001020875223319,7.842720951964705e-05
1326.8073230685593,1326.8073230685593,1.0000566975673575,7.842539174664735e-05
1326.814267685295,1326.814267685295,0.999923504801635,7.841860504209379e-05
1326.8212123018916,1326.8212123018916,1.0000489815419347,7.842384035571434e-05
1326.8281569186274,1326.8281569186274,1.0000897799148496,7.842737464250985e-05
1326.8351015351775,1326.8351015351775,0.9999251644145847,7.842028201847183e-05
1326.8420461517273,1326.8420461517273,0.9999694456543928,7.842303874587765e-05
1326.8489907682772,1326.8489907682772,1.000002826409678,7.842282269395252e-05
1326.8559353846408,1326.8559353846408,1.000070075581998,7.842318609254515e-05
1326.862880001144,1326.862880001144,1.0000503025826517,7.842010985002214e-05
1326.869824617508,1326.869824617508,0.9999936909543685,7.84198640892176e-05
1326.8767692339181,1326.8767692339181,0.9999526677109627,7.84152765310037e-05
1326.8837138502815,1326.8837138502815,0.9999757552492234,7.841381864779381e-05
1326.8906584665522,1326.8906584665522,1.0000128322762747,7.841259464206956e-05
1326.8976030828221,1326.8976030828221,0.9999836027017247,7.841097678540037e-05
1326.9045476990934,1326.9045476990934,0.9999274488616976,7.840119463280718e-05
1326.9114923152704,1326.9114923152704,1.0000424405770585,7.840204424178326e-05
1326.9184369314476,1326.9184369314476,1.0000100400446943,7.839566534590547e-05
1326.9253815475786,1326.9253815475786,0.9999281110025573,7.838899844862034e-05
1326.9323261636628,1326.9323261636628,1.0001302191626993,7.838810111571813e-05
1326.939270779747,1326.939270779747,0.9999175846717083,7.838130849812176e-05
1326.9462153957377,1326.9462153957377,0.9999218317901821,7.83758231866517e-05
1326.9531600118223,1326.9531600118223,1.000106231144894,7.837916140802974e-05
1326.9601046277198,1326.9601046277198,1.00002789899059,7.837201440031568e-05
1326.9670492436185,1326.9670492436185,1.0000425151875885,7.836539852810888e-05
1326.9739938595162,1326.9739938595162,1.000063033176705,7.836466366765062e-05
1326.9809384753673,1326.9809384753673,0.9998707157629625,7.835694450380068e-05
1326.987883091219,1326.987883091219,1.0000236772869318,7.835770327123715e-05
1326.9948277069773,1326.9948277069773,0.999859846012429,7.834910247012359e-05
1327.0017723227352,1327.0017723227352,1.0001756949555045,7.836028798026706e-05
1327.0087169384005,1327.0087169384005,1.0000179186821982,7.835764763205379e-05
1327.015661554112,1327.015661554112,0.9999746531768027,7.83527875066391e-05
1327.0226061697308,1327.0226061697308,0.9999665226032196,7.835044463713251e-05
1327.0295507853493,1327.0295507853493,1.0000146164964276,7.835522060587797e-05
1327.0364954009215,1327.0364954009215,0.9998968978047744,7.835166480042063e-05
1327.043440016493,1327.043440016493,1.0001309283982769,7.835853439497751e-05
1327.0503846319257,1327.0503846319257,1.0000127449979985,7.835785859301375e-05
1327.0573292474041,1327.0573292474041,0.9999568893322837,7.835573208765573e-05
1327.0653850013919,1327.0653850013919,0.9998940120032211,7.835556747757679e-05
1327.0726074013926,1327.0726074013926,1.0001680899352425,7.83666692187529e-05
1327.0795520167317,1327.0795520167317,0.9999512390072466,7.836156282457864e-05
