time,time,flux,flux_err
1468.2762774523878,1468.2762774523878,0.9961338447991418,0.003890632816602811
1468.283222026333,1468.283222026333,1.000271145147971,0.003882850796534893
1468.290166600232,1468.290166600232,0.9996084107269692,0.003893127704517266
1468.2971111741074,1468.2971111741074,0.9988100620558139,0.0038824311035837223
1468.304055747913,1468.304055747913,1.0006413128707319,0.0038843273758111295
1468.3110003216955,1468.3110003216955,1.0012404375521324,0.0038895149575186687
1468.3179448954074,1468.3179448954074,1.0034973449304219,0.0038853996717965965
1468.32488946912,1468.32488946912,0.9988508094404855,0.0038875476013595506
1468.3318340428327,1468.3318340428327,0.996149133999001,0.0038914573586220904
1468.338778616429,1468.338778616429,0.9980367190853631,0.0038904859308885285
1468.3457231900015,1468.3457231900015,0.9977037503192692,0.0038809780787573077
1468.3526677635512,1468.3526677635512,0.9990660370786912,0.0038868983897547256
1468.3596123370542,1468.3596123370542,1.0005410042884777,0.003883684528569719
1468.3665569104874,1468.3665569104874,1.0033148271302328,0.0038870099945407083
1468.3735014839203,1468.3735014839203,1.0005444931790997,0.0038922671131142303
1468.3882239794218,1468.3882239794218,1.0012051916116562,0.00389424701588714
1468.397113033262,1468.397113033262,1.0016770473802956,0.003898309723255591
1468.4040576065095,1468.4040576065095,1.0006948918265344,0.003882495376821472
1468.411002179686,1468.411002179686,0.9979648003271748,0.003882644398929924
1468.4179467529093,1468.4179467529093,0.9987369689246371,0.003886010323079865
1468.4248913259933,1468.4248913259933,0.99699189882531,0.0038828154761597162
1468.431835899054,1468.431835899054,1.0008770930680468,0.003882311536811127
1468.4387804720911,1468.4387804720911,0.9999896377137787,0.0038831646577233833
1468.445725045105,1468.445725045105,1.001360343508434,0.003882980733057815
1468.4526696180492,1468.4526696180492,1.0004271621627434,0.0038885645022799726
1468.4596141909701,1468.4596141909701,1.0002082517373974,0.0038789617032140783
1468.4665587638679,1468.4665587638679,0.9948209821545548,0.003891341768609066
1468.4735033366958,1468.4735033366958,1.003316746098782,0.0038879415119406056
1468.4804479094762,1468.4804479094762,1.003624144294153,0.0038914377285222727
1468.4873924822346,1468.4873924822346,0.999039993411763,0.0038957081780617
1468.4943370549463,1468.4943370549463,0.9976972608565939,0.0038926930972875114
1468.5012816276342,1468.5012816276342,1.0045644754191803,0.003888805208324766
1468.508226200229,1468.508226200229,0.9959320685245941,0.003893774351536377
1468.5151707728933,1468.5151707728933,1.0001492432887171,0.0038894675839778853
1468.5221153454418,1468.5221153454418,1.0002394976268625,0.0038910055561376935
1468.5290599178973,1468.5290599178973,0.9973575008011417,0.0038905445140994454
1468.536004490399,1468.536004490399,1.0006679757789525,0.0038870850045284984
1468.5429490628073,1468.5429490628073,1.0002053487949885,0.0038836072947408067
1468.549893635216,1468.549893635216,0.999750491808072,0.0038851938093609614
1468.5568382075553,1468.5568382075553,1.0031786151617232,0.003885568796163248
1468.563782779871,1468.563782779871,0.9975164883738026,0.003889010167904944
1468.5707273521396,1468.5707273521396,0.9972428244362798,0.0038808831653623357
1468.5776719243618,1468.5776719243618,1.002600278712253,0.0038875745214035197
1468.584616496561,1468.584616496561,1.000603453526915,0.003888882357136747
1468.59156106869,1468.59156106869,1.002903437638633,0.003885069574420656
1468.5985056407962,1468.5985056407962,1.003059609541546,0.003885486965308304
1468.6054502128788,1468.6054502128788,0.9963017960660938,0.00389247590073086
1468.612394784845,1468.612394784845,0.9989952370851123,0.003887598538113645
1468.6193393568115,1468.6193393568115,0.9978814696956173,0.003892267894367111
1468.6262839287779,1468.6262839287779,1.003823280924062,0.003892250059048251
1468.6332285006977,1468.6332285006977,0.9993489918919682,0.00389784982557012
1468.640173072547,1468.640173072547,1.004549736802375,0.003891885146018741
1468.6471176443738,1468.6471176443738,0.9965452151197711,0.0038968146225558955
1468.6540622161535,1468.6540622161535,0.9973197423025549,0.003891956394201556
1468.6610067878871,1468.6610067878871,1.001858888241261,0.003892728710575991
1468.667951359574,1468.667951359574,0.99908507566621,0.003891783555094265
1468.6748959312376,1468.6748959312376,1.004758803419069,0.003895521330578077
1468.6818405028546,1468.6818405028546,0.9952337169058545,0.0038882882004112663
1468.6887850744251,1468.6887850744251,1.0037216535810127,0.00390046269332524
1468.695729645949,1468.695729645949,0.9967964739919628,0.0038839668840512397
1468.7026742174494,1468.7026742174494,1.0023448073137202,0.003895774544597484
1468.7096187888803,1468.7096187888803,1.0027972610297382,0.003890531381584349
1468.7165633602642,1468.7165633602642,1.0005095876712848,0.0038907536131763073
1468.7235079316486,1468.7235079316486,0.994363262173319,0.0038984977802062615
1468.730452503033,1468.730452503033,1.0017324921606565,0.0038945958065375146
1468.7373970743006,1468.7373970743006,0.9972932487458344,0.0038910843820722644
1468.744341645545,1468.744341645545,1.0012238249336505,0.003884793139792248
1468.7512862167664,1468.7512862167664,0.9994231201366359,0.0038920677432655267
1468.7582307878943,1468.7582307878943,1.0010575411834748,0.003888116756673974
1468.765175359046,1468.765175359046,0.9978131947722801,0.003888090541727735
1468.7721199301275,1468.7721199301275,1.0010665860520827,0.0038829401309244324
1468.779064501162,1468.779064501162,1.0027586405794382,0.003881197444901806
1468.7860090721738,1468.7860090721738,1.0024830908138198,0.0038807063574629965
1468.7929536431157,1468.7929536431157,1.0003016938212845,0.0038822984499486146
1468.7998982140346,1468.7998982140346,1.0002631984808925,0.0038850988469488644
1468.8068427848825,1468.8068427848825,0.9974494556527566,0.003888967044483609
1468.813787355778,1468.813787355778,0.9987020459313772,0.003900119704499109
1468.8207319265339,1468.8207319265339,0.9987295818218265,0.003884638216573284
1468.8276764972893,1468.8276764972893,1.002784784915059,0.0038865490951341198
1468.8346210679983,1468.8346210679983,0.9981062960080755,0.0038856070101104404
1468.8415656386835,1468.8415656386835,1.000108034787488,0.003885949928495583
1468.8485102092995,1468.8485102092995,0.9977477493253056,0.003882333089798145
1468.8554547798926,1468.8554547798926,1.0000582685471933,0.003891205975339926
1468.8623993504618,1468.8623993504618,1.0030113846330035,0.003890120478543424
1468.8693439209612,1468.8693439209612,0.9997497165427329,0.003881813447724618
1468.8762884914138,1468.8762884914138,0.9970523926494543,0.003879591446685373
1468.8832330618436,1468.8832330618436,1.0029167782284454,0.003888036242267826
1468.8901776322268,1468.8901776322268,1.0030683207745086,0.0038817392122968497
1468.8971222025866,1468.8971222025866,1.001693664410788,0.00389179150547192
1468.9040667728527,1468.9040667728527,0.9963152570379016,0.0038790406730770366
1468.9110113431657,1468.9110113431657,0.9983072564993487,0.0038849464705633255
1468.9179559133859,1468.9179559133859,1.0003902245716083,0.0038825949264700713
1468.924900483513,1468.924900483513,1.000133854521598,0.003883917533614106
1468.9318450536634,1468.9318450536634,0.9980716565448591,0.003886553057582011
1468.9387896237672,1468.9387896237672,0.999300904316572,0.003884721309371299
1468.9457341938237,1468.9457341938237,1.0035615143895376,0.003880986626406322
1468.9526787638345,1468.9526787638345,1.0000034464312182,0.003890742718388649
1468.9607344650099,1468.9607344650099,0.9995031159569011,0.0038852995461580325
1468.9679568177364,1468.9679568177364,1.0011574429636139,0.003887069877640046
1468.974901387607,1468.974901387607,0.9984955434246208,0.003890681498734821
1468.9818459574312,1468.9818459574312,0.9990435830391288,0.0038841337274357077
1468.9887905272558,1468.9887905272558,1.0012586478173788,0.0038844821301639667
1468.995735096987,1468.995735096987,1.0015257299389932,0.0038838641633301583
1469.002679666718,1469.002679666718,0.9974612412799893,0.003879713576504245
1469.0096242363556,1469.0096242363556,0.9990070289984162,0.003885355613536926
1469.0165688059938,1469.0165688059938,1.0010659478858597,0.0038898694458959953
1469.0235133756319,1469.0235133756319,1.0013646636688958,0.0038895537248880992
1469.0304579451533,1469.0304579451533,1.0039190275557712,0.0038874144914577704
1469.0374025146748,1469.0374025146748,0.9986752916593001,0.003895067484462168
1469.0443470841496,1469.0443470841496,0.9981842587767931,0.003895255749210349
1469.0512916535781,1469.0512916535781,0.9973674913272916,0.003890201830169737
1469.058236222983,1469.058236222983,1.0005766152779831,0.0039012646779668313
1469.0651807923189,1469.0651807923189,0.9973722219909815,0.003898426996322986
1469.0721253616075,1469.0721253616075,0.9999547537822149,0.003887306782965326
1469.079069930873,1469.079069930873,1.0014750036914606,0.003885634253790534
1469.0860145000918,1469.0860145000918,1.001649255097096,0.003896124632615262
1469.0929590692638,1469.0929590692638,0.9998388952614542,0.0038935222795556646
1469.0999036383896,1469.0999036383896,1.0001725048370858,0.00389024591948715
1469.1068482075157,1469.1068482075157,1.001365570575398,0.0038825559295127114
1469.113792776548,1469.113792776548,1.0010251949191407,0.0038964313139413114
1469.1207373455575,1469.1207373455575,0.9988135822977984,0.003878862264646553
1469.1276819145435,1469.1276819145435,0.9994341942407106,0.0038856272689195203
1469.134626483483,1469.134626483483,1.0012451510853533,0.0038789919951481406
1469.141571052376,1469.141571052376,0.9986621591199316,0.00388660447736151
1469.1485156212223,1469.1485156212223,1.0005628988769508,0.0038874053102849323
1469.155460190022,1469.155460190022,0.9986454779762294,0.0038854745380467945
1469.1624047587752,1469.1624047587752,0.9967054929959351,0.0038982642603212726
1469.1693493275047,1469.1693493275047,1.0033980269804892,0.0038791091843353525
1469.1762938961888,1469.1762938961888,0.9982326161810218,0.003887087607017827
1469.183238464825,1469.183238464825,0.9986800769693195,0.003895060394721486
1469.1901830334386,1469.1901830334386,1.0053507566024957,0.0038906613499004776
1469.1971276020056,1469.1971276020056,0.9982458196989583,0.0038756410437614207
1469.2040721705027,1469.2040721705027,1.000127233116569,0.003882300464241175
1469.211016738977,1469.211016738977,1.002171304480692,0.0038805498771686394
1469.2179613074272,1469.2179613074272,0.9988492305748323,0.0038796180856323316
1469.2249058758075,1469.2249058758075,1.0019902544087833,0.00388599081815809
1469.2318504441419,1469.2318504441419,0.9957743066738868,0.003888252644518488
1469.2387950124526,1469.2387950124526,0.9993231980398504,0.003896478828874652
1469.2457395807173,1469.2457395807173,1.0015399793847273,0.003890175463108184
1469.252684148958,1469.252684148958,1.0004498850547738,0.003890518958293903
1469.2596287171523,1469.2596287171523,1.0034135080039417,0.003897891973398552
1469.266573285277,1469.266573285277,0.9972548264779872,0.003888034918715778
1469.2735178533783,1469.2735178533783,0.9999732502663796,0.003894803564968681
1469.2804624214332,1469.2804624214332,0.997466722850004,0.003893978833994596
1469.2874069894647,1469.2874069894647,1.0010199443362109,0.0038856532606766905
1469.2943515574027,1469.2943515574027,0.9991023430934121,0.0038825818858609154
1469.3012961253874,1469.3012961253874,1.002790445563356,0.0038880886752011706
1469.3082406932795,1469.3082406932795,0.9968471573150147,0.0038991359582866434
1469.3151852610779,1469.3151852610779,0.9991827653498145,0.0038917399751889465
1469.3221298289234,1469.3221298289234,1.002900067057758,0.0038887087291428085
1469.329074396675,1469.329074396675,1.000956690044501,0.0038912835038734544
1469.3360189644038,1469.3360189644038,1.0009672282451096,0.0038895942779929534
1469.3429635320863,1469.3429635320863,0.9988323257493807,0.003892210152921536
1469.349908099745,1469.349908099745,1.000001939377826,0.0038869887186765615
1469.3568526673573,1469.3568526673573,0.9978643198235503,0.0038898668492196795
1469.3637972349002,1469.3637972349002,1.001111220173565,0.003895254189756805
1469.3707418024187,1469.3707418024187,0.998712429252491,0.003898495627919231
1469.3776863698683,1469.3776863698683,1.000921483391099,0.0038960802239337415
1469.384630937318,1469.384630937318,1.0003619395197167,0.003893803534737
1469.3915755047205,1469.3915755047205,1.0018106556376432,0.0038924559317030016
1469.398520072054,1469.398520072054,0.9994316155230158,0.0038871568488479057
1469.405464639363,1469.405464639363,0.9991268864777261,0.0038987976430020143
1469.4124092066495,1469.4124092066495,1.000078243822958,0.0038995674582309055
1469.419353773866,1469.419353773866,0.9958903266765471,0.003891760428606257
1469.4262983410358,1469.4262983410358,1.0028724990184124,0.003890808380526985
1469.433242908183,1469.433242908183,1.0000855243182218,0.0038883001324382833
1469.4401874752825,1469.4401874752825,0.9992508236137148,0.003887904051250801
1469.447132042313,1469.447132042313,1.0016411602655744,0.003890165835035494
1469.4540766093435,1469.4540766093435,1.0025023634963355,0.003895770544811195
1469.461021176327,1469.461021176327,0.9976633235254739,0.003886087354474406
1469.4679657432412,1469.4679657432412,0.9977900868027205,0.0038869343021312045
1469.474910310155,1469.474910310155,1.001262913244227,0.003887833601140056
1469.4818548769986,1469.4818548769986,0.998610040681241,0.0038826426745504445
1469.4887994438195,1469.4887994438195,1.0023122279327912,0.0038952049046137778
1469.495744010547,1469.495744010547,1.001388355675011,0.0038938332856816617
1469.5026885772747,1469.5026885772747,0.9976836043549557,0.0038884535727601115
1469.5096331440027,1469.5096331440027,0.9997017428977983,0.0038783603829775914
1469.5165777106133,1469.5165777106133,1.001623557603787,0.0038822908128478668
1469.5235222772012,1469.5235222772012,0.9953540297741064,0.0038884690613029058
1469.5304668437661,1469.5304668437661,1.003459337718263,0.0038837956777299752
1469.5374114102842,1469.5374114102842,0.9991705495734331,0.003883301528426438
1469.5443559767323,1469.5443559767323,0.9987625120660713,0.00388731198519388
1469.5513005431799,1469.5513005431799,1.0065850707957704,0.0038860882974107564
1469.5582451095584,1469.5582451095584,1.0009301838257616,0.003889456074142288
1469.5651896759136,1469.5651896759136,0.9982268294474554,0.003890864804196768
1469.572134242199,1469.572134242199,0.9952616431838525,0.0038925784628419794
1469.5790788084844,1469.5790788084844,0.995508616156236,0.003893398028083292
1469.5860233746996,1469.5860233746996,1.0044207268584486,0.0038857803632244064
1469.5929679408914,1469.5929679408914,0.999596165007136,0.0038890502269425
1469.599912507037,1469.599912507037,0.999939110733188,0.0038851114854816715
1469.6068570730895,1469.6068570730895,1.0030760768929274,0.0038938892446074526
1469.613801639142,1469.613801639142,1.0017388478496083,0.0038852068265733107
1469.6207462051711,1469.6207462051711,0.9977367752000182,0.0038937494874840663
1469.6276907711067,1469.6276907711067,0.9985943693173951,0.0038942410115961694
1469.634635337043,1469.634635337043,1.0001039679389467,0.0038874770838454296
1469.6415799029558,1469.6415799029558,1.0024597389845595,0.003894760548686589
1469.6485244687751,1469.6485244687751,0.9993070084710503,0.0038863782836433816
1469.6554690345718,1469.6554690345718,1.003213237460864,0.0038959782986132904
1469.6624136003213,1469.6624136003213,0.9932596844486371,0.0038971013762913835
1469.669358166047,1469.669358166047,1.0034173394277146,0.0038894019134696834
1469.6763027317272,1469.6763027317272,0.9977167138968073,0.003881187269207575
1469.6832472973606,1469.6832472973606,1.0008505713668918,0.00388359904411816
1469.6901918629706,1469.6901918629706,0.9984271843536284,0.0038823469454312616
1469.6971364284877,1469.6971364284877,0.9978034469205506,0.003885845687670425
1469.7040809939808,1469.7040809939808,1.0030321088749619,0.0038853592583719446
1469.7110255594514,1469.7110255594514,0.9985216392389775,0.0038810786181373838
1469.717970124852,1469.717970124852,1.004814404100924,0.0038803646685239175
1469.7249146902523,1469.7249146902523,1.0014743530302996,0.00388248295160168
1469.7318592555598,1469.7318592555598,0.9980198646502814,0.0038879124646937747
1469.7388038208903,1469.7388038208903,1.0008811453232664,0.003886008298201634
1469.7457483861042,1469.7457483861042,0.9996917816389834,0.0038871289676084136
1469.752692951342,1469.752692951342,0.9991760340637448,0.003892770333264147
1469.7596375164862,1469.7596375164862,0.999593190470413,0.0038880095801218594
1469.7665820816308,1469.7665820816308,0.9989904497707831,0.0038926968517641173
1469.7735266467052,1469.7735266467052,1.0007670977501841,0.0038906831952558478
1469.7804712117327,1469.7804712117327,0.9977795009399296,0.003906361248466256
1469.7874157767844,1469.7874157767844,0.9994725920130827,0.00389240620052782
1469.7943603416722,1469.7943603416722,0.9989083056999275,0.003889403922115961
1469.8013049066074,1469.8013049066074,1.000701777881896,0.003888460793337046
1469.8082494714724,1469.8082494714724,1.0004507454176463,0.0038885313565854866
1469.8151940363136,1469.8151940363136,1.001687539544671,0.0039003744353367587
1469.8221386010857,1469.8221386010857,1.0021318093860976,0.0038921646029111143
1469.8290831658342,1469.8290831658342,1.0002090886675286,0.00389552397981459
1469.8360277305128,1469.8360277305128,0.9986980213963486,0.003882609496185775
1469.8429722951919,1469.8429722951919,0.9998520816706252,0.0038924477057332473
1469.8499168598005,1469.8499168598005,1.0007855547102396,0.0038984516710046427
1469.8568614243627,1469.8568614243627,0.9966861503194417,0.0039053924966063547
1469.8638059889013,1469.8638059889013,1.0019203011501396,0.0038911402288692746
1469.870750553417,1469.870750553417,0.9975561928954052,0.0038873185279612297
1469.8776951178168,1469.8776951178168,1.0017089097546346,0.0038924812405686585
1469.884639682216,1469.884639682216,1.0017801351786129,0.0038825870466797107
1469.8915842466154,1469.8915842466154,1.0000693248262802,0.003889254877833908
1469.8985288109213,1469.8985288109213,0.9994109997812552,0.003882450819369885
1469.905473375204,1469.905473375204,0.9999244611234476,0.0038793897092361815
1469.9124179394175,1469.9124179394175,0.998320023479345,0.0038773491857820065
1469.91936250363,1469.91936250363,1.000738033802335,0.003890554844988489
1469.9263070677735,1469.9263070677735,1.000921619799347,0.003881372910680124
1469.9332516318705,1469.9332516318705,0.9980822446619056,0.003888216433780005
1469.9401961959434,1469.9401961959434,1.0006487017197112,0.0038764760791806492
1469.9471407599933,1469.9471407599933,1.003653483080576,0.0038824533912033394
1469.9540853239505,1469.9540853239505,0.9986556299760254,0.003878214652034555
1469.9610298878843,1469.9610298878843,1.002938757975539,0.0038783614554978125
1469.9679744517482,1469.9679744517482,0.9962541448974852,0.0038825842411429764
1469.9749190156813,1469.9749190156813,0.9967934969492998,0.0038785568999488524
1469.9818635794518,1469.9818635794518,1.0014358886712529,0.003888802533764571
1469.9888081431993,1469.9888081431993,0.9980964974717429,0.0038869869614131533
1469.9957527069234,1469.9957527069234,1.0029231738889401,0.003892326803679629
1470.0026972706241,1470.0026972706241,1.0008848376794783,0.0038841452644370555
1470.0096418342555,1470.0096418342555,1.003985691249437,0.003888141443073401
1470.0165863978395,1470.0165863978395,0.9985189320929792,0.0038949932455108116
1470.0235309613772,1470.0235309613772,0.9961382927784582,0.0038808915658982853
1470.0304755249151,1470.0304755249151,1.0005936893636873,0.003891823225182735
1470.03742008836,1470.03742008836,0.9969511767347736,0.0038812799559956026
1470.0443646518047,1470.0443646518047,1.0016452526032773,0.0038864754834142907
1470.0513092151796,1470.0513092151796,1.0005752046625063,0.0038885561302068926
1470.0582537785308,1470.0582537785308,0.9993427154792249,0.003884656881643781
1470.0651983418124,1470.0651983418124,1.00170582296633,0.003904222444321878
