time,time,flux,flux_err
1354.1152632138198,1354.1152632138198,1.0004759837548225,0.0012713586014693203
1354.1240596105986,1354.1240596105986,0.9999299305195012,0.0012715337918598724
1354.132393039192,1354.132393039192,0.9993875389502578,0.0012714937160039454
1354.1400320155137,1354.1400320155137,1.001466209444385,0.001161071804920553
1354.1469765395366,1354.1469765395366,0.9981534962228619,0.001160198476910334
1354.1539210636524,1354.1539210636524,1.0004774168761272,0.001161286845870647
1354.160865587768,1354.160865587768,0.9997910595510822,0.0011611128963864628
1354.1678101120003,1354.1678101120003,0.9998102381492899,0.0011611293720282217
1354.174754636349,1354.174754636349,1.0012440409830088,0.0011616074724636188
1354.1816991607213,1354.1816991607213,0.9990988142648838,0.0011611291179173203
1354.188643685163,1354.188643685163,1.000041401240781,0.001161362949434901
1354.1955882096513,1354.1955882096513,0.9997334751688138,0.0011617095495961198
1354.2025327342562,1354.2025327342562,1.0000633974278241,0.0011620466346255066
1354.2094772588841,1354.2094772588841,0.9992626795464451,0.0011619322303537305
1354.2164217836053,1354.2164217836053,1.0009314050451348,0.0011622711675546174
1354.2233663084198,1354.2233663084198,1.0004110508973452,0.0011624645248824983
1354.2303108332342,1354.2303108332342,1.0007635745579082,0.001162546601437439
1354.2372553581185,1354.2372553581185,0.9989839528742914,0.0011625021235698806
1354.244199883049,1354.244199883049,0.9980203294513658,0.0011619514691581598
1354.2511444080963,1354.2511444080963,1.001319907886383,0.0011625614151655143
1354.2580889331668,1354.2580889331668,0.9991443607600392,0.0011623933721743227
1354.2650334583072,1354.2650334583072,0.9999819340881801,0.0011624508419433468
1354.2719779834704,1354.2719779834704,1.0023273532194257,0.0011632793492048973
1354.2789225087274,1354.2789225087274,1.0003005307741197,0.001162300920296436
1354.2858670340536,1354.2858670340536,0.9996643620411462,0.0011623903862369527
1354.292811559357,1354.292811559357,0.9989532575138534,0.0011618496581388218
1354.2997560848003,1354.2997560848003,1.0009763133291485,0.0011626295545667427
1354.3067006102663,1354.3067006102663,0.9994060467338345,0.001161560169466641
1354.3136451358027,1354.3136451358027,0.997908805097661,0.001162088297716729
1354.3205896613385,1354.3205896613385,0.9999504671220315,0.0011623773759518352
1354.3275341869678,1354.3275341869678,1.0009264563676237,0.0011623428123672043
1354.3344787126439,1354.3344787126439,1.0007788356514913,0.0011628728145639063
1354.3414232383195,1354.3414232383195,1.001722157443497,0.0011631781349836802
1354.3483677640884,1354.3483677640884,1.0012268057080302,0.0011625617463266115
1354.3553122898807,1354.3553122898807,0.9983686279513165,0.0011616771697914162
1354.362256815743,1354.362256815743,0.9976264426765011,0.0011614124580932904
1354.3692013416282,1354.3692013416282,0.9989931575871631,0.0011614557054758804
1354.3761458676067,1354.3761458676067,0.9994365455361741,0.0011609494043053358
1354.383090393585,1354.383090393585,1.0011673961480916,0.0011616616785701773
1354.3900349195637,1354.3900349195637,1.0013474005499112,0.0011612052808972558
1354.396979445612,1354.396979445612,1.000242556479567,0.0011607234363548774
1354.403923971707,1354.403923971707,1.0007177423622924,0.0011612829378377135
1354.4108684978487,1354.4108684978487,1.001059041695886,0.0011616412802754102
1354.4178130240364,1354.4178130240364,0.9981040638317662,0.001160136976972538
1354.424757550248,1354.424757550248,1.0011424004503424,0.0011606645636988854
1354.4317020765054,1354.4317020765054,0.999101261415464,0.0011599750998151671
1354.4386466027868,1354.4386466027868,0.9982589797603876,0.001160024548898402
1354.4455911291147,1354.4455911291147,1.0012960833085374,0.0011606098562784643
1354.4525356554657,1354.4525356554657,0.9993972589762,0.001160533310989515
1354.4594801818632,1354.4594801818632,1.0008658008993647,0.0011607912274165832
1354.4664247083074,1354.4664247083074,1.0000197554970673,0.0011602733854605206
1354.4733692347747,1354.4733692347747,1.0004583953487063,0.0011603741648996784
1354.4803137612425,1354.4803137612425,1.0002416908667562,0.00116069327233856
1354.487258287803,1354.487258287803,1.0005139371779816,0.0011604448122873058
1354.4942028143632,1354.4942028143632,0.9993257690334714,0.0011603105575173436
1354.5011473409243,1354.5011473409243,0.9993941871482068,0.0011598340781103747
1354.508091867531,1354.508091867531,0.9996423537899494,0.0011598552272051382
1354.5150363941616,1354.5150363941616,0.9989327234243971,0.0011596321420806759
1354.5219809208388,1354.5219809208388,1.000085951745175,0.0011599547263658693
1354.5289254475388,1354.5289254475388,1.0008785349843095,0.0011598040454518332
1354.5358699742626,1354.5358699742626,1.0010108779024072,0.0011596826966056796
1354.5428145010326,1354.5428145010326,1.0000845636089846,0.0011594379435357423
1354.5497590277794,1354.5497590277794,1.0000480561442204,0.001159029361390884
1354.5567035545962,1354.5567035545962,0.9992491883584567,0.0011585092039531572
1354.5636480813894,1354.5636480813894,1.0008781059015772,0.001158861832436972
1354.5705926082528,1354.5705926082528,1.0011928167371296,0.0011593051872711905
1354.5775371351392,1354.5775371351392,0.9996248813489352,0.0011588377553956126
1354.584481662026,1354.584481662026,1.0005041257097247,0.0011593173749749183
1354.5914261889359,1354.5914261889359,1.0015126448109224,0.0011596568679293749
1354.598370715869,1354.598370715869,0.9987192099784108,0.001158491716672061
1354.605315242848,1354.605315242848,1.0002279542197554,0.0011587098791287663
1354.612259769805,1354.612259769805,0.9993795307900154,0.0011588727025072228
1354.6192042968075,1354.6192042968075,0.9991126865167193,0.0011585131419583317
1354.626148823834,1354.626148823834,0.9988445337856314,0.0011580689842288256
1354.6330933508602,1354.6330933508602,0.9994547411192023,0.0011584235829394964
1354.6400378779329,1354.6400378779329,1.0010580681031322,0.0011586330917340046
1354.6469824049825,1354.6469824049825,1.002262651105466,0.0011590521045791893
1354.6539269320788,1354.6539269320788,1.0014539786542787,0.0011585795512407794
1354.6608714591516,1354.6608714591516,0.9995432064556073,0.001158292146170348
1354.6678159862945,1354.6678159862945,0.9982233806824212,0.0011580267614929914
1354.6747605134367,1354.6747605134367,1.0005250704344515,0.0011586176506387345
1354.6817050405793,1354.6817050405793,0.9991628740802099,0.0011582280113789374
1354.6886495677222,1354.6886495677222,0.9988537137205122,0.001158214964458857
1354.6955940949113,1354.6955940949113,1.0001066803278058,0.001158984781334977
1354.702538622124,1354.702538622124,1.0026220512360162,0.001159218667444751
1354.7094831493132,1354.7094831493132,0.9999014611793722,0.0011586549851140182
1354.7164276765257,1354.7164276765257,0.9979962847188949,0.0011581029101684404
1354.7233722037618,1354.7233722037618,0.9988400377230654,0.0011579309116748837
1354.7303167309974,1354.7303167309974,1.000715277394564,0.0011576172557362535
1354.7372612582333,1354.7372612582333,0.9980468986372195,0.0011566429030104
1354.7442057855155,1354.7442057855155,0.999341996750766,0.0011569757362924352
1354.7511503127746,1354.7511503127746,1.000447884662884,0.001156710186201753
1354.7580948400569,1354.7580948400569,1.0002569039033458,0.0011565519513272104
1354.7650393673625,1354.7650393673625,1.0005296412479776,0.001156362881322238
1354.7719838946448,1354.7719838946448,1.0005999934645002,0.0011560003401996533
1354.7789284219502,1354.7789284219502,1.001367441277664,0.0011558831802636602
1354.7858729492793,1354.7858729492793,1.000154984040535,0.0011554089970097024
1354.792817476585,1354.792817476585,1.001760679763977,0.0011556029866612973
1354.799762003914,1354.799762003914,0.9972157541071536,0.0011539451568359329
1354.806706531243,1354.806706531243,0.9988378259853157,0.0011544859106539943
1354.8136510586187,1354.8136510586187,1.0006797081791001,0.0011547006610119815
1354.820595585947,1354.820595585947,0.9996712207971139,0.0011549200787151054
1354.8275401132994,1354.8275401132994,1.000132258129652,0.0011544974360763363
1354.834484640675,1354.834484640675,0.9999856253577887,0.0011543190382888814
1354.8414291680272,1354.8414291680272,1.0012964296542495,0.0011548182549487385
1354.8483736954029,1354.8483736954029,0.9993099314847835,0.0011547494594176682
1354.8553182227781,1354.8553182227781,1.0001648536459322,0.0011549183539297805
1354.862262750154,1354.862262750154,0.9987307419197771,0.0011537016088002789
1354.8692072775298,1354.8692072775298,0.9998668245829982,0.0011543852809688523
1354.8761518049282,1354.8761518049282,1.001975248626767,0.0011549152571504525
1354.8830963323035,1354.8830963323035,0.9993788713723888,0.0011542177591683338
1354.8900408597024,1354.8900408597024,1.000444105945831,0.0011543694340568856
1354.896985387101,1354.896985387101,0.9996427484733064,0.001153892452118342
1354.9039299144765,1354.9039299144765,0.9995639968415173,0.0011544145888873225
1354.9108744418986,1354.9108744418986,1.000032659844621,0.0011544712696320693
1354.9178189692739,1354.9178189692739,1.0003205135678321,0.0011542670765726604
1354.9247634966728,1354.9247634966728,1.000423129633329,0.0011536700556984175
1354.9319858051808,1354.9319858051808,0.9992400866981261,0.0011536218888006278
1354.9400414569457,1354.9400414569457,0.9995894801332639,0.0011540020823072473
1354.9469859843446,1354.9469859843446,0.9981582560401412,0.0011532931066460118
1354.9539305117667,1354.9539305117667,1.0006475367953847,0.0011539862730538843
1354.9608750391417,1354.9608750391417,1.0006545607689241,0.001153734079139675
1354.9678195665408,1354.9678195665408,1.0022097930275542,0.0011541888768448639
1354.9747640939393,1354.9747640939393,0.9994953744029921,0.0011535354145525833
1354.9817086213152,1354.9817086213152,1.001178706525772,0.001153956733530848
1354.9886531487139,1354.9886531487139,0.9986760804135277,0.001153815621797961
1354.9955976761125,1354.9955976761125,0.9988886019647308,0.0011536855127772048
1355.0025422034882,1355.0025422034882,0.999580177474558,0.0011542519816478132
1355.0094867308637,1355.0094867308637,1.0013239147804796,0.0011548065999344196
1355.0164312582624,1355.0164312582624,0.9997485365981686,0.0011546139426200682
1355.0233757856379,1355.0233757856379,1.0001209590308726,0.0011550564398138123
1355.0303203129902,1355.0303203129902,1.000502781001498,0.0011559770073347527
1355.0372648403657,1355.0372648403657,1.000349280302096,0.0011558271237031678
1355.0442093677411,1355.0442093677411,1.0000999561845305,0.001156447063520508
1355.0511538950934,1355.0511538950934,0.9997813830120308,0.0011561131112925427
1355.058098422469,1355.058098422469,0.9992733812228447,0.0011565440969185886
1355.0650429497978,1355.0650429497978,1.0004029036086268,0.0011567759198821456
1355.0719874771264,1355.0719874771264,0.9985407653813526,0.0011569470767779802
1355.078932004479,1355.078932004479,1.0001037366158112,0.0011579029142869508
1355.0858765318076,1355.0858765318076,0.999493425387491,0.0011578329166439722
1355.092821059137,1355.092821059137,0.9998302213679346,0.0011577215815371026
1355.099765586489,1355.099765586489,1.0013504856792044,0.0011586159970435243
1355.106710113771,1355.106710113771,1.0005562125873377,0.0011580594919974826
1355.1136546411003,1355.1136546411003,0.9998482220677236,0.0011591540855557876
1355.120599168406,1355.120599168406,0.9992375962719461,0.0011589723212725082
1355.1275436956882,1355.1275436956882,1.0010859360782638,0.0011594399875184856
1355.1344882229942,1355.1344882229942,1.0005822210589113,0.001159375310000026
1355.1414327502762,1355.1414327502762,1.0002188955940317,0.0011595008658846666
1355.1483772775357,1355.1483772775357,0.9999051132297556,0.001160095925796419
1355.1553218048177,1355.1553218048177,0.9983753582515618,0.0011595781093240837
1355.1622663320536,1355.1622663320536,0.9992644212690923,0.0011603447585100705
1355.169210859313,1355.169210859313,1.001042479356943,0.0011608507560340096
1355.1761553865485,1355.1761553865485,1.0007017699912342,0.0011614905458547423
1355.1830999137842,1355.1830999137842,0.998212328583757,0.0011606342935464096
1355.1900444410205,1355.1900444410205,1.0005325022175267,0.0011619740273966905
1355.1969889682096,1355.1969889682096,1.000154357564074,0.001161962664114069
1355.2039334954454,1355.2039334954454,1.00102363728378,0.001162270384989986
1355.2108780225878,1355.2108780225878,1.00069948371069,0.0011623776931837062
1355.217822549847,1355.217822549847,1.0002298502522615,0.0011625180910855098
1355.2247670769898,1355.2247670769898,0.9987634624690207,0.001162425894360125
1355.2317116041324,1355.2317116041324,0.9998102678218755,0.001163099635661914
1355.238656131275,1355.238656131275,0.999395582648261,0.0011629620341556675
1355.2456006584175,1355.2456006584175,1.0008838263024316,0.0011632049445974208
1355.2525451855604,1355.2525451855604,0.9979003806972182,0.0011625879590660916
1355.2594897127033,1355.2594897127033,1.001062971939185,0.0011634042517330774
1355.2664342398457,1355.2664342398457,1.0002317599790689,0.0011633939148228104
1355.2733787669185,1355.2733787669185,1.0011518675209439,0.0011634118698561947
1355.2803232940146,1355.2803232940146,1.0002756401762862,0.0011634383830351365
1355.2872678210874,1355.2872678210874,0.9983169919052329,0.001162835432809987
1355.2942123481835,1355.2942123481835,1.0007381358903493,0.0011633369943027266
1355.3011568752097,1355.3011568752097,1.000424704950254,0.0011630206302097193
1355.3081014022594,1355.3081014022594,0.9998809356524283,0.0011625051083174976
1355.3150459292856,1355.3150459292856,0.9991359520845897,0.001162009090741373
1355.321990456312,1355.321990456312,0.9997462010268791,0.001162216091893139
1355.3289349833149,1355.3289349833149,1.000495246962594,0.0011627218377359215
1355.336990634614,1355.336990634614,1.000196269779623,0.0011618812777831578
1355.3442129426796,1355.3442129426796,0.9993079885701771,0.0011614002093804543
1355.3511574696593,1355.3511574696593,0.9999787152914393,0.0011613539307597132
1355.3581019966157,1355.3581019966157,1.0006610736291424,0.0011615039095600043
1355.3650465235487,1355.3650465235487,1.0012411482513301,0.0011615813844648153
1355.371991050482,1355.371991050482,0.9998075958830462,0.001160991836090897
1355.3789355773686,1355.3789355773686,0.9998724141017293,0.0011616301849710865
1355.3858801042784,1355.3858801042784,1.0004546361633753,0.0011613600349682433
1355.3928246311648,1355.3928246311648,1.0001239083684348,0.0011613345057356263
1355.40115806341,1355.40115806341,0.9990510524950127,0.0011606491493594674
1355.4081025902733,1355.4081025902733,0.9974926370293818,0.0011603990599199276
1355.4150471171135,1355.4150471171135,1.000491447939281,0.001161410140040823
1355.421991643907,1355.421991643907,1.000942088234167,0.0011607001968426689
1355.4289361707465,1355.4289361707465,1.0012217869200601,0.0011611650442996827
1355.4358806975401,1355.4358806975401,0.9996885046270256,0.001160570934421058
1355.4428252243106,1355.4428252243106,0.9997404261522835,0.0011606424542316657
1355.4497697511038,1355.4497697511038,1.0004870120609357,0.0011610112793133656
1355.4567142778278,1355.4567142778278,1.0003053094140135,0.0011602935502272108
1355.4636588045744,1355.4636588045744,0.9994486243322414,0.001160412988057359
1355.4706033312748,1355.4706033312748,0.997721940385907,0.0011594643143683432
1355.4775478579984,1355.4775478579984,1.0024765023266338,0.0011607590921336587
1355.4844923846983,1355.4844923846983,0.9992167489895684,0.0011604807355601822
1355.4914369113526,1355.4914369113526,0.9988072447446011,0.0011598443606928707
1355.4983814380291,1355.4983814380291,1.0026788397410038,0.0011612019966599188
1355.5053259646597,1355.5053259646597,0.9992274273936712,0.0011599991089409998
1355.512270491267,1355.512270491267,1.0009234977127872,0.0011607414241619081
1355.5192150179207,1355.5192150179207,0.998271189885702,0.0011600667313883444
1355.5261595445045,1355.5261595445045,1.0007692527245275,0.0011602328033219252
1355.5331040710648,1355.5331040710648,1.0007912209000647,0.001160918015282337
1355.5400485976259,1355.5400485976259,1.0000469402694823,0.0011608049977565114
1355.5469931241862,1355.5469931241862,0.9981627147054116,0.0011603419880558997
1355.5539376507236,1355.5539376507236,0.999733417039461,0.0011608826742366424
1355.5608821771912,1355.5608821771912,1.001043678988141,0.00116153458011982
1355.5678267037285,1355.5678267037285,0.9998921016775913,0.0011610026240320727
1355.574771230196,1355.574771230196,0.9997886124138751,0.0011608174882390592
1355.58171575664,1355.58171575664,1.001235040771396,0.0011617425520565993
1355.5886602830842,1355.5886602830842,0.9984328648960314,0.0011602647100613617
1355.5956048095054,1355.5956048095054,0.999000749116497,0.0011607570220409243
1355.6025493359261,1355.6025493359261,1.0007443082669485,0.0011612140398248561
1355.6094938623235,1355.6094938623235,1.0006124153638543,0.0011606048380648937
1355.616438388698,1355.616438388698,1.000743336564246,0.0011607745254194664
1355.6233829150256,1355.6233829150256,0.9997843936238124,0.0011606064389234685
1355.630327441377,1355.630327441377,1.000117302595084,0.0011603397248929495
1355.637271967705,1355.637271967705,0.9996965868362873,0.0011598583747165353
1355.6442164940092,1355.6442164940092,0.9998735459918967,0.0011597304369471424
1355.6511610202906,1355.6511610202906,0.9997056771484141,0.0011597481879107969
1355.6581055465717,1355.6581055465717,0.9986915650486186,0.001159541855679585
1355.665050072806,1355.665050072806,1.0005648231886517,0.0011598333789628631
1355.6719945990412,1355.6719945990412,1.000907653559627,0.0011598279082973557
1355.678939125229,1355.678939125229,1.0017001513866186,0.001160395063256638
1355.6858836514405,1355.6858836514405,0.9991891921402292,0.0011597407747709547
1355.6928281776054,1355.6928281776054,0.999941163760974,0.0011593937926773555
1355.6997727037701,1355.6997727037701,0.9989153655646158,0.0011592553923242155
1355.7067172298885,1355.7067172298885,1.0019155241332824,0.0011600927981638453
1355.7136617560066,1355.7136617560066,1.0009961941239458,0.0011600427626358017
1355.720606282101,1355.720606282101,0.9974831707403549,0.00115866377289855
1355.7275508081964,1355.7275508081964,0.9969711792815972,0.0011584739437178987
1355.7344953342213,1355.7344953342213,1.0017453054164522,0.001158935735038748
1355.7417176413553,1355.7417176413553,0.9996945997102967,0.0011587412596875432
1355.7497732914908,1355.7497732914908,1.000637813661611,0.0011583061757081364
1355.756717817469,1355.756717817469,0.9999444333283639,0.0011577848382566859
1355.7636623434478,1355.7636623434478,0.9980634279336533,0.0011570917657124
1355.7706068694263,1355.7706068694263,1.0028377010168907,0.001157580141221424
1355.7775513954045,1355.7775513954045,1.0011196839848273,0.0011569282147764134
1355.7844959212903,1355.7844959212903,1.0002146572881734,0.0011566338569006366
1355.791440447199,1355.791440447199,0.9995073503153907,0.0011560222848755947
1355.798384973084,1355.798384973084,0.999630231075664,0.0011557494146636664
1355.8053294989463,1355.8053294989463,1.0010282927475314,0.0011561907327196541
1355.812274024785,1355.812274024785,0.9988340254524861,0.0011554083665031066
1355.8192185506243,1355.8192185506243,0.9992985675628159,0.0011553849309376481
1355.8261630763932,1355.8261630763932,0.9986509580962067,0.001155219794490839
1355.8331076021855,1355.8331076021855,1.0002107493906531,0.0011556542016372992
1355.8400521279311,1355.8400521279311,1.0002617742156439,0.0011555472416973948
1355.8469966536766,1355.8469966536766,1.0014238183369006,0.0011556297767637649
1355.8539411793993,1355.8539411793993,0.9993640263142181,0.001154638422762614
1355.8608857050751,1355.8608857050751,1.001393138166571,0.0011549516759673311
1355.8678302307742,1355.8678302307742,0.9998724390825006,0.0011547473708311204
1355.874774756427,1355.874774756427,1.0002657885204624,0.00115471249476184
1355.8817192820563,1355.8817192820563,0.998750498012251,0.0011540636697169484
1355.8886638076854,1355.8886638076854,0.999196835946357,0.001154196681885444
