time,time,flux,flux_err
1624.962436922953,1624.962436922953,1.0000368996842872,0.0009108491972650824
1624.9707703060221,1624.9707703060221,1.0003933204801763,0.0009138683582829889
1624.979103689091,1624.979103689091,0.9998018595326513,0.0009168181463232873
1624.9874370721607,1624.9874370721607,1.000760540803987,0.0009187124044951185
1624.9950760066954,1624.9950760066954,0.9985313415968854,0.0008397605614962379
1625.0020204926575,1625.0020204926575,0.9983004370078152,0.0008416701507703277
1625.0089649786194,1625.0089649786194,1.0005212235901906,0.0008428323657055479
1625.0159094646283,1625.0159094646283,1.0011359077416118,0.0008448638118487871
1625.0228539506365,1625.0228539506365,1.00001997581574,0.0008464708661422944
1625.0297984367385,1625.0297984367385,1.000715413338518,0.0008487853703465769
1625.0367429228404,1625.0367429228404,0.9994727209356278,0.0008505978057600797
1625.0436874089887,1625.0436874089887,0.999551671351629,0.0008529094462935087
1625.0506318951839,1625.0506318951839,1.0004120553414257,0.0008554621682744107
1625.0575763814716,1625.0575763814716,1.000621962731209,0.0008577883959154434
1625.0645208677593,1625.0645208677593,0.9988932293911559,0.0008602150992733608
1625.0714653540945,1625.0714653540945,1.0002748905373813,0.0008622786572146903
1625.0784098405686,1625.0784098405686,1.0001926885081631,0.0008643748104785979
1625.0853543270891,1625.0853543270891,1.000057188685598,0.0008655975761593349
1625.0922988136103,1625.0922988136103,1.0006883185822357,0.0008673044776250832
1625.0992433002243,1625.0992433002243,0.9997269060980909,0.0008685272431392882
1625.1061877869781,1625.1061877869781,0.9987986675889884,0.0008699665445663117
1625.1131322736385,1625.1131322736385,1.0012495854237458,0.0008719198512101714
1625.1200767605321,1625.1200767605321,0.9993130170213963,0.0008724160828900472
1625.1270212474253,1625.1270212474253,0.9994552438238952,0.0008735234977445125
1625.1339657345518,1625.1339657345518,1.0004934255544782,0.0008746593267072042
1625.1409102216312,1625.1409102216312,0.9999652862423162,0.0008754873819623036
1625.147854708804,1625.147854708804,0.9997688605907019,0.0008764845357242306
1625.15479919607,1625.15479919607,1.00056156953227,0.0008771562137671627
1625.1617436834756,1625.1617436834756,1.000475078805835,0.0008788913518920997
1625.1686881709277,1625.1686881709277,0.9997185994512288,0.0008792322766653062
1625.1756326584734,1625.1756326584734,0.9998659451700516,0.0008801106891231879
1625.1836882641542,1625.1836882641542,0.9997129913430859,0.0008812640889771725
1625.190910531408,1625.190910531408,0.9998689177554743,0.0008828596353960136
1625.197855019326,1625.197855019326,0.998912149324544,0.0008833164457541943
1625.204799507151,1625.204799507151,1.0013434942078612,0.0008850801308234098
1625.211743995255,1625.211743995255,1.000231575842318,0.0008860146417127353
1625.219799601634,1625.219799601634,1.001024205158927,0.0008873684260644642
1625.228410767105,1625.228410767105,0.9986105572417999,0.0008885280397505762
1625.2353552554891,1625.2353552554891,1.000226050124887,0.000890180403288193
1625.243410862194,1625.243410862194,1.000176216005691,0.0008919171018497345
1625.2506331303794,1625.2506331303794,0.999659169691484,0.0008933249413327629
1625.2575776191818,1625.2575776191818,1.0005315632629022,0.000894715941733571
1625.2645221080315,1625.2645221080315,1.000171101609201,0.000895552775627607
1625.2725777152489,1625.2725777152489,0.9989237672377159,0.0008976450547343486
1625.2797999839927,1625.2797999839927,0.9999762204156873,0.0008993408091350847
1625.2867444732146,1625.2867444732146,0.9996448481851223,0.0009008597472136154
1625.2936889624366,1625.2936889624366,0.9997442595231331,0.0009019636380317268
1625.3009112315062,1625.3009112315062,1.0015235884843459,0.0009044402347502549
1625.3103557373136,1625.3103557373136,1.0001885197470841,0.0009070435600056755
1625.3173002270007,1625.3173002270007,0.9998613475783074,0.0009085200576144636
1625.325355835243,1625.325355835243,0.9994471418793915,0.000911159603934
1625.3325781047783,1625.3325781047783,0.9998593171478122,0.0009129256464650036
1625.3395225948384,1625.3395225948384,1.0004419983085455,0.0009149890309006843
1625.3464670849914,1625.3464670849914,0.9999196370342934,0.0009167505845755874
1625.3534115753307,1625.3534115753307,1.0007777256636938,0.0009185694350270559
1625.3603560657164,1625.3603560657164,0.9997415389908925,0.0009200869384649471
1625.367300556242,1625.367300556242,1.0002923349984938,0.000922172411855463
1625.3742450468606,1625.3742450468606,0.9993748609776579,0.0009238181446328779
1625.381189537666,1625.381189537666,0.9999393565923157,0.0009252303716562257
1625.3881340284706,1625.3881340284706,0.999962575756879,0.0009267418983184849
1625.395078519462,1625.395078519462,1.0009149708348144,0.0009286267574723648
1625.402023010546,1625.402023010546,0.9999989227787489,0.000929954622748742
1625.4089675017706,1625.4089675017706,1.0013861369461479,0.000932303914393803
1625.4159119930412,1625.4159119930412,0.9998031820140753,0.0009331342176585246
1625.4228564845446,1625.4228564845446,0.9994948979706706,0.0009344189076943201
1625.429800976094,1625.429800976094,0.9996429767648563,0.000936075113556918
1625.4367454676442,1625.4367454676442,0.9993879750376194,0.0009371431662226395
1625.443689959427,1625.443689959427,1.0002015660039887,0.0009393544643399104
1625.4506344513031,1625.4506344513031,0.9990695727895644,0.0009402472193311481
1625.4575789432724,1625.4575789432724,0.9998047643974891,0.0009417488150815169
1625.464523435288,1625.464523435288,1.0002095155411292,0.0009433271048445985
1625.4714679275367,1625.4714679275367,1.0019623263831046,0.0009458438488799072
1625.479523538619,1625.479523538619,1.0004630231503602,0.0009471989761105964
1625.486745810716,1625.486745810716,0.9987128775103529,0.0009483681023686669
1625.4936903032435,1625.4936903032435,1.0006318627964348,0.0009499816120505589
1625.5006347959581,1625.5006347959581,0.9992954501938878,0.0009515021853161874
1625.5075792886723,1625.5075792886723,1.0000087400583324,0.0009533840997198665
1625.5145237815254,1625.5145237815254,0.9991542601001203,0.0009549857480124947
1625.521468274473,1625.521468274473,0.9999021515814489,0.0009568951715468295
1625.5284127675127,1625.5284127675127,0.9999125932695891,0.0009588607174796634
1625.5353572607394,1625.5353572607394,1.0009536789232807,0.0009604359911770252
1625.5423017539656,1625.5423017539656,0.9996846936782214,0.0009615331958355011
1625.5492462473783,1625.5492462473783,1.000575838835677,0.0009629596841251988
1625.5561907408376,1625.5561907408376,0.99975720960629,0.0009638743450947832
1625.5631352344365,1625.5631352344365,0.9996862024333785,0.0009657632563837074
1625.5700797281286,1625.5700797281286,1.0005009660887807,0.0009674007858753751
1625.5770242218668,1625.5770242218668,0.9994670136796324,0.0009684748027228558
1625.5839687157452,1625.5839687157452,0.999981582125762,0.0009696413897058089
1625.5909132097634,1625.5909132097634,1.0003544781443623,0.0009716178781736045
1625.5978577038281,1625.5978577038281,1.0002049622299582,0.000972848417733228
1625.6048021979855,1625.6048021979855,1.0010705621391163,0.0009739600427431473
1625.6117466922828,1625.6117466922828,0.9997847801336585,0.0009758602978644733
1625.6186911866273,1625.6186911866273,0.998580695217915,0.000977226916783155
1625.6256356811107,1625.6256356811107,0.9988173621178777,0.0009789847086511844
1625.6325801756877,1625.6325801756877,1.0008315816443374,0.0009810411984562755
1625.6395246703573,1625.6395246703573,1.000558945310876,0.0009828806865660852
1625.646469165074,1625.646469165074,1.0007687116841968,0.0009853105107788392
1625.6534136598832,1625.6534136598832,1.0010429457424888,0.0009879869327244885
1625.6603581549257,1625.6603581549257,0.9988646499735765,0.0009903742418820036
1625.6673026499684,1625.6673026499684,0.9986578022303296,0.0009935796903223332
1625.6742471450107,1625.6742471450107,1.0009107307937106,0.0009966985217897083
1625.6811916401928,1625.6811916401928,0.9987914478985764,0.0009996418715725321
1625.6881361354685,1625.6881361354685,1.00029619531081,0.0010030889837764835
1625.6950806308364,1625.6950806308364,0.9992775987144222,0.0010064236616449515
1625.702025126345,1625.702025126345,1.0013728175618843,0.0010105200279502764
1625.7089696218993,1625.7089696218993,1.000913277553209,0.0010145556408004486
1625.7159141175473,1625.7159141175473,0.9992182715929976,0.0010178343886233742
1625.7228586132412,1625.7228586132412,1.0011648672674685,0.001022045033476807
1625.7298031090754,1625.7298031090754,1.000019815542068,0.0010258829044859803
1625.7367476049562,1625.7367476049562,0.998463748739803,0.0010299445841052731
1625.7436921009767,1625.7436921009767,1.0000583196841337,0.0010345530732013572
1625.750636596997,1625.750636596997,1.0003889843699387,0.001039147720963939
1625.7575810932037,1625.7575810932037,0.9993136892226637,0.001043046106133616
1625.7645255894106,1625.7645255894106,0.9997079601339861,0.0010475472072412647
1625.7714700856636,1625.7714700856636,1.0002740203562623,0.001051992318254156
1625.7784145821029,1625.7784145821029,1.0003273233211314,0.001056348599666202
1625.7853590785421,1625.7853590785421,1.0008574353682789,0.0010604320510154577
1625.792303575075,1625.792303575075,1.0009630457169996,0.0010647935061322536
1625.7992480717007,1625.7992480717007,0.9995461597146662,0.001068146465895804
1625.8061925684663,1625.8061925684663,0.9998437683649968,0.0010719017450705704
1625.8131370651847,1625.8131370651847,0.999091468167825,0.0010752440869049148
1625.8200815620435,1625.8200815620435,0.9993429799413638,0.0010790472756196077
1625.827026058995,1625.827026058995,0.9993124054965513,0.0010819883437054344
1625.8339705559933,1625.8339705559933,0.9989785549240693,0.0010852237417153343
1625.840915053038,1625.840915053038,1.0014218624506985,0.0010883831467370102
1625.8478595501756,1625.8478595501756,1.0000438786371233,0.0010908293721802668
1625.8548040473602,1625.8548040473602,1.001492717708915,0.0010938726115244863
1625.8617485446844,1625.8617485446844,0.9984955006658882,0.0010959358800372186
1625.868693042055,1625.868693042055,1.0021344129128682,0.0010986301515513346
1625.8756375394264,1625.8756375394264,1.000813151054632,0.001099819061808014
1625.882582036983,1625.882582036983,1.0010307349259793,0.001101742379090467
1625.8895265345404,1625.8895265345404,1.0003989788046403,0.0011029314110091518
1625.8964710321438,1625.8964710321438,0.9986683554212803,0.0011041327124975142
1625.9034155298402,1625.9034155298402,0.9990098375336807,0.0011053096427977845
1625.9103600276308,1625.9103600276308,0.9983025252228936,0.001106019621739027
1625.9173045254663,1625.9173045254663,0.9992477920951366,0.0011060994153630932
1625.9242490233496,1625.9242490233496,0.9998475554513785,0.001106935768362551
1625.9311935213723,1625.9311935213723,1.000418343387351,0.001106698210186104
1625.9381380193486,1625.9381380193486,1.0026448271459176,0.001107018229503823
1625.9450825174176,1625.9450825174176,1.0001254734863427,0.0011071274257480085
1625.9520270155335,1625.9520270155335,0.9987535451482813,0.001106386849952456
1625.9589715137893,1625.9589715137893,1.0002644354026022,0.0011065509912132785
1625.965916012044,1625.965916012044,0.9992367586161939,0.0011059669074978047
1625.972860510393,1625.972860510393,0.9995734257169506,0.0011057808719290864
1625.979805008835,1625.979805008835,0.9999401182357479,0.0011054777398743396
1625.98674950723,1625.98674950723,0.9992610726342575,0.001105288193821594
1625.9936940056718,1625.9936940056718,1.0007332041940615,0.001106387735805313
1626.0006385043464,1626.0006385043464,1.0003713238969785,0.001105508267044419
1626.0075830029746,1626.0075830029746,1.0017503342658884,0.0011057306790754117
1626.014527501649,1626.014527501649,0.9998844106228617,0.001105429418967132
1626.0214720003703,1626.0214720003703,0.9994973713415112,0.001105986662383195
1626.0284164991845,1626.0284164991845,0.9988842592101583,0.001106126203789189
1626.0353609979989,1626.0353609979989,1.0003446744675935,0.0011061373508285133
1626.0423054969062,1626.0423054969062,0.9992875713766765,0.001106671263000932
1626.0492499959066,1626.0492499959066,0.9999769660808869,0.0011077712927706831
1626.0561944948608,1626.0561944948608,1.000380252509799,0.0011088536438414625
1626.0631389940013,1626.0631389940013,1.0006029872393694,0.001109710355833049
1626.0700834930951,1626.0700834930951,0.9996665373685394,0.0011108290899791257
1626.077027992235,1626.077027992235,1.0013919626947618,0.001112516023713483
1626.083972491468,1626.083972491468,0.9998727328721237,0.0011136713291503505
1626.0909169907486,1626.0909169907486,0.9989409789421279,0.0011142833589012071
1626.0978614900753,1626.0978614900753,1.0014335790147841,0.0011160339821949905
1626.1048059894015,1626.1048059894015,0.9987191796864231,0.0011167495908609517
1626.1117504888211,1626.1117504888211,0.9987351797079509,0.001117992841975906
1626.1186949882874,1626.1186949882874,0.9982539793863786,0.0011192676848609522
1626.1256394878,1626.1256394878,0.9996486171506704,0.0011203008563515726
1626.132583987313,1626.132583987313,1.000015265273412,0.0011216056788922154
1626.1395284870123,1626.1395284870123,0.9971035041077826,0.0011222878941892587
1626.1464729865713,1626.1464729865713,1.0019511127393383,0.0011242388578914953
1626.153417486177,1626.153417486177,1.0006831060108332,0.0011249267302129694
1626.160361986109,1626.160361986109,1.000648831904585,0.0011261314319607816
1626.1673064858082,1626.1673064858082,1.0000561321045063,0.0011266982270627932
1626.1742509856006,1626.1742509856006,1.0004828200370317,0.0011273778624384379
1626.1811954854857,1626.1811954854857,1.0000867815085275,0.001127498308077102
1626.1881399854178,1626.1881399854178,0.9981329136505412,0.0011272309625708584
1626.1950844853495,1626.1950844853495,0.9985626060168709,0.0011273110425982298
1626.202028985328,1626.202028985328,1.0015100284872138,0.0011275061691123855
1626.2089734853994,1626.2089734853994,1.0005208404621166,0.00112708388600647
1626.2159179854712,1626.2159179854712,0.9991379418784676,0.0011264143350721253
1626.222862485589,1626.222862485589,0.9992304367200602,0.0011257544082978331
1626.2298069857075,1626.2298069857075,1.0009271839627114,0.001125057572422825
1626.236751485872,1626.236751485872,1.0001643905839046,0.0011244339987273662
1626.2436959861764,1626.2436959861764,1.001189526245383,0.0011238184802475032
1626.250640486434,1626.250640486434,1.0000619718884542,0.0011227482643177324
1626.257584986739,1626.257584986739,0.9990923933868088,0.0011215245461282963
1626.264529487043,1626.264529487043,1.0017855747039548,0.0011208135452144738
1626.271473987441,1626.271473987441,1.0004673020686488,0.0011192811200994375
1626.2784184878378,1626.2784184878378,0.9998644861504745,0.0011179971713054962
1626.2853629882823,1626.2853629882823,0.9994419894473211,0.0011168250869686965
1626.2923074887728,1626.2923074887728,0.9992223164158608,0.0011157338762735947
1626.2992519893105,1626.2992519893105,1.0014526842166125,0.001115187428130828
1626.3061964898475,1626.3061964898475,0.9996392917656605,0.0011141247289124354
1626.3131409904777,1626.3131409904777,1.000040937069873,0.0011130527834850054
1626.3200854910615,1626.3200854910615,1.0002673734931669,0.0011131935403745387
1626.327029991692,1626.327029991692,1.0005404644842852,0.0011123652471179805
1626.3339744923687,1626.3339744923687,0.9978909806985451,0.0011120136338096927
1626.3409189931858,1626.3409189931858,0.9988000944431518,0.001111654279603557
1626.347863493816,1626.347863493816,0.9994504443063177,0.0011120925945098102
1626.354807994679,1626.354807994679,1.0006356551777842,0.001111890811398684
1626.3617524955423,1626.3617524955423,1.0003572155558558,0.0011119615860397498
1626.3686969964056,1626.3686969964056,1.0003300666030452,0.0011122154468886734
1626.3756414972686,1626.3756414972686,1.002395975315063,0.0011127898936851657
1626.382585998132,1626.382585998132,1.0001942388112268,0.0011130164304581892
1626.389530498995,1626.389530498995,0.998914736039206,0.0011133757677178253
1626.396474999905,1626.396474999905,0.9988133938499837,0.0011138843905581476
1626.4034195009542,1626.4034195009542,0.9991127256514506,0.0011144611433294466
1626.4103640019573,1626.4103640019573,0.999499077134069,0.0011152332541601606
1626.4173085029602,1626.4173085029602,0.9992465408802407,0.001115845038361331
1626.424253004056,1626.424253004056,1.0016635707064532,0.0011168748084311004
1626.4311975051523,1626.4311975051523,0.9996403981434966,0.001117345434515807
1626.4381420062484,1626.4381420062484,1.0002517645286164,0.001117772665656539
1626.445086507391,1626.445086507391,0.9992992142271373,0.001118521369426939
1626.4520310085331,1626.4520310085331,0.9997131580643153,0.0011189677648132206
1626.458975509769,1626.458975509769,1.0000076751425349,0.0011197096592729457
1626.4659200109581,1626.4659200109581,0.9993930415994192,0.0011205272875975437
1626.4728645122402,1626.4728645122402,1.0004774493598636,0.0011217711448151743
1626.4798090134766,1626.4798090134766,1.0001153368996758,0.0011226933674207422
1626.4867535147587,1626.4867535147587,1.0005549742046997,0.0011240518431350414
1626.4936980160408,1626.4936980160408,0.9997389428824315,0.0011253926996912592
1626.5006425174165,1626.5006425174165,0.9975617055381794,0.0011260750616257772
1626.5075870187452,1626.5075870187452,1.001509976080854,0.0011280834430942716
1626.5145315201205,1626.5145315201205,0.9995822731274451,0.001129134895034628
1626.5214760214963,1626.5214760214963,0.9989139381780625,0.00113067286231384
1626.5284205229648,1626.5284205229648,0.9999525146272029,0.0011324034568113094
1626.5353650243865,1626.5353650243865,0.9997540423914701,0.001133714080294185
1626.542309525855,1626.542309525855,1.0011880479743833,0.0011352492630143977
1626.5492540272771,1626.5492540272771,0.9993224023384164,0.001136642409833042
1626.556198528792,1626.556198528792,1.0006610197886405,0.0011385368049873952
1626.5631430303074,1626.5631430303074,0.999437044658233,0.001139289879784677
1626.5700875318691,1626.5700875318691,1.0015015227125397,0.0011412999208780276
1626.5770320333845,1626.5770320333845,0.9997260509916448,0.0011419929399859407
1626.5839765349458,1626.5839765349458,0.9997528491454482,0.0011437265049674642
1626.5909210365542,1626.5909210365542,1.0001647154752473,0.0011448945483284324
1626.5978655381623,1626.5978655381623,0.9992032399626872,0.0011459135861767516
1626.604810039817,1626.604810039817,1.0002248161327998,0.0011471216129391158
1626.6117545414252,1626.6117545414252,1.0008113188176744,0.0011484030014598198
1626.6186990430804,1626.6186990430804,1.000611189952359,0.0011499109733757187
1626.625643544735,1626.625643544735,1.0004380388351604,0.0011509257734059373
1626.6325880464367,1626.6325880464367,0.9985778855273914,0.0011514392513804607
1626.6395325481378,1626.6395325481378,1.001599036934746,0.0011533591683169535
1626.646477049839,1626.646477049839,0.9978957103800576,0.001154219432377389
1626.6534215515408,1626.6534215515408,1.0000224697898665,0.0011552837788661777
1626.660366053335,1626.660366053335,0.9998669261357126,0.00115608950250543
1626.667310555083,1626.667310555083,1.0004027639452644,0.001157175924230336
1626.674255056831,1626.674255056831,1.0000992083406364,0.001158501173799611
1626.6811995586256,1626.6811995586256,0.9993364071994637,0.0011601763761065263
1626.6881440604197,1626.6881440604197,0.9995968161153919,0.001161623168053831
1626.6950885622614,1626.6950885622614,1.0013522793990641,0.0011633198655195537
1626.7020330641021,1626.7020330641021,0.999330427621419,0.0011652778417848878
1626.708977565943,1626.708977565943,0.9997314387804597,0.0011672509961959967
1626.715922067738,1626.715922067738,0.9998967485035936,0.001169692898432909
1626.7228665696257,1626.7228665696257,1.0007373525883838,0.001172286055980108
1626.7298110715133,1626.7298110715133,0.9994845625017799,0.0011742166800298606
1626.7367555733542,1626.7367555733542,0.9993238794872763,0.0011766714866072486
1626.7437000752884,1626.7437000752884,1.000198396292173,0.0011794247411290133
1626.750644577176,1626.750644577176,1.0006357848272667,0.0011820355000485825
