time,time,flux,flux_err
1517.3522873710965,1517.3522873710965,,
1517.3536762994497,1517.3536762994497,,
1517.355065228269,1517.355065228269,,
1517.356454157087,1517.356454157087,,
1517.3592320142573,1517.3592320142573,,
1517.3606209430766,1517.3606209430766,,
1517.3620098714293,1517.3620098714293,,
1517.3633988002478,1517.3633988002478,1.0049376,0.0005290011
1517.3647877290664,1517.3647877290664,1.0059905,0.00052749953
1517.3675655867025,1517.3675655867025,1.0048296,0.00052483415
1517.3689545150562,1517.3689545150562,1.0051668,0.00052315753
1517.3703434438746,1517.3703434438746,1.0058002,0.000522184
1517.3717323726926,1517.3717323726926,1.0050665,0.00052051706
1517.3745102303308,1517.3745102303308,1.0036219,0.000518353
1517.3758991591487,1517.3758991591487,1.0048771,0.00051759067
1517.3772880884328,1517.3772880884328,1.0031761,0.00051584584
1517.3786770172512,1517.3786770172512,1.0045092,0.00051529775
1517.3800659460696,1517.3800659460696,1.005836,0.0005143003
1517.381454874888,1517.381454874888,1.0042491,0.00051264826
1517.3828438037065,1517.3828438037065,1.0055567,0.00051220926
1517.384232732525,1517.384232732525,1.0041248,0.00051063235
1517.3856216618085,1517.3856216618085,1.0059073,0.0005095493
1517.3870105906278,1517.3870105906278,1.0042299,0.0005084102
1517.388399519447,1517.388399519447,1.0026349,0.0005079836
1517.3897884487303,1517.3897884487303,1.0035406,0.00050664786
1517.3911773775483,1517.3911773775483,1.0044149,0.00050602545
1517.3925663063674,1517.3925663063674,1.003699,0.00050472724
1517.3939552356521,1517.3939552356521,1.0028067,0.0005037993
1517.39534416447,1517.39534416447,1.0031968,0.00050332077
1517.3967330937542,1517.3967330937542,1.0027711,0.0005018671
1517.3981220225726,1517.3981220225726,1.0024719,0.0005010068
1517.3995109518567,1517.3995109518567,1.0025265,0.0005005941
1517.4022888099594,1517.4022888099594,1.0022451,0.0004989163
1517.4036777392437,1517.4036777392437,1.0011855,0.000498796
1517.4050666680612,1517.4050666680612,1.0037049,0.00049779407
1517.4064555973462,1517.4064555973462,1.0021102,0.00049754855
1517.4078445266312,1517.4078445266312,1.0022382,0.00049691764
1517.4092334559143,1517.4092334559143,1.0023751,0.00049525796
1517.4106223847327,1517.4106223847327,1.0017745,0.00049468176
1517.4120113140177,1517.4120113140177,1.0010937,0.00049385807
1517.4134002433018,1517.4134002433018,1.0026753,0.0004933901
1517.4147891725854,1517.4147891725854,1.0003729,0.00049261615
1517.4161781018695,1517.4161781018695,0.9999039,0.000491559
1517.4175670311536,1517.4175670311536,1.0007954,0.000491053
1517.4189559604376,1517.4189559604376,1.0006689,0.00049074594
1517.4203448897226,1517.4203448897226,0.9999236,0.0004896436
1517.421733818541,1517.421733818541,1.0014383,0.0004893995
1517.4231227482903,1517.4231227482903,1.0011835,0.0004887024
1517.4245116775735,1517.4245116775735,1.0007035,0.00048780383
1517.4259006068585,1517.4259006068585,1.0012228,0.00048753197
1517.4272895361435,1517.4272895361435,0.9989385,0.00048714518
1517.4286784654266,1517.4286784654266,1.0007554,0.00048662742
1517.430067394711,1517.430067394711,1.001366,0.0004853898
1517.4314563239957,1517.4314563239957,1.000134,0.00048556994
1517.4328452532798,1517.4328452532798,0.9989059,0.0004847456
1517.434234183029,1517.434234183029,1.0000786,0.00048442962
1517.4356231123131,1517.4356231123131,1.0005449,0.00048386946
1517.4370120415972,1517.4370120415972,0.99911416,0.00048319137
1517.4384009708813,1517.4384009708813,1.0012534,0.00048260458
1517.439789900632,1517.439789900632,0.99837595,0.00048228682
1517.441178829916,1517.441178829916,0.999139,0.000481847
1517.4425677591996,1517.4425677591996,0.99943954,0.00048128088
1517.4439566889494,1517.4439566889494,0.9995236,0.00048111565
1517.4453456182343,1517.4453456182343,0.99921334,0.00048059135
1517.446734547984,1517.446734547984,0.9995825,0.00047995063
1517.4481234772672,1517.4481234772672,1.0004132,0.0004794174
1517.4495124070172,1517.4495124070172,0.99921155,0.00047898962
1517.450901336302,1517.450901336302,0.99884635,0.00047856403
1517.4522902660517,1517.4522902660517,1.0001231,0.00047819628
1517.453679195336,1517.453679195336,0.99996316,0.00047795015
1517.455068125086,1517.455068125086,0.999987,0.00047750605
1517.4564570543691,1517.4564570543691,0.99924487,0.00047684755
1517.4578459841189,1517.4578459841189,0.9993217,0.00047670215
1517.4592349138695,1517.4592349138695,0.999038,0.00047642313
1517.4606238431536,1517.4606238431536,0.99970466,0.00047602956
1517.4620127729029,1517.4620127729029,0.99911517,0.00047546183
1517.4634017026526,1517.4634017026526,1.0007018,0.00047513627
1517.4647906319376,1517.4647906319376,0.9993053,0.000474769
1517.4661795616873,1517.4661795616873,0.99937683,0.00047424447
1517.4675684914364,1517.4675684914364,0.99860966,0.00047402046
1517.4689574211864,1517.4689574211864,0.99843526,0.00047377523
1517.4703463509366,1517.4703463509366,0.9983935,0.000473357
1517.4717352802206,1517.4717352802206,0.99915826,0.0004734422
1517.4731242099706,1517.4731242099706,0.9990836,0.00047306923
1517.4745131397206,1517.4745131397206,0.9998039,0.00047233872
1517.4759020694694,1517.4759020694694,0.9987164,0.00047174652
1517.47729099922,1517.47729099922,0.99921054,0.00047201192
1517.4786799289707,1517.4786799289707,0.99867725,0.0004717898
1517.4800688587195,1517.4800688587195,0.9983071,0.00047131997
1517.4814577884688,1517.4814577884688,0.99992687,0.0004710314
1517.4828467182185,1517.4828467182185,0.9982553,0.00047037718
1517.4842356479692,1517.4842356479692,0.9973201,0.00047038117
1517.485624577719,1517.485624577719,0.99917066,0.00047052506
1517.4870135074686,1517.4870135074686,0.9979451,0.00046963032
1517.4884024372184,1517.4884024372184,0.9994711,0.00046971045
1517.4897913669681,1517.4897913669681,0.99908996,0.0004693302
1517.491180296718,1517.491180296718,0.9994038,0.00046871617
1517.4925692269337,1517.4925692269337,0.9987783,0.00046873823
1517.4939581566834,1517.4939581566834,0.9985262,0.00046832318
1517.4953470864323,1517.4953470864323,0.99852246,0.0004680948
1517.496736016183,1517.496736016183,0.9983789,0.00046793406
1517.4981249459336,1517.4981249459336,0.99977726,0.00046767155
1517.499513876148,1517.499513876148,0.9988131,0.00046747204
1517.5009028058973,1517.5009028058973,0.99924123,0.00046694328
1517.502291735647,1517.502291735647,0.99808973,0.00046695894
1517.5036806658634,1517.5036806658634,0.9982214,0.0004662376
1517.5050695956131,1517.5050695956131,0.9989839,0.00046630416
1517.5064585253629,1517.5064585253629,0.99918824,0.00046615058
1517.5078474555783,1517.5078474555783,0.9988513,0.0004660671
1517.509236385328,1517.509236385328,0.9975389,0.0004654457
1517.5106253150786,1517.5106253150786,0.99897486,0.0004653337
1517.512014245294,1517.512014245294,0.99843216,0.0004652911
1517.5134031750433,1517.5134031750433,0.99859464,0.0004652379
1517.514792105258,1517.514792105258,0.99836105,0.00046482807
1517.5161810350085,1517.5161810350085,0.99898916,0.00046491256
1517.5175699652248,1517.5175699652248,0.99729073,0.00046404163
1517.5189588949738,1517.5189588949738,0.99795574,0.00046407586
1517.5203478251894,1517.5203478251894,0.998252,0.00046386538
1517.5217367549392,1517.5217367549392,1.000014,0.0004637471
1517.5231256851546,1517.5231256851546,1.0003811,0.0004635541
1517.5245146149043,1517.5245146149043,0.99852276,0.00046371488
1517.5259035451197,1517.5259035451197,0.9976154,0.00046323816
1517.5272924753351,1517.5272924753351,0.9982807,0.00046288272
1517.528681405085,1517.528681405085,0.9974532,0.00046276476
1517.5300703353012,1517.5300703353012,0.9980111,0.0004623692
1517.5314592655166,1517.5314592655166,0.9977069,0.00046204383
1517.5328481952658,1517.5328481952658,0.99891657,0.0004619424
1517.5342371254806,1517.5342371254806,0.99838996,0.0004618861
1517.5356260556966,1517.5356260556966,0.9995197,0.00046177942
1517.537014985913,1517.537014985913,0.9987176,0.00046168768
1517.538403915662,1517.538403915662,0.99808985,0.00046138358
1517.5397928458776,1517.5397928458776,0.9985111,0.00046122112
1517.541181776093,1517.541181776093,0.9977247,0.00046066107
1517.5425707063084,1517.5425707063084,0.9981036,0.00046062723
1517.5439596365238,1517.5439596365238,0.9980503,0.00046057167
1517.5453485662736,1517.5453485662736,0.9972114,0.00046025473
1517.546737496489,1517.546737496489,0.99788517,0.00046017673
1517.5481264267046,1517.5481264267046,0.99891883,0.00046029224
1517.5495153569207,1517.5495153569207,0.9978073,0.00046011206
1517.550904287136,1517.550904287136,0.99762493,0.00045990472
1517.552293217351,1517.552293217351,0.99855757,0.00045956954
1517.5536821475664,1517.5536821475664,0.998253,0.00045946
1517.5550710777827,1517.5550710777827,0.9980168,0.00045959512
1517.556460007998,1517.556460007998,0.99729234,0.0004590157
1517.557848938213,1517.557848938213,0.99886596,0.00045920815
1517.5592378684285,1517.5592378684285,0.9976867,0.00045912378
1517.5606267986439,1517.5606267986439,0.9983722,0.0004585011
1517.5620157288593,1517.5620157288593,0.9976877,0.00045858612
1517.5634046590756,1517.5634046590756,0.9982319,0.00045880288
1517.564793589291,1517.564793589291,0.9983815,0.00045817948
1517.5661825195057,1517.5661825195057,0.99782765,0.00045792467
1517.5675714497213,1517.5675714497213,0.9986651,0.00045766565
1517.5689603799372,1517.5689603799372,0.99816847,0.0004577381
1517.5703493101528,1517.5703493101528,0.997577,0.0004578494
1517.5717382403675,1517.5717382403675,0.9979952,0.00045736853
1517.5731271710486,1517.5731271710486,0.9976944,0.00045726055
1517.5745161012649,1517.5745161012649,0.9985677,0.00045729874
1517.5759050314803,1517.5759050314803,0.9974443,0.0004570751
1517.5772939616952,1517.5772939616952,0.9973604,0.0004575036
1517.5786828919106,1517.5786828919106,0.9973636,0.00045654728
1517.5800718225917,1517.5800718225917,0.99838614,0.00045654082
1517.581460752807,1517.581460752807,0.99788225,0.0004564155
1517.5828496830234,1517.5828496830234,0.99707055,0.00045653773
1517.5842386132388,1517.5842386132388,0.997962,0.00045622417
1517.5856275439191,1517.5856275439191,0.9986132,0.00045622495
1517.5870164741352,1517.5870164741352,0.9987878,0.00045602277
1517.5884054043515,1517.5884054043515,0.9970098,0.00045586322
1517.589794335032,1517.589794335032,0.9980971,0.00045581025
1517.5911832652466,1517.5911832652466,0.9977235,0.00045563476
1517.592572195462,1517.592572195462,0.99760467,0.00045561173
1517.593961126144,1517.593961126144,0.9973409,0.0004553986
1517.5953500563594,1517.5953500563594,0.99756515,0.00045543932
1517.5967389865748,1517.5967389865748,0.9981389,0.0004553704
1517.5981279172559,1517.5981279172559,0.99912107,0.0004552552
1517.5995168474708,1517.5995168474708,0.9989554,0.00045539488
1517.6009057781519,1517.6009057781519,0.9979053,0.00045482905
1517.6022947083682,1517.6022947083682,0.99764764,0.00045503397
1517.6036836390492,1517.6036836390492,0.99700075,0.00045510742
1517.6050725692642,1517.6050725692642,0.99828583,0.00045474636
1517.60646149948,1517.60646149948,0.9982342,0.00045490905
1517.607850430162,1517.607850430162,0.9975325,0.00045489753
1517.609239360377,1517.609239360377,0.99763995,0.00045413693
1517.610628291057,1517.610628291057,0.9980718,0.00045413838
1517.6120172212725,1517.6120172212725,0.9979749,0.0004542282
1517.6134061519545,1517.6134061519545,0.99727744,0.00045416845
1517.6147950826355,1517.6147950826355,0.99759495,0.0004540545
1517.616184012851,1517.616184012851,0.9974343,0.00045429688
1517.6175729435322,1517.6175729435322,0.9968643,0.00045352065
1517.618961873747,1517.618961873747,0.9975898,0.00045353235
1517.6203508044289,1517.6203508044289,0.9981895,0.00045372162
1517.6217397351106,1517.6217397351106,0.99816906,0.00045359228
1517.6231286653253,1517.6231286653253,0.99738884,0.00045327816
1517.624517596006,1517.624517596006,0.99772924,0.0004532027
1517.6259065262218,1517.6259065262218,0.997474,0.00045301983
1517.6272954569038,1517.6272954569038,0.99712956,0.0004530417
1517.6286843875844,1517.6286843875844,0.9980075,0.00045363267
1517.6300733177998,1517.6300733177998,0.99709886,0.00045310208
1517.6314622484808,1517.6314622484808,0.9977475,0.0004527212
1517.632851179162,1517.632851179162,0.99827826,0.00045291783
1517.634240109843,1517.634240109843,0.99792475,0.0004526669
1517.6356290400583,1517.6356290400583,0.9978171,0.00045272819
1517.6370179707396,1517.6370179707396,0.998056,0.00045250132
1517.63840690142,1517.63840690142,0.99855304,0.00045219497
1517.639795832102,1517.639795832102,0.9973048,0.0004523327
1517.641184762318,1517.641184762318,0.99797773,0.00045288436
1517.6425736929984,1517.6425736929984,0.9976938,0.0004520569
1517.643962623679,1517.643962623679,0.99815094,0.00045224317
1517.6453515543608,1517.6453515543608,0.99782,0.00045243363
1517.6467404845769,1517.6467404845769,0.99709004,0.0004520033
1517.6481294152575,1517.6481294152575,0.9975308,0.00045170158
1517.6495183459385,1517.6495183459385,0.99705654,0.0004516583
1517.6509072766196,1517.6509072766196,0.9974034,0.00045163353
1517.6522962073007,1517.6522962073007,0.9972027,0.00045162506
1517.6536851379826,1517.6536851379826,0.9976305,0.00045143333
1517.6550740686637,1517.6550740686637,0.99805915,0.00045174695
1517.6564629988786,1517.6564629988786,0.99727684,0.00045115117
1517.6578519295588,1517.6578519295588,0.99805534,0.00045169794
1517.6592408602407,1517.6592408602407,0.99799305,0.0004514381
1517.6606297909227,1517.6606297909227,0.99673337,0.00045112622
1517.6620187216029,1517.6620187216029,0.9968503,0.00045091123
1517.663407652284,1517.663407652284,0.998271,0.0004509692
1517.664796582966,1517.664796582966,0.99739575,0.00045092142
1517.666185513647,1517.666185513647,0.99759924,0.00045087497
1517.6675744443276,1517.6675744443276,0.9979322,0.00045078679
1517.6689633750086,1517.6689633750086,0.9973605,0.00045133304
1517.6703523056897,1517.6703523056897,0.99765307,0.00045063923
1517.6717412363707,1517.6717412363707,0.99828744,0.00045068382
1517.6731301670527,1517.6731301670527,0.99730957,0.00045088792
1517.6745190977338,1517.6745190977338,0.9973907,0.00045089598
1517.6759080284144,1517.6759080284144,0.99790096,0.0004503691
1517.6772969590945,1517.6772969590945,0.9984834,0.0004505321
1517.6786858897765,1517.6786858897765,0.9977084,0.00045038242
1517.6800748204585,1517.6800748204585,0.9974835,0.0004500585
1517.6814637511386,1517.6814637511386,0.99717504,0.0004500732
1517.68285268182,1517.68285268182,0.9975269,0.0004497949
1517.6842416125016,1517.6842416125016,0.9976552,0.0004498091
1517.6856305431827,1517.6856305431827,0.99713594,0.00045080794
1517.6870194738633,1517.6870194738633,0.99867874,0.00044977342
1517.6884084045444,1517.6884084045444,0.9980966,0.0004499288
1517.6897973352254,1517.6897973352254,0.9974219,0.00044943753
1517.6911862663721,1517.6911862663721,0.99785745,0.0004498863
1517.692575197054,1517.692575197054,0.99799997,0.0004494022
1517.6939641277352,1517.6939641277352,0.9975169,0.00044945674
1517.6953530584158,1517.6953530584158,0.99810445,0.00044949987
1517.6967419890968,1517.6967419890968,0.99785155,0.00044922094
1517.6981309197788,1517.6981309197788,0.9977032,0.0004490892
1517.6995198504599,1517.6995198504599,0.9974375,0.00044950508
1517.7009087816057,1517.7009087816057,0.9977406,0.00044910857
1517.702297712287,1517.702297712287,0.99753547,0.00044902624
1517.7036866429687,1517.7036866429687,0.99775857,0.00044887076
1517.7050755736498,1517.7050755736498,0.99673843,0.00044887234
1517.706464504331,1517.706464504331,0.9982022,0.00044869128
1517.707853435478,1517.707853435478,0.9971008,0.00044896745
1517.7092423661582,1517.7092423661582,0.99776083,0.00044867664
1517.7106312968392,1517.7106312968392,0.99915093,0.00044925505
1517.7120202275212,1517.7120202275212,0.9979812,0.00044886142
1517.7134091582022,1517.7134091582022,0.9984514,0.00044835065
1517.7147980893485,1517.7147980893485,0.99745053,0.00044868907
1517.7161870200296,1517.7161870200296,0.9968871,0.00044842952
1517.7175759507115,1517.7175759507115,0.9975057,0.0004479083
1517.7189648813926,1517.7189648813926,0.9976863,0.00044816307
1517.7203538125386,1517.7203538125386,0.9975302,0.0004480076
1517.72174274322,1517.72174274322,0.9971082,0.0004478905
1517.7231316739014,1517.7231316739014,0.9984057,0.0004480578
1517.7245206050482,1517.7245206050482,0.997962,0.0004488447
1517.7259095357294,1517.7259095357294,0.99818045,0.0004475245
1517.7272984664107,1517.7272984664107,0.9973939,0.0004476876
1517.7286873975565,1517.7286873975565,0.9972491,0.00044776397
1517.7300763282385,1517.7300763282385,0.99753666,0.00044759523
1517.7314652589205,1517.7314652589205,0.99749345,0.00044721077
1517.7328541900663,1517.7328541900663,0.9980124,0.0004473955
1517.734243120747,1517.734243120747,0.99854213,0.00044729593
1517.735632051428,1517.735632051428,0.9974197,0.00044751837
1517.7370209825756,1517.7370209825756,0.9978636,0.00044725018
1517.7384099132566,1517.7384099132566,0.99793,0.00044689042
1517.7397988439377,1517.7397988439377,0.99765056,0.0004473853
1517.7411877750844,1517.7411877750844,0.9975176,0.00044672826
1517.7425767057655,1517.7425767057655,0.99742943,0.0004469515
1517.7439656364468,1517.7439656364468,0.9982352,0.00044711577
1517.7453545675937,1517.7453545675937,0.9973513,0.00044687642
1517.7467434982748,1517.7467434982748,0.9980182,0.00044693536
1517.7481324294206,1517.7481324294206,0.9981577,0.0004468522
1517.7495213601026,1517.7495213601026,0.99696416,0.00044653218
1517.7509102907845,1517.7509102907845,0.99739784,0.0004466175
1517.7522992219303,1517.7522992219303,0.9977396,0.00044636245
1517.753688152611,1517.753688152611,0.9975584,0.00044666126
1517.7550770837577,1517.7550770837577,0.9979417,0.00044644583
1517.7564660144396,1517.7564660144396,0.9970417,0.00044611047
1517.7578549455864,1517.7578549455864,0.99703926,0.0004461242
1517.7592438762674,1517.7592438762674,0.9975022,0.00044606184
1517.7606328074141,1517.7606328074141,0.99715286,0.00044600942
1517.7620217380952,1517.7620217380952,0.9974059,0.0004463996
1517.7634106692421,1517.7634106692421,0.99780124,0.00044631364
1517.7647995999234,1517.7647995999234,0.9980914,0.0004459801
1517.7661885306045,1517.7661885306045,0.9970307,0.00044575264
1517.7675774617505,1517.7675774617505,0.997066,0.0004456463
1517.7689663924323,1517.7689663924323,0.9972335,0.00044550365
1517.77035532358,1517.77035532358,0.9969108,0.00044554687
1517.7717442542603,1517.7717442542603,0.9966035,0.000445807
1517.7731331854072,1517.7731331854072,0.997686,0.00044537624
1517.7745221160883,1517.7745221160883,0.9981104,0.00044572787
1517.775911047235,1517.775911047235,0.9977498,0.00044532624
1517.7772999783817,1517.7772999783817,0.99742854,0.0004454156
1517.7786889090628,1517.7786889090628,0.998257,0.00044547278
1517.7800778402095,1517.7800778402095,0.99651736,0.00044550217
1517.7814667708908,1517.7814667708908,0.99749714,0.00044574623
1517.7828557020382,1517.7828557020382,0.99744827,0.0004453682
1517.7842446327193,1517.7842446327193,0.99731,0.00044486325
1517.7856335638655,1517.7856335638655,0.9974654,0.0004450293
1517.787022494546,1517.787022494546,0.9971884,0.00044503534
1517.7884114256933,1517.7884114256933,0.9970866,0.0004451493
1517.7898003563753,1517.7898003563753,0.99734193,0.00044483328
1517.7911892875213,1517.7911892875213,0.9977878,0.00044471206
1517.7925782186683,1517.7925782186683,0.9973812,0.00044480615
1517.7939671493493,1517.7939671493493,0.99858993,0.00044455958
1517.795356080496,1517.795356080496,0.99762887,0.0004446646
1517.796745011177,1517.796745011177,0.9980611,0.00044462873
1517.7981339423238,1517.7981339423238,0.99791336,0.0004449436
1517.7995228734706,1517.7995228734706,0.9973589,0.00044421587
1517.8009118041518,1517.8009118041518,0.9962588,0.00044418787
1517.8023007352992,1517.8023007352992,0.9969226,0.00044432114
1517.8036896659803,1517.8036896659803,0.99744403,0.0004440551
1517.8050785971266,1517.8050785971266,0.99696535,0.00044414663
1517.8064675282728,1517.8064675282728,0.9973663,0.00044411985
1517.8078564589543,1517.8078564589543,0.9972141,0.0004439483
1517.809245390102,1517.809245390102,0.997759,0.0004437783
1517.8106343212482,1517.8106343212482,0.99819183,0.000444472
