time,time,flux,flux_err
1354.1099702352126,1354.1099702352126,23338.895,30.164255
1354.1113591555427,1354.1113591555427,23381.139,30.1799
1354.1141369962593,1354.1141369962593,23197.55,30.114248
1354.1155259166476,1354.1155259166476,23556.59,30.223171
1354.1169148370063,1354.1169148370063,23547.67,30.218372
1354.118303757394,1354.118303757394,23531.996,30.213127
1354.1196926777525,1354.1196926777525,23463.633,30.201462
1354.1210815981408,1354.1210815981408,23523.605,30.212452
1354.1224705185293,1354.1224705185293,23522.338,30.208025
1354.123859438946,1354.123859438946,23529.42,30.214838
1354.125248359334,1354.125248359334,23527.89,30.213327
1354.1266372797213,1354.1266372797213,23531.74,30.210232
1354.1280262001383,1354.1280262001383,23561.309,30.22066
1354.1294151205557,1354.1294151205557,23619.562,30.2275
1354.1308040409726,1354.1308040409726,23609.717,30.229755
1354.1321929613891,1354.1321929613891,23599.793,30.2258
1354.1335818818359,1354.1335818818359,23591.94,30.22519
1354.1349708022526,1354.1349708022526,23632.291,30.234995
1354.1363597226991,1354.1363597226991,23596.607,30.225145
1354.137748643116,1354.137748643116,23636.39,30.235247
1354.1391375635612,1354.1391375635612,23566.693,30.21389
1354.1405264840369,1354.1405264840369,23818.523,30.273808
1354.1419154044834,1354.1419154044834,23628.195,30.230667
1354.1433043249294,1354.1433043249294,23703.672,30.248203
1354.1446932454044,1354.1446932454044,23723.52,30.25518
1354.1460821658793,1354.1460821658793,23794.5,30.264639
1354.1474710863258,1354.1474710863258,23730.959,30.256025
1354.1488600068017,1354.1488600068017,23794.994,30.270939
1354.1502489273053,1354.1502489273053,23765.186,30.260267
1354.15163784778,1354.15163784778,23763.48,30.259447
1354.1530267682556,1354.1530267682556,23749.645,30.26124
1354.1544156887605,1354.1544156887605,23769.35,30.264484
1354.1558046092646,1354.1558046092646,23772.473,30.265633
1354.157193529768,1354.157193529768,23854.078,30.27889
1354.1585824502727,1354.1585824502727,23743.787,30.256376
1354.1599713707776,1354.1599713707776,23829.3,30.273066
1354.1613602912817,1354.1613602912817,23786.787,30.262707
1354.162749211815,1354.162749211815,23832.64,30.278744
1354.164138132348,1354.164138132348,23795.715,30.266977
1354.165527052853,1354.165527052853,23826.61,30.274225
1354.166915973387,1354.166915973387,23865.41,30.28151
1354.1683048939194,1354.1683048939194,23869.9,30.286251
1354.1696938144817,1354.1696938144817,23915.078,30.290163
1354.1710827350157,1354.1710827350157,23930.598,30.294432
1354.1724716555777,1354.1724716555777,24004.182,30.31231
1354.1738605761116,1354.1738605761116,23863.518,30.27992
1354.175249496674,1354.175249496674,23920.934,30.295712
1354.1766384172365,1354.1766384172365,23950.352,30.302984
1354.1780273377994,1354.1780273377994,24048.117,30.323822
1354.1794162583615,1354.1794162583615,23930.479,30.296793
1354.1808051789537,1354.1808051789537,23972.871,30.301903
1354.182194099516,1354.182194099516,23890.68,30.287058
1354.1835830201067,1354.1835830201067,23927.32,30.294762
1354.184971940699,1354.184971940699,23931.621,30.294573
1354.1863608612912,1354.1863608612912,23910.162,30.291872
1354.1877497818823,1354.1877497818823,24003.494,30.310156
1354.1891387024739,1354.1891387024739,23992.492,30.311148
1354.1905276230652,1354.1905276230652,23982.22,30.305584
1354.1919165436866,1354.1919165436866,23967.955,30.301758
1354.1933054643077,1354.1933054643077,24003.982,30.31631
1354.1946943848984,1354.1946943848984,23998.451,30.304295
1354.1960833055189,1354.1960833055189,24027.752,30.320257
1354.1974722261402,1354.1974722261402,23996.254,30.309387
1354.1988611467905,1354.1988611467905,24078.96,30.324274
1354.2002500674107,1354.2002500674107,24136.143,30.336575
1354.2016389880307,1354.2016389880307,24021.398,30.316975
1354.2030279086812,1354.2030279086812,24218.256,30.3553
1354.2044168293314,1354.2044168293314,24339.22,30.376877
1354.2058057499808,1354.2058057499808,24241.254,30.360397
1354.2071946706305,1354.2071946706305,24128.055,30.34144
1354.2085835912803,1354.2085835912803,23989.488,30.305801
1354.2099725119306,1354.2099725119306,24089.156,30.330708
1354.2113614325808,1354.2113614325808,23946.93,30.297567
1354.2127503532588,1354.2127503532588,24026.7,30.319147
1354.2141392739377,1354.2141392739377,23925.506,30.29508
1354.215528194588,1354.215528194588,23929.764,30.295918
1354.2169171152666,1354.2169171152666,23905.846,30.28986
1354.2183060359462,1354.2183060359462,23948.592,30.303131
1354.2196949566537,1354.2196949566537,23870.822,30.283897
1354.2210838773326,1354.2210838773326,23880.143,30.283667
1354.222472798012,1354.222472798012,23856.773,30.281647
1354.22386171872,1354.22386171872,23846.139,30.28245
1354.2252506394275,1354.2252506394275,23888.71,30.291155
1354.2266395601064,1354.2266395601064,23791.738,30.270473
1354.2280284808141,1354.2280284808141,23861.332,30.285042
1354.2294174015228,1354.2294174015228,23775.729,30.270218
1354.2308063222604,1354.2308063222604,23788.34,30.266779
1354.2321952429681,1354.2321952429681,23672.58,30.242252
1354.233584163676,1354.233584163676,23765.934,30.264282
1354.234973084413,1354.234973084413,23646.592,30.236292
1354.2363620051506,1354.2363620051506,23731.611,30.261623
1354.2377509258881,1354.2377509258881,23663.887,30.240118
1354.2391398465952,1354.2391398465952,23685.69,30.24331
1354.2405287673614,1354.2405287673614,23652.318,30.240002
1354.241917688099,1354.241917688099,23689.973,30.244778
1354.2433066088365,1354.2433066088365,23741.688,30.257284
1354.2446955296027,1354.2446955296027,23819.5,30.27707
1354.246084450339,1354.246084450339,23729.723,30.254734
1354.2474733711056,1354.2474733711056,23718.895,30.252388
1354.2488622918722,1354.2488622918722,23648.52,30.237286
1354.2502512126384,1354.2502512126384,23601.178,30.230965
1354.2516401334042,1354.2516401334042,23679.436,30.248625
1354.2530290541704,1354.2530290541704,23553.42,30.215416
1354.254417974937,1354.254417974937,23581.586,30.224257
1354.2558068957328,1354.2558068957328,23514.363,30.214575
1354.257195816498,1354.257195816498,23420.564,30.188446
1354.2585847372934,1354.2585847372934,23497.621,30.206526
1354.2599736580892,1354.2599736580892,23418.176,30.18661
1354.2613625788554,1354.2613625788554,23378.264,30.18172
1354.2627514996511,1354.2627514996511,23343.643,30.175068
1354.2641404204753,1354.2641404204753,23314.975,30.166447
1354.2655293412704,1354.2655293412704,23378.367,30.183327
1354.2669182620662,1354.2669182620662,23254.822,30.156551
1354.2683071828906,1354.2683071828906,23271.86,30.164219
1354.2696961036859,1354.2696961036859,23233.1,30.152918
1354.2710850245098,1354.2710850245098,23170.52,30.14147
1354.2724739453342,1354.2724739453342,23197.201,30.14975
1354.273862866159,1354.273862866159,23145.334,30.13414
1354.275251786984,1354.275251786984,23165.98,30.14074
1354.2766407078084,1354.2766407078084,23176.271,30.140402
1354.2780296286323,1354.2780296286323,23171.035,30.141266
1354.2794185494859,1354.2794185494859,23211.088,30.152922
1354.2808074703107,1354.2808074703107,23103.21,30.124458
1354.2821963911642,1354.2821963911642,23046.055,30.111708
1354.2835853119877,1354.2835853119877,23072.578,30.11739
1354.2849742328417,1354.2849742328417,22973.314,30.101955
1354.2863631536957,1354.2863631536957,22942.47,30.094923
1354.2877520745496,1354.2877520745496,22931.348,30.091982
1354.2891409954032,1354.2891409954032,22907.162,30.082584
1354.2905299162849,1354.2905299162849,22982.018,30.103186
1354.2919188371388,1354.2919188371388,22857.82,30.075926
1354.293307758022,1354.293307758022,22865.406,30.077423
1354.2946966788747,1354.2946966788747,22791.148,30.062857
1354.2960855997571,1354.2960855997571,22860.73,30.080893
1354.2974745206402,1354.2974745206402,22843.736,30.073902
1354.2988634415233,1354.2988634415233,22797.908,30.06825
1354.3002523624066,1354.3002523624066,22772.906,30.06083
1354.3016412832885,1354.3016412832885,22692.56,30.041395
1354.3030302041707,1354.3030302041707,22698.238,30.042654
1354.3044191250538,1354.3044191250538,22651.799,30.03654
1354.3058080459655,1354.3058080459655,22655.22,30.037394
1354.3071969668486,1354.3071969668486,22662.271,30.040682
1354.3085858877603,1354.3085858877603,22617.596,30.022572
1354.3099748086718,1354.3099748086718,22577.877,30.018208
1354.3113637295842,1354.3113637295842,22593.5,30.020676
1354.3127526504954,1354.3127526504954,22556.371,30.014616
1354.3141415714072,1354.3141415714072,22503.332,29.999514
1354.3155304923187,1354.3155304923187,22590.521,30.022243
1354.3169194132302,1354.3169194132302,22520.191,30.007578
1354.3183083341714,1354.3183083341714,22442.47,29.987705
1354.3196972550836,1354.3196972550836,22458.95,29.995203
1354.3210861760244,1354.3210861760244,22475.469,29.996237
1354.3224750969653,1354.3224750969653,22402.402,29.980581
1354.3238640178765,1354.3238640178765,22446.79,29.99241
1354.3252529388178,1354.3252529388178,22359.57,29.97417
1354.3266418597586,1354.3266418597586,22358.943,29.97583
1354.3280307806986,1354.3280307806986,22432.66,29.989395
1354.329419701669,1354.329419701669,22342.266,29.969683
1354.3308086226104,1354.3308086226104,22321.223,29.962513
1354.332197543552,1354.332197543552,22344.188,29.972248
1354.3335864645214,1354.3335864645214,22305.273,29.962618
1354.3349753854613,1354.3349753854613,22313.984,29.963047
1354.336364306432,1354.336364306432,22236.8,29.947628
1354.3377532274026,1354.3377532274026,22254.203,29.950174
1354.3391421483716,1354.3391421483716,22292.064,29.963446
1354.340531069341,1354.340531069341,22264.5,29.951365
1354.3419199903117,1354.3419199903117,22283.62,29.957745
1354.3433089112823,1354.3433089112823,22196.201,29.940498
1354.3446978322527,1354.3446978322527,22242.54,29.950869
1354.3460867532508,1354.3460867532508,22184.438,29.93755
1354.3474756742205,1354.3474756742205,22216.984,29.947697
1354.3488645952202,1354.3488645952202,22162.172,29.932463
1354.3502535161897,1354.3502535161897,22219.48,29.945122
1354.3516424371887,1354.3516424371887,22102.178,29.915895
1354.3530313581875,1354.3530313581875,22142.088,29.931484
1354.3544202791873,1354.3544202791873,22157.5,29.93285
1354.3558092001867,1354.3558092001867,22124.809,29.929724
1354.3571981211855,1354.3571981211855,22032.988,29.904345
1354.3585870421844,1354.3585870421844,22101.633,29.925098
1354.3599759632125,1354.3599759632125,22000.172,29.897736
1354.361364884211,1354.361364884211,22072.51,29.918404
1354.36275380524,1354.36275380524,21963.262,29.884344
1354.3641427262396,1354.3641427262396,21965.951,29.89542
1354.3655316472673,1354.3655316472673,21969.377,29.893744
1354.3669205682954,1354.3669205682954,21999.979,29.905725
1354.3683094893233,1354.3683094893233,21932.807,29.88937
1354.3696984103522,1354.3696984103522,21928.148,29.884495
1354.3710873313798,1354.3710873313798,21967.873,29.897629
1354.372476252407,1354.372476252407,21901.36,29.874378
1354.373865173436,1354.373865173436,21919.268,29.88674
1354.3752540944647,1354.3752540944647,21851.424,29.865656
1354.3766430155224,1354.3766430155224,21899.307,29.878923
1354.3780319365503,1354.3780319365503,21868.732,29.875782
1354.3794208576069,1354.3794208576069,21865.092,29.869808
1354.3808097786355,1354.3808097786355,21890.438,29.881138
1354.3821986996932,1354.3821986996932,21822.773,29.864807
1354.3835876207495,1354.3835876207495,21965.344,29.891678
1354.3849765418067,1354.3849765418067,21879.5,29.877537
1354.3863654628644,1354.3863654628644,21822.992,29.864946
1354.3877543839221,1354.3877543839221,21833.406,29.868048
1354.3891433049798,1354.3891433049798,21816.557,29.86332
1354.3905322260362,1354.3905322260362,21872.78,29.876173
1354.3919211471225,1354.3919211471225,21767.523,29.849627
1354.3933100681802,1354.3933100681802,21774.361,29.856043
1354.3946989892665,1354.3946989892665,21719.383,29.841963
1354.3960879103233,1354.3960879103233,21761.818,29.853512
1354.3974768314097,1354.3974768314097,21717.938,29.841295
1354.3988657524965,1354.3988657524965,21677.38,29.83066
1354.4002546735833,1354.4002546735833,21738.752,29.847614
1354.4016435946696,1354.4016435946696,21764.29,29.85366
1354.4030325157555,1354.4030325157555,21806.535,29.865288
1354.4044214368419,1354.4044214368419,21747.137,29.847301
1354.4058103579282,1354.4058103579282,21798.65,29.853636
1354.407199279015,1354.407199279015,21770.074,29.85367
1354.408588200131,1354.408588200131,21743.479,29.845337
1354.409977121217,1354.409977121217,21702.47,29.838856
1354.4113660423322,1354.4113660423322,21793.035,29.860645
1354.4127549634186,1354.4127549634186,21648.709,29.826496
1354.4141438845345,1354.4141438845345,21741.117,29.845655
1354.41553280565,1354.41553280565,21711.6,29.84311
1354.4169217267354,1354.4169217267354,21694.533,29.835934
1354.4183106478513,1354.4183106478513,21666.67,29.829845
1354.4196995689672,1354.4196995689672,21676.447,29.834631
1354.421088490083,1354.421088490083,21747.227,29.846004
1354.4224774111985,1354.4224774111985,21668.33,29.831156
1354.4238663323422,1354.4238663323422,21686.156,29.837547
1354.425255253458,1354.425255253458,21730.559,29.848444
1354.426644174574,1354.426644174574,21721.232,29.841835
1354.4280330957176,1354.4280330957176,21763.621,29.851816
1354.429422016833,1354.429422016833,21681.775,29.834475
1354.430810937978,1354.430810937978,21714.979,29.842508
1354.432199859123,1354.432199859123,21710.053,29.84259
1354.433588780239,1354.433588780239,21705.34,29.84025
1354.4349777013826,1354.4349777013826,21730.266,29.840443
1354.4363666225272,1354.4363666225272,21700.03,29.844671
1354.4377555436722,1354.4377555436722,21721.32,29.844614
1354.4391444648168,1354.4391444648168,21730.89,29.84522
1354.440533385961,1354.440533385961,21699.3,29.8374
1354.4419223071345,1354.4419223071345,21637.475,29.824293
1354.4433112282795,1354.4433112282795,21720.615,29.8463
1354.4447001494245,1354.4447001494245,21663.184,29.829916
1354.4460890705982,1354.4460890705982,21701.193,29.833437
1354.4474779917427,1354.4474779917427,21759.055,29.85174
1354.448866912916,1354.448866912916,21716.195,29.847979
1354.4502558340605,1354.4502558340605,21651.635,29.828014
1354.4516447552346,1354.4516447552346,21755.615,29.852303
1354.4530336764087,1354.4530336764087,21631.996,29.823534
1354.4544225975824,1354.4544225975824,21760.81,29.852768
1354.4558115187558,1354.4558115187558,21640.973,29.821163
1354.4572004399292,1354.4572004399292,21701.059,29.844822
1354.4585893611033,1354.4585893611033,21644.453,29.82533
1354.459978282277,1354.459978282277,21729.246,29.848799
1354.4613672034498,1354.4613672034498,21713.064,29.84216
1354.462756124653,1354.462756124653,21781.623,29.855581
1354.464145045827,1354.464145045827,21755.0,29.849438
1354.4655339670012,1354.4655339670012,21858.945,29.872723
1354.466922888204,1354.466922888204,21794.24,29.856611
1354.4683118093767,1354.4683118093767,21824.055,29.865074
1354.46970073058,1354.46970073058,21765.043,29.857212
1354.4710896517831,1354.4710896517831,21794.559,29.859308
1354.4724785729852,1354.4724785729852,21830.332,29.864481
1354.4738674941586,1354.4738674941586,21811.854,29.862116
1354.4752564153619,1354.4752564153619,21886.758,29.880022
1354.4766453365653,1354.4766453365653,21878.24,29.874815
1354.4780342577687,1354.4780342577687,21794.525,29.858717
1354.4794231789706,1354.4794231789706,21906.658,29.883755
1354.480812100202,1354.480812100202,21868.264,29.879326
1354.4822010214054,1354.4822010214054,21872.883,29.877108
1354.483589942608,1354.483589942608,21898.643,29.881218
1354.4849788638398,1354.4849788638398,21897.406,29.879122
1354.4863677850421,1354.4863677850421,21898.955,29.888659
1354.4877567062456,1354.4877567062456,21901.402,29.88039
1354.4891456274781,1354.4891456274781,21899.656,29.887976
1354.4905345487095,1354.4905345487095,21946.627,29.893284
1354.4919234699123,1354.4919234699123,21952.771,29.890963
1354.493312391144,1354.493312391144,21945.994,29.88948
1354.4947013123756,1354.4947013123756,21991.44,29.901192
1354.496090233608,1354.496090233608,21974.469,29.900656
1354.4974791548404,1354.4974791548404,22003.705,29.901388
1354.498868076072,1354.498868076072,22009.309,29.909851
1354.500256997304,1354.500256997304,22056.428,29.914854
1354.5016459185354,1354.5016459185354,22100.715,29.923796
1354.503034839768,1354.503034839768,22068.957,29.917301
1354.5044237610286,1354.5044237610286,22071.904,29.91787
1354.5058126822596,1354.5058126822596,22123.436,29.931887
1354.507201603492,1354.507201603492,22126.01,29.92805
1354.5085905247536,1354.5085905247536,22174.957,29.93787
1354.5099794459861,1354.5099794459861,22262.145,29.956379
1354.5113683672466,1354.5113683672466,22247.355,29.956789
1354.5127572885067,1354.5127572885067,22210.268,29.947386
1354.5141462097392,1354.5141462097392,22239.777,29.957224
1354.515535131001,1354.515535131001,22312.264,29.96977
1354.516924052261,1354.516924052261,22305.955,29.966713
1354.5183129735217,1354.5183129735217,22339.73,29.972523
1354.5197018947833,1354.5197018947833,22305.65,29.96952
1354.5210908160448,1354.5210908160448,22344.018,29.970667
1354.5224797373062,1354.5224797373062,22388.541,29.98901
1354.5238686585662,1354.5238686585662,22403.707,29.985273
1354.5252575798272,1354.5252575798272,22507.63,30.0144
1354.5266465010886,1354.5266465010886,22486.56,30.007097
1354.5280354223491,1354.5280354223491,22449.516,29.997995
1354.5294243436392,1354.5294243436392,22525.613,30.013563
1354.5308132649002,1354.5308132649002,22577.455,30.023586
1354.5322021861907,1354.5322021861907,22593.664,30.025305
1354.5335911074521,1354.5335911074521,22605.361,30.030506
1354.5349800287422,1354.5349800287422,22605.623,30.028238
1354.5363689500027,1354.5363689500027,22666.975,30.044966
1354.5377578712928,1354.5377578712928,22592.225,30.023289
1354.5391467925826,1354.5391467925826,22735.678,30.05683
1354.5405357138734,1354.5405357138734,22703.646,30.053576
1354.541924635164,1354.541924635164,22748.498,30.058155
1354.5433135564244,1354.5433135564244,22813.605,30.074226
1354.5447024777145,1354.5447024777145,22753.096,30.05649
1354.5460913990046,1354.5460913990046,22942.734,30.104548
1354.5474803203242,1354.5474803203242,22775.676,30.062431
1354.5488692416138,1354.5488692416138,22917.459,30.097338
1354.5502581629032,1354.5502581629032,22962.318,30.104614
1354.551647084194,1354.551647084194,22916.307,30.09622
1354.5530360054845,1354.5530360054845,22979.549,30.108349
1354.5544249268041,1354.5544249268041,22980.479,30.111547
1354.5558138480942,1354.5558138480942,23083.576,30.130812
1354.5572027694125,1354.5572027694125,23121.482,30.135214
1354.558591690703,1354.558591690703,23139.729,30.140299
1354.5599806120226,1354.5599806120226,23197.533,30.15311
1354.5613695333118,1354.5613695333118,23126.887,30.139965
1354.562758454631,1354.562758454631,23241.291,30.163225
1354.5641473759506,1354.5641473759506,23179.102,30.151575
1354.5655362972411,1354.5655362972411,23294.432,30.177092
1354.5669252185608,1354.5669252185608,23219.81,30.15571
1354.568314139879,1354.568314139879,23297.9,30.177168
1354.5697030611982,1354.5697030611982,23284.346,30.176449
1354.5710919825178,1354.5710919825178,23358.629,30.18572
1354.572480903837,1354.572480903837,23367.477,30.187672
1354.5738698251557,1354.5738698251557,23445.424,30.205223
1354.575258746475,1354.575258746475,23411.445,30.201862
1354.5766476677945,1354.5766476677945,23457.375,30.207994
1354.5780365891433,1354.5780365891433,23504.496,30.219906
1354.5794255104624,1354.5794255104624,23532.92,30.224157
1354.5808144317814,1354.5808144317814,23498.037,30.215616
1354.5822033531294,1354.5822033531294,23490.836,30.212112
1354.5835922744486,1354.5835922744486,23628.377,30.240456
1354.5849811957683,1354.5849811957683,23549.021,30.226315
1354.586370117117,1354.586370117117,23628.346,30.244318
1354.5877590384362,1354.5877590384362,23650.164,30.248158
1354.589147959784,1354.589147959784,23605.963,30.239187
1354.5905368811323,1354.5905368811323,23692.262,30.257492
1354.591925802452,1354.591925802452,23669.014,30.254532
1354.5933147238002,1354.5933147238002,23745.588,30.265432
1354.5947036451475,1354.5947036451475,23816.9,30.281796
1354.5960925664963,1354.5960925664963,23681.836,30.254036
