time,time,flux,flux_err
1325.2980623093297,1325.2980623093297,1.00000382462374,0.00038705360330478324
1325.306395713022,1325.306395713022,0.9998719046676459,0.00038708528999030424
1325.3147291170062,1325.3147291170062,1.0000876248788135,0.00038713799464378304
1325.3223680708832,1325.3223680708832,1.0002794123889154,0.00035349170242900883
1325.3293125746497,1325.3293125746497,0.9993641064201432,0.0003533580899423145
1325.336257078626,1325.336257078626,1.00068367285454,0.000353568795431519
1325.3432015827887,1325.3432015827887,1.00000072239868,0.00035358584355141926
1325.3501460871607,1325.3501460871607,0.9999803845270329,0.00035367320600734507
1325.357090591719,1325.357090591719,0.999912884196223,0.0003537532357594291
1325.364035096487,1325.364035096487,0.999663242049663,0.0003538163058978101
1325.3709796014641,1325.3709796014641,1.0001909529327435,0.00035400426709219113
1325.3779241065815,1325.3779241065815,1.0000193020959083,0.0003540961148135068
1325.384868611885,1325.384868611885,0.9995464583297125,0.00035418523271144595
1325.391813117421,1325.391813117421,1.0004940434431082,0.0003544123649170265
1325.39875762312,1325.39875762312,0.9999408069627943,0.00035443952857224615
1325.405702128936,1325.405702128936,1.0001503645942016,0.00035455104938269275
1325.4126466350306,1325.4126466350306,1.0001427419123328,0.0003546788422013462
1325.419591141242,1325.419591141242,0.9995818805007604,0.0003547642250987123
1325.4265356476396,1325.4265356476396,0.9997720292444899,0.0003548847853337943
1325.4334801542238,1325.4334801542238,0.999873993444672,0.0003550018719179322
1325.4404246609474,1325.4404246609474,1.000571807606223,0.0003552397399022114
1325.4473691678572,1325.4473691678572,1.0003438759969014,0.0003553147616986806
1325.45431367493,1325.45431367493,0.9997301980532061,0.0003553927657918007
1325.461258182189,1325.461258182189,0.9997845365956378,0.0003555126880390415
1325.468202689588,1325.468202689588,0.999843890622904,0.0003556143179924088
1325.4751471971267,1325.4751471971267,0.9999806975620624,0.00035576307325912635
1325.4820917048514,1325.4820917048514,1.0000319943983278,0.00035602387254872724
1325.4890362127162,1325.4890362127162,1.0003802386245764,0.0003561912561625989
1325.4959807207438,1325.4959807207438,0.9998359448349454,0.00035628664899641616
1325.5029252289573,1325.5029252289573,0.999786568271559,0.0003564241916694656
1325.5098697372644,1325.5098697372644,1.0000348826371197,0.00035665554018280245
1325.516814245734,1325.516814245734,1.000743367745337,0.00035686961065387404
1325.523758754367,1325.523758754367,0.9997640357312193,0.0003568892649529498
1325.5307032631395,1325.5307032631395,0.9994568120699949,0.0003570431168198041
1325.5376477720515,1325.5376477720515,0.9996972904057488,0.00035728317376971494
1325.5445922811039,1325.5445922811039,1.0005769478773954,0.0003575261605921025
1325.551536790272,1325.551536790272,1.0001847124355219,0.00035761471967175765
1325.55848129965,1325.55848129965,0.9996619234093641,0.00035768243478175347
1325.5654258090976,1325.5654258090976,0.9995100879068332,0.0003578403173175361
1325.5723703187084,1325.5723703187084,1.0003750347800966,0.00035812825856488287
1325.579314828436,1325.579314828436,1.000504852421996,0.0003582416120748552
1325.5862593382792,1325.5862593382792,0.9997212615296238,0.00035828556466497777
1325.5932038482856,1325.5932038482856,0.9999288472323975,0.0003583672694777065
1325.6001483583855,1325.6001483583855,0.9996491682131466,0.0003584415906375181
1325.6070928686481,1325.6070928686481,1.0002741546534775,0.0003585955126467709
1325.614037379004,1325.614037379004,1.0000902141138235,0.0003586418376388284
1325.6209818894993,1325.6209818894993,0.9998851186410016,0.00035873570211232916
1325.6279264001114,1325.6279264001114,0.999756139231107,0.000358721228963339
1325.6348709108397,1325.6348709108397,1.000126912714379,0.00035879246692560845
1325.6418154217308,1325.6418154217308,1.0005015969347577,0.00035892851022536646
1325.6487599326688,1325.6487599326688,1.0000375950501004,0.00035889164279531943
1325.655704443793,1325.655704443793,0.9997789890453781,0.0003588717990824577
1325.6626489549872,1325.6626489549872,0.9998181076916861,0.0003589091467826354
1325.6695934662507,1325.6695934662507,0.9998518749132506,0.00035891206439786114
1325.676537977701,1325.676537977701,0.9995202095323779,0.00035886174193483045
1325.6834824891976,1325.6834824891976,1.0003571102867599,0.0003590460271471105
1325.690427000834,1325.690427000834,1.000153370266456,0.0003590629511783912
1325.697371512587,1325.697371512587,1.0004189671261305,0.0003591687758415226
1325.704316024433,1325.704316024433,0.9994231747574146,0.0003590796596722488
1325.7112605364182,1325.7112605364182,1.0003629282267072,0.000359317209205212
1325.718205048474,1325.718205048474,1.0001284523176142,0.0003593518772589443
1325.7251495606224,1325.7251495606224,1.0003823196350576,0.0003595047982568475
1325.732094072864,1325.732094072864,1.0001429219854177,0.00035955467046908004
1325.7390385852225,1325.7390385852225,0.9996842664843685,0.00035965630548200544
1325.7459830976732,1325.7459830976732,1.0000414371659783,0.0003597606568374786
1325.7529276102412,1325.7529276102412,0.9996274604713891,0.00035981404159691604
1325.7598721228787,1325.7598721228787,0.9994933879366975,0.00035988630406766776
1325.7668166356325,1325.7668166356325,0.9999057115196125,0.00036011543283107625
1325.7737611484565,1325.7737611484565,1.0001457380316334,0.0003602325859253169
1325.7807056613499,1325.7807056613499,0.9999008566602349,0.00036029840733028143
1325.7876501744067,1325.7876501744067,1.0002515917705854,0.0003604443203141771
1325.7945946875102,1325.7945946875102,1.0007595888921406,0.0003605646801727938
1325.8015392007296,1325.8015392007296,0.999588066246233,0.00036049204269333413
1325.8084837139727,1325.8084837139727,0.9997842452008735,0.0003605701964487994
1325.815428227355,1325.815428227355,0.9997352526907252,0.0003606559507683477
1325.8223727408542,1325.8223727408542,1.000328902625806,0.00036075298293221055
1325.8293172543765,1325.8293172543765,1.0005226086943388,0.00036091183486473583
1325.8362617679454,1325.8362617679454,1.0001900680726288,0.00036090665082741586
1325.8432062816541,1325.8432062816541,0.9996697996655396,0.0003608627986047021
1325.850150795432,1325.850150795432,0.9998813472225482,0.0003608942889986997
1325.857095309304,1325.857095309304,1.0000696101147912,0.0003608620063613215
1325.864039823245,1325.864039823245,0.99989836424276,0.0003608469385134657
1325.8709843372567,1325.8709843372567,0.9996163829558891,0.00036069484940320044
1325.877928851361,1325.877928851361,0.9999095369479951,0.0003606643029260961
1325.8848733655118,1325.8848733655118,0.9998256642577872,0.00036054616955242207
1325.8918178797558,1325.8918178797558,1.0001511140029935,0.00036054505992040304
1325.89876239407,1325.89876239407,1.0002313739149273,0.000360450995125488
1325.9057069084768,1325.9057069084768,1.0002248872950932,0.0003603858546667742
1325.9126514229306,1325.9126514229306,1.0000160325727505,0.00036026156495285773
1325.919595937477,1325.919595937477,1.0003005503014113,0.00036025699651567693
1325.9265404520706,1325.9265404520706,0.9997906993518191,0.00036017159695531233
1325.9334849667569,1325.9334849667569,0.9997165864079232,0.0003601449958799372
1325.9404294814901,1325.9404294814901,0.9998541292309066,0.0003601528563146637
1325.947373996293,1325.947373996293,1.0003761864992682,0.00036022803330540594
1325.9543185111659,1325.9543185111659,0.9995282729170233,0.00036007035110804887
1325.9620963679176,1325.9620963679176,0.9998478628339971,0.0003600837170629308
1325.9695964441278,1325.9695964441278,1.0010271929654215,0.00036030528806614917
1325.9765409592335,1325.9765409592335,0.9996430794124258,0.0003601057102523455
1325.983485474362,1325.983485474362,0.9999576508487203,0.0003601933378663484
1325.9904299896305,1325.9904299896305,0.9997473184195403,0.00036021520680750183
1325.9973745048994,1325.9973745048994,0.9997266352531586,0.0003602705534515627
1326.004319020191,1326.004319020191,1.0000524106701516,0.00036037325761344375
1326.0112635355995,1326.0112635355995,0.999816827492694,0.00036045510503395563
1326.0182080510308,1326.0182080510308,1.0002586156890991,0.0003605915716537338
1326.0251525665324,1326.0251525665324,1.0002467337172114,0.0003607633673962076
1326.0320970821267,1326.0320970821267,1.0002301702948355,0.00036080020861977704
1326.0390415977442,1326.0390415977442,1.0001563121789323,0.00036079218688962826
1326.0459861134323,1326.0459861134323,0.9996880495219524,0.00036067985609528953
1326.0529306291662,1326.0529306291662,0.9999614958194343,0.00036080483007620243
1326.0598751449936,1326.0598751449936,1.0001914024572918,0.0003608830046949465
1326.0668196608444,1326.0668196608444,0.9996289698467417,0.0003608441959194049
1326.0737641767178,1326.0737641767178,1.0000630438206572,0.0003609347176737286
1326.0807086926857,1326.0807086926857,0.9994893628757344,0.0003609197701591003
1326.0876532086986,1326.0876532086986,1.000217223992316,0.0003610804353981263
1326.094597724759,1326.094597724759,1.0002372557911794,0.00036106306119713385
1326.101542240889,1326.101542240889,1.0001701473915527,0.0003611100636375326
1326.108486757042,1326.108486757042,1.0002522303977224,0.00036112258564605733
1326.1154312732422,1326.1154312732422,1.0000086519549602,0.0003611390008884655
1326.1223757895348,1326.1223757895348,1.0001769890084429,0.0003611636842598481
1326.1293203058283,1326.1293203058283,0.9997457527619099,0.0003611339235716789
1326.1362648221675,1326.1362648221675,0.9993589987997649,0.00036106659007326374
1326.143209338577,1326.143209338577,0.9997426384510447,0.00036110633210035897
1326.150153855033,1326.150153855033,0.999931158112658,0.00036117048143336747
1326.1570983715587,1326.1570983715587,1.0001370281578912,0.0003611735461842383
1326.1640428880849,1326.1640428880849,1.000321977423499,0.000361169349341934
1326.1709874047033,1326.1709874047033,1.0003260951861401,0.0003612329984276073
1326.1779319213226,1326.1779319213226,1.0006373020174757,0.00036126568088756605
1326.1848764380113,1326.1848764380113,1.000067148537869,0.0003611907337832036
1326.1918209547462,1326.1918209547462,0.9991676461406109,0.0003610280549694441
1326.1987654715056,1326.1987654715056,0.9997769021551293,0.0003611359200108372
1326.2057099883336,1326.2057099883336,1.0004626184414418,0.00036123272800877285
1326.2126545051858,1326.2126545051858,0.9995672851460784,0.0003611430689211526
1326.219599022084,1326.219599022084,0.9998767008969501,0.000361193827002661
1326.2265435390289,1326.2265435390289,0.9998681324001524,0.0003612469811685647
1326.2334880560436,1326.2334880560436,1.000660362298225,0.00036134201855089905
1326.2404325730581,1326.2404325730581,1.000728784476265,0.0003614003728240094
1326.2473770900735,1326.2473770900735,0.9997221929524029,0.0003612597982986514
1326.2543216071808,1326.2543216071808,0.9995132972305092,0.0003612580041021851
1326.2612661242893,1326.2612661242893,0.9994021839976973,0.0003612359039835756
1326.26821064149,1326.26821064149,1.0001872898099127,0.0003613202305993723
1326.275155158691,1326.275155158691,0.9999823824153348,0.0003612984068251691
1326.2820996759388,1326.2820996759388,1.0000805996269473,0.00036131533341048945
1326.2890441932327,1326.2890441932327,1.0001129439984602,0.0003613293557930115
1326.2959887105503,1326.2959887105503,1.000074208935683,0.0003613348965516993
1326.302933227914,1326.302933227914,1.0000871013350399,0.00036137971350634634
1326.3098777453015,1326.3098777453015,1.0007035804115763,0.00036149669856195703
1326.3168222627355,1326.3168222627355,0.9991096556935938,0.0003613157234857171
1326.3237667801923,1326.3237667801923,0.9997794096065897,0.0003613954805650767
1326.3307112976968,1326.3307112976968,1.0000298983924998,0.0003615143155206185
1326.3376558152236,1326.3376558152236,1.0004689114453746,0.00036161775192704206
1326.3451558942281,1326.3451558942281,1.0003158616062875,0.0003616981104907106
1326.3543226574557,1326.3543226574557,0.9995519997122273,0.0003616898340239274
1326.3612671750757,1326.3612671750757,0.9996806731442411,0.0003617747414977216
1326.368211692766,1326.368211692766,1.0000895858578138,0.00036185568779705093
1326.375156210479,1326.375156210479,1.0004283396003562,0.0003620475551637721
1326.382100728239,1326.382100728239,1.0000359419056477,0.0003620068855429834
1326.3890452459755,1326.3890452459755,0.9998513022691083,0.000362063240127204
1326.3959897638051,1326.3959897638051,0.9998215926110028,0.000362168030293812
1326.4029342816345,1326.4029342816345,1.0007792623858176,0.00036234514624018416
1326.409878799488,1326.409878799488,0.9992725777418798,0.0003622358802630593
1326.4168233173873,1326.4168233173873,0.9996046545541921,0.0003623347055810429
1326.42376783531,1326.42376783531,1.0002519223288284,0.0003625017762508078
1326.4307123532794,1326.4307123532794,1.0003142913301166,0.00036262052198219707
1326.4376568712487,1326.4376568712487,0.9999860713627076,0.00036266826548602375
1326.4446013892648,1326.4446013892648,0.9994764752148433,0.0003626867100049903
1326.4515459072807,1326.4515459072807,1.0003862212001973,0.0003628664456900127
1326.4584904253666,1326.4584904253666,1.000053123229355,0.00036294626072389143
1326.4654349434288,1326.4654349434288,0.9999432613130518,0.0003629995884333632
1326.4723794615613,1326.4723794615613,1.0002033490571707,0.0003630844088442249
1326.4793239796707,1326.4793239796707,1.0000547860675613,0.00036312346536127266
1326.4862684978493,1326.4862684978493,1.000049164073809,0.0003632524369243015
1326.4932130160284,1326.4932130160284,0.9997010846141261,0.0003632796397349629
1326.5001575343235,1326.5001575343235,0.9996282780105978,0.00036331783090392085
1326.5071020525259,1326.5071020525259,1.000554707888858,0.00036354031756348997
1326.5140465708212,1326.5140465708212,0.9993586999484974,0.0003634457018099671
1326.5209910891167,1326.5209910891167,1.0002167623824576,0.00036369518023518787
1326.5279356074352,1326.5279356074352,1.0004325701963417,0.00036385745743426406
1326.534880125777,1326.534880125777,0.9998423635166322,0.000363850881340711
1326.5418246441423,1326.5418246441423,1.0001187079592444,0.0003640587060136586
1326.548769162554,1326.548769162554,1.0000859870802965,0.00036412197361045584
1326.5557136809657,1326.5557136809657,1.0000882294904865,0.00036420388133682753
1326.5626581994238,1326.5626581994238,0.9999048259307812,0.00036422352534649764
1326.5696027178824,1326.5696027178824,1.000135662559749,0.0003642871502804846
1326.5765472363641,1326.5765472363641,0.9995625563681253,0.00036426599331811256
1326.5834917548686,1326.5834917548686,0.9993192260598258,0.0003643079648412719
1326.5904362733972,1326.5904362733972,1.0003862184630727,0.0003645327198103886
1326.5973807919252,1326.5973807919252,0.9994753595839365,0.000364450754986886
1326.6043253105233,1326.6043253105233,1.0005145734720031,0.0003646094402778294
1326.611269829098,1326.611269829098,1.0000596406269453,0.0003646188393874103
1326.6182143477192,1326.6182143477192,0.9996861747873982,0.00036460047744006185
1326.625158866364,1326.625158866364,0.9999577684964747,0.0003645907968767634
1326.6321033850315,1326.6321033850315,1.0000979680727875,0.00036469518820380736
1326.639047903723,1326.639047903723,0.9999929560754325,0.00036470106342854274
1326.6459924223675,1326.6459924223675,1.0002029120975366,0.000364745477440208
1326.6529369411285,1326.6529369411285,1.0003289499009784,0.0003647382342476586
1326.6598814598897,1326.6598814598897,0.9997532844059609,0.0003646969384313103
1326.6668259786504,1326.6668259786504,0.9999980721359408,0.00036472789625376794
1326.6737704974116,1326.6737704974116,0.9998707194225437,0.0003646634808685421
1326.6807150161726,1326.6807150161726,0.9999823076826655,0.00036461333479052594
1326.688770658005,1326.688770658005,1.0002716026765763,0.00036462743399197546
1326.6959929575864,1326.6959929575864,0.9991325634312297,0.0003644484023434918
1326.7029374764404,1326.7029374764404,1.0002875275833067,0.00036452107532620185
1326.7104375568422,1326.7104375568422,0.9996473936772758,0.00036435635647405896
1326.718215417994,1326.718215417994,0.9998624797549784,0.0003644585830013679
1326.725159936895,1326.725159936895,1.0005552724101734,0.0003644483622093089
1326.732104455819,1326.732104455819,1.0004925268642157,0.00036442845023880715
1326.7390489747663,1326.7390489747663,1.0006349801102503,0.00036439060223880855
1326.7459934937365,1326.7459934937365,0.9997941956242447,0.0003642430444286139
1326.752938012707,1326.752938012707,0.9997505764415239,0.0003642036556752411
1326.7598825317011,1326.7598825317011,0.9997683809201325,0.0003642447069860587
1326.7668270506947,1326.7668270506947,0.999663346469139,0.0003641906668660249
1326.7737715697585,1326.7737715697585,0.999221423155416,0.0003641316142370923
1326.780716088799,1326.780716088799,0.9998195668461622,0.0003642263301829107
1326.7876606078626,1326.7876606078626,1.0002824132493784,0.0003643409493950667
1326.794605126903,1326.794605126903,1.0006402141120425,0.0003644196710342331
1326.8015496460134,1326.8015496460134,1.0002326249282032,0.0003643468877456261
1326.8084941651002,1326.8084941651002,1.0004429854647168,0.0003644010199257148
1326.8154386842334,1326.8154386842334,0.9999021185122305,0.0003643365664645035
1326.8223832033673,1326.8223832033673,1.0000291233777852,0.00036433794202589116
1326.8293277225007,1326.8293277225007,0.9996289949749937,0.00036437608112537424
1326.836272241681,1326.836272241681,0.99955137923946,0.0003643435721078849
1326.8432167608612,1326.8432167608612,1.0002303995263113,0.0003644277825379547
1326.850161280041,1326.850161280041,1.0008501294855285,0.00036456064485846545
1326.8571057992676,1326.8571057992676,1.0002017093909095,0.0003644505530738749
1326.8640503184713,1326.8640503184713,0.9994431936801884,0.00036423789927560597
1326.8709948377214,1326.8709948377214,0.9993285330318409,0.0003641450538547845
1326.8779393569707,1326.8779393569707,0.9996963305316896,0.0003640540555795606
1326.8848838762447,1326.8848838762447,0.9999789056878706,0.0003639691376965648
1326.8918283954708,1326.8918283954708,0.9994652555416218,0.0003638011187536946
1326.8987729148141,1326.8987729148141,0.9996596619804576,0.0003636536907218841
1326.905717434064,1326.905717434064,1.0008684497730704,0.00036372411557212826
1326.912661953384,1326.912661953384,1.0012635436168595,0.0003636985686436681
1326.9196064727269,1326.9196064727269,1.0003373567790939,0.00036340986630620497
1326.9265509920701,1326.9265509920701,0.9998921846623923,0.00036318786363867783
1326.9334955114132,1326.9334955114132,1.0000506983359745,0.00036309791605531526
1326.9404400307558,1326.9404400307558,0.9994776208662627,0.0003629096582888968
1326.9473845501457,1326.9473845501457,1.0000981661727804,0.00036296245226627737
1326.9543290695588,1326.9543290695588,0.9996928116249011,0.0003627568359979711
1326.9612735889252,1326.9612735889252,0.9997288516987057,0.0003627292758929671
1326.9682181083615,1326.9682181083615,0.9993911401312718,0.00036262460391612466
1326.975162627774,1326.975162627774,0.9998962326219198,0.0003626165588235123
1326.9821071471874,1326.9821071471874,1.0000893561494444,0.0003625405858449911
1326.9890516666467,1326.9890516666467,1.0009793769822861,0.0003626248002304173
1326.9959961861064,1326.9959961861064,1.0002268651173651,0.0003624768292430138
1327.0029407055656,1327.0029407055656,1.0002022523403273,0.00036249489427432645
1327.0098852250485,1327.0098852250485,1.000346168524549,0.00036250675976266377
1327.0168297445312,1327.0168297445312,0.9996897493127573,0.00036242510600572887
1327.023774264014,1327.023774264014,1.0001799361464112,0.0003625480728545404
1327.0307187835435,1327.0307187835435,0.9999292224885729,0.0003625251984337522
1327.037663303049,1327.037663303049,0.9995019757857255,0.00036242936318367383
1327.0446078225789,1327.0446078225789,0.9999207775884529,0.0003626158562284816
1327.051552342108,1327.051552342108,1.0001677308116226,0.00036271495222591605
1327.0593302040288,1327.0593302040288,0.9999005095013056,0.00036265540364966277
1327.0668302851286,1327.0668302851286,1.0000470709220495,0.0003627199786891902
