time,time,flux,flux_err
1570.919936736697,1570.919936736697,0.9999710633440603,0.00020190788971293275
1570.9282701736483,1570.9282701736483,1.0000088209360547,0.0002015094067595818
1570.93590915748,1570.93590915748,1.0000556568169334,0.0001837005334239203
1570.9428536883631,1570.9428536883631,0.9995958243562102,0.0001834509071371729
1570.9497982191538,1570.9497982191538,1.0000319349706595,0.00018322225880112238
1570.9567427499446,1570.9567427499446,1.0000610449169052,0.00018300508380971657
1570.9636872808276,1570.9636872808276,0.9999326960461243,0.00018274755571972434
1570.9706318116175,1570.9706318116175,1.0000044941735815,0.00018250361506221983
1570.9775763425007,1570.9775763425007,1.0001121144266558,0.0001822652052617989
1570.984520873291,1570.984520873291,1.0001530857461016,0.00018209421847481007
1570.9914654041752,1570.9914654041752,1.0001460004525113,0.00018182496396109687
1570.9984099350584,1570.9984099350584,0.99993529086831,0.00018154423113383365
1571.005354465848,1571.005354465848,0.9999968533943162,0.00018128817624876102
1571.0122989967315,1571.0122989967315,0.9997968601322906,0.00018103373345158624
1571.0192435276147,1571.0192435276147,0.9998959229219524,0.00018077075393231037
1571.026188058499,1571.026188058499,0.9998544031745986,0.00018045211021574696
1571.0331325893821,1571.0331325893821,0.9999902359890163,0.0001802136208688141
1571.0400771202649,1571.0400771202649,1.0001531146473748,0.00018000278937658495
1571.0470216510553,1571.0470216510553,1.0001446920673096,0.00017970534974216446
1571.0539661819382,1571.0539661819382,1.000036420199024,0.00017942230009325904
1571.0609107128225,1571.0609107128225,1.000507214241868,0.0001792345511610534
1571.0678552437062,1571.0678552437062,1.0002495721403757,0.00017892917436922675
1571.074799774589,1571.074799774589,0.9999428583319488,0.0001786304796162481
1571.081744305379,1571.081744305379,0.9994621585205763,0.0001783632447235768
1571.0886888362625,1571.0886888362625,0.9997273481133861,0.00017812776219386129
1571.095633367146,1571.095633367146,1.0002885460843922,0.0001779247562917088
1571.1025778980297,1571.1025778980297,1.0001580991222767,0.00017769653787418736
1571.1095224288197,1571.1095224288197,0.9998260727846459,0.0001774462451230131
1571.116466959703,1571.116466959703,0.9999111393698872,0.00017725204308028744
1571.123411490493,1571.123411490493,1.0000684138340425,0.0001770548859103892
1571.1303560213767,1571.1303560213767,1.0002342365032266,0.0001768924300690399
1571.1373005521673,1571.1373005521673,0.9999007412670714,0.00017665875493296884
1571.1442450830505,1571.1442450830505,0.9996980040760274,0.00017648140411880066
1571.1511896138409,1571.1511896138409,1.0001785884137129,0.00017632270922381628
1571.1581341446304,1571.1581341446304,0.9998487744852664,0.0001761604014895211
1571.165078675421,1571.165078675421,1.0002390058067006,0.000176016105943482
1571.1720232062119,1571.1720232062119,0.9999951344292526,0.00017585457064021447
1571.178967737002,1571.178967737002,1.0002558080973067,0.00017570728049400285
1571.1859122678852,1571.1859122678852,0.999900977285531,0.0001755676773633437
1571.192856798582,1571.192856798582,1.000076536169334,0.00017541848646850637
1571.1998013292787,1571.1998013292787,0.9999120817972955,0.00017531982171996617
1571.2067458600702,1571.2067458600702,0.9999599715115461,0.00017519883706030133
1571.213690390767,1571.213690390767,0.999996529188983,0.00017509616858644726
1571.2206349214637,1571.2206349214637,0.9998777769138029,0.00017497692959147864
1571.2275794522536,1571.2275794522536,0.9998365153622242,0.00017486850616589325
1571.2345239829506,1571.2345239829506,0.9997692824622009,0.00017476576399439643
1571.2414685136487,1571.2414685136487,1.0001712631156818,0.00017467393428730578
1571.2484130442526,1571.2484130442526,0.9999167317532045,0.00017453652727609227
1571.2553575749494,1571.2553575749494,1.0002362745241389,0.0001744706501044416
1571.2623021056463,1571.2623021056463,0.9997759362139679,0.0001743178121871829
1571.26924663625,1571.26924663625,1.0001045679614684,0.00017420647150328842
1571.2761911668542,1571.2761911668542,1.0003717972983686,0.00017410359861385198
1571.2831356974589,1571.2831356974589,1.000016499733063,0.00017399005572766245
1571.2900802280624,1571.2900802280624,0.999737858317765,0.00017384483402073267
1571.2970247586663,1571.2970247586663,0.9999438851129963,0.00017371100814526455
1571.3039692891768,1571.3039692891768,1.000164295022896,0.00017360052549219332
1571.3109138196878,1571.3109138196878,0.999885334731351,0.00017343806452862288
1571.3178583501995,1571.3178583501995,1.0000297183414593,0.0001733112486022124
1571.3248028808032,1571.3248028808032,0.9997356600863732,0.0001731403653559515
1571.3317474113142,1571.3317474113142,0.9999489798611197,0.00017301342540233545
1571.3386919417312,1571.3386919417312,1.0001330553162606,0.00017285941956195655
1571.3456364721487,1571.3456364721487,1.0000466333237685,0.0001727302691200096
1571.3525810026601,1571.3525810026601,1.0002780969340108,0.00017258440811578193
1571.359525533078,1571.359525533078,1.0000778122461866,0.00017244237901685588
1571.3664700634026,1571.3664700634026,0.9995501348460822,0.00017226074134865134
1571.3734145938201,1571.3734145938201,1.0001147806263848,0.00017218337146419536
1571.3803591241442,1571.3803591241442,1.0002134898931334,0.00017205265767255215
1571.3873036544687,1571.3873036544687,0.999823235450265,0.00017190162965253784
1571.3942481848874,1571.3942481848874,1.0000156768755883,0.0001717485941360338
1571.4011927151184,1571.4011927151184,1.0001450755217136,0.0001716493166475656
1571.4081372453497,1571.4081372453497,0.9999919287361511,0.00017150302506677416
1571.415081775674,1571.415081775674,0.9997038763211155,0.00017140649914723155
1571.4220263059053,1571.4220263059053,0.999961493230751,0.00017130291818851415
1571.428970836044,1571.428970836044,1.0000883230497206,0.00017121361844403988
1571.435915366369,1571.435915366369,1.0001503997014949,0.00017119390232854875
1571.442859896414,1571.442859896414,1.0004319519102618,0.00017110397394648125
1571.4498044265522,1571.4498044265522,0.9999533746776212,0.0001710292572807007
1571.4567489567835,1571.4567489567835,0.9997279170070762,0.00017095131253630722
1571.463693486735,1571.463693486735,1.0001251730187541,0.00017094013198086134
1571.470638016688,1571.470638016688,1.0001184131927592,0.00017089161523616635
1571.4775825471056,1571.4775825471056,0.9998816254924561,0.00017089958621833127
1571.4845270770575,1571.4845270770575,0.9998172787235177,0.00017081743487659486
1571.4914716070095,1571.4914716070095,1.000278454015657,0.00017087105734806665
1571.4984161369614,1571.4984161369614,0.9997338097254189,0.0001708083801123623
1571.5053606669135,1571.5053606669135,1.0000662473362378,0.0001708079921261641
1571.5123051968662,1571.5123051968662,0.9999274515378589,0.00017078534561330508
1571.5192497268176,1571.5192497268176,0.9999839074852506,0.0001707534348592589
1571.526194256397,1571.526194256397,0.9999789113061748,0.000170752557959007
1571.533138786256,1571.533138786256,0.9998308648254344,0.00017071955787213174
1571.5400833162075,1571.5400833162075,1.0002829223919227,0.0001707219231639287
1571.5470278459745,1571.5470278459745,0.999764420645857,0.00017064854821842375
1571.553972375647,1571.553972375647,0.999974392896724,0.00017066709667432222
1571.5609169055056,1571.5609169055056,1.0000703621115576,0.00017067623877441469
1571.567861435085,1571.567861435085,1.0002688514816036,0.000170654933454803
1571.5748059647572,1571.5748059647572,0.9997767939242571,0.00017058995572472483
1571.581750494523,1571.581750494523,0.9998249938331819,0.0001705966160566341
1571.5886950240103,1571.5886950240103,0.9998754868753037,0.0001705771024871474
1571.5956395535893,1571.5956395535893,0.9998655074147612,0.00017054953042474962
1571.6025840831687,1571.6025840831687,1.00010318739645,0.00017056369377055296
1571.6095286126551,1571.6095286126551,1.0003834660233601,0.00017058203303003573
1571.616473142141,1571.616473142141,0.9998601367790828,0.00017050178250811035
1571.6234176716282,1571.6234176716282,0.9999598600251408,0.00017050158769441035
1571.630362201115,1571.630362201115,1.0002309205629494,0.00017054948333537304
1571.6373067305078,1571.6373067305078,0.99999258458251,0.0001704613124588313
1571.6442512598078,1571.6442512598078,0.9998965792094724,0.00017045579961293922
1571.6511957892008,1571.6511957892008,1.000119407457189,0.00017046983530351112
1571.6581403185007,1571.6581403185007,0.9998752314265851,0.0001704061502882199
1571.6650848477088,1571.6650848477088,0.9997437953253485,0.00017037856370999917
1571.6720293769156,1571.6720293769156,1.000035948600566,0.00017039409436682738
1571.6789739062156,1571.6789739062156,0.9999908317547197,0.0001703497868434639
1571.6859184353286,1571.6859184353286,1.000253099420579,0.00017032939110238194
1571.6928629644426,1571.6928629644426,0.9998061557108409,0.00017026197452217948
1571.6998074936498,1571.6998074936498,1.0002055037099398,0.00017024513277525457
1571.706752022671,1571.706752022671,0.9999153988881204,0.00017019865391140767
1571.7136965516916,1571.7136965516916,1.0000717480889996,0.0001701865111878904
1571.7206410807119,1571.7206410807119,0.9998360227800708,0.00017011039644432941
1571.7275856096394,1571.7275856096394,1.000139904146447,0.00017006107392800868
1571.734530138567,1571.734530138567,0.9997929935942821,0.0001699855370085741
1571.7414746674947,1571.7414746674947,0.9998339048916381,0.00016992924988953195
1571.7484191962365,1571.7484191962365,1.0005467405555541,0.00016988943756809748
1571.7553637252572,1571.7553637252572,1.000156912679526,0.00016983887171376235
1571.7623082540915,1571.7623082540915,1.0000212682002592,0.00016974008372432094
1571.7692527826462,1571.7692527826462,1.0001397196675708,0.00016969261219367508
1571.7761973113875,1571.7761973113875,0.999807679963469,0.00016959205808796162
1571.783141840129,1571.783141840129,1.0000008121245423,0.00016952611940533412
1571.7900863687778,1571.7900863687778,0.999778665918803,0.00016946349848890753
1571.7970308973327,1571.7970308973327,0.9999061111761456,0.0001694354235933553
1571.8039754259803,1571.8039754259803,1.0001768387448244,0.0001694452435846683
1571.8109199545354,1571.8109199545354,1.000353067059025,0.0001693662849724958
1571.8178644829968,1571.8178644829968,0.9999793823513548,0.00016928390117368036
1571.8248090114598,1571.8248090114598,0.9998502677496637,0.00016926371023855358
1571.8317535399217,1571.8317535399217,0.999893289874821,0.00016919936403007898
1571.8386980682903,1571.8386980682903,0.9999251131169997,0.00016912879339410456
1571.8456425965655,1571.8456425965655,1.0000785461166168,0.00016914514582372055
1571.8525871248407,1571.8525871248407,0.9996799620912927,0.00016909182568479285
1571.8595316532096,1571.8595316532096,0.9999690888081559,0.00016904634808973882
1571.8664761813932,1571.8664761813932,1.0001526130278928,0.0001690037513677604
1571.8734207095754,1571.8734207095754,1.0000960904964882,0.000168998324253713
1571.8803652377578,1571.8803652377578,1.0003332758456225,0.0001690127456143358
1571.8873097658468,1571.8873097658468,0.9998074862104179,0.00016894486671318058
1571.8942542939362,1571.8942542939362,1.0001794889512978,0.00016895415246086744
1571.9011988219322,1571.9011988219322,0.9999241262652211,0.00016895953699585516
1571.9081433499293,1571.9081433499293,0.9999629986241938,0.00016890302492681734
1571.9150878778323,1571.9150878778323,0.9998478868012057,0.00016890079571153232
1571.9220324058283,1571.9220324058283,1.0000057333315209,0.0001689084410053352
1571.9289769336383,1571.9289769336383,0.999859305607375,0.00016886714553833248
1571.9359214615413,1571.9359214615413,1.0001422624992056,0.00016890098788675248
1571.9428659891646,1571.9428659891646,0.9999425476968012,0.00016886685379451945
1571.9498105168827,1571.9498105168827,1.000144035113966,0.00016889713057425577
1571.9567550448787,1571.9567550448787,0.9999533139618867,0.00016881229843582015
1571.963699572502,1571.963699572502,0.9997317486488381,0.00016876095976258872
1571.9706441001256,1571.9706441001256,1.000263400829159,0.00016881153252596052
1571.977588627749,1571.977588627749,0.9999173769375787,0.0001687400044630117
1571.9845331549068,1571.9845331549068,1.0001446431598946,0.0001687425782916944
1571.991477682532,1571.991477682532,1.0002649564844979,0.00016873388437074372
1571.9984222101552,1571.9984222101552,0.9998901570552876,0.00016870133360827072
1572.005366737313,1572.005366737313,0.9998358708759184,0.00016864886925544662
1572.0123112648434,1572.0123112648434,1.00007666989689,0.00016866908587101503
1572.0192557920943,1572.0192557920943,0.9999680057034144,0.00016862978155764591
1572.0262003193454,1572.0262003193454,0.9996597206456619,0.00016856554184527508
1572.0331448465977,1572.0331448465977,1.0000992550717935,0.00016859288472316183
1572.0400893737556,1572.0400893737556,0.9999541283204515,0.00016852366519281824
1572.0470339009132,1572.0470339009132,1.0001219820503358,0.00016853271888130831
1572.0539784280713,1572.0539784280713,1.0002040404858232,0.00016848272546112866
1572.060922955136,1572.060922955136,0.9999833042545951,0.0001684553840014369
1572.0678674820147,1572.0678674820147,1.000177195868744,0.00016844141295436474
1572.0748120090805,1572.0748120090805,0.9998381200774948,0.00016837450555191278
1572.081756535866,1572.081756535866,1.000075599141439,0.00016835299299875612
1572.0887010629306,1572.0887010629306,0.9996828529618625,0.00016829951976059213
1572.0956455896226,1572.0956455896226,0.9998902109139605,0.00016829111802033444
1572.102590116408,1572.102590116408,1.0001770632597426,0.00016825678033134412
1572.109534643193,1572.109534643193,0.9999985087422093,0.00016821487393336632
1572.1164791698868,1572.1164791698868,0.9998290262336026,0.000168162649877774
1572.123423696486,1572.123423696486,0.9999832267596908,0.00016815295669242507
1572.1303682230846,1572.1303682230846,0.9999859468414929,0.0001681221872236986
1572.137312749684,1572.137312749684,1.0001328172348982,0.0001681008379090254
1572.1442572761898,1572.1442572761898,0.9999791054741725,0.0001680610166995752
1572.1512018026026,1572.1512018026026,1.0002374473802127,0.00016806923988582162
1572.1581463291095,1572.1581463291095,0.999989117731851,0.0001680435128114197
1572.165090855336,1572.165090855336,1.0001201745197503,0.00016803768662002421
1572.172035381656,1572.172035381656,0.9998862712604936,0.00016797007570544558
1572.1789799079756,1572.1789799079756,1.0001242878727532,0.00016798599684102699
1572.1859244342022,1572.1859244342022,0.9997936613586264,0.00016795099733912295
1572.1928689603358,1572.1928689603358,0.9999999996207747,0.00016794873982656317
1572.1998134863763,1572.1998134863763,0.9998033543021743,0.00016795635601781232
1572.2067580125106,1572.2067580125106,0.9999928115927551,0.00016792744082404616
1572.213702538551,1572.213702538551,1.0002144732715978,0.00016794456664108516
1572.2206470645913,1572.2206470645913,1.0000775070502428,0.0001679389991190231
1572.227591590445,1572.227591590445,0.9998323760737812,0.00016789323372246324
1572.234536116392,1572.234536116392,0.9999361193029402,0.00016789044063896303
1572.2414806422462,1572.2414806422462,0.9999007640917442,0.00016786854787295184
1572.2484251680085,1572.2484251680085,1.0001516620729411,0.0001678886892015695
1572.2553696936761,1572.2553696936761,1.0001241469317683,0.00016787088919620165
1572.2623142193438,1572.2623142193438,0.9999993447782259,0.00016782951811628033
1572.2692587451045,1572.2692587451045,0.9999049332996378,0.00016783036699779915
1572.2762032705864,1572.2762032705864,1.00040223687297,0.00016783176871769642
1572.2831477961604,1572.2831477961604,0.9998433006571433,0.0001677631028390972
1572.2900923215502,1572.2900923215502,0.9995885147386453,0.00016770851762612445
1572.297036847218,1572.297036847218,0.9999784643184892,0.00016772418732258223
1572.3039813725131,1572.3039813725131,1.0002343175277675,0.00016772233776352668
1572.3109258978086,1572.3109258978086,0.9998754926278328,0.0001676720484339875
1572.3178704231036,1572.3178704231036,1.0002866074430754,0.00016767885691472843
1572.3248149483989,1572.3248149483989,0.9999300339314141,0.00016759029360996757
1572.3317594736013,1572.3317594736013,1.0001208610870413,0.0001676120782721364
1572.338703998525,1572.338703998525,1.0002514118616586,0.0001675620354478593
1572.3456485238203,1572.3456485238203,1.0002554361185805,0.00016753131277317775
1572.3525930486496,1572.3525930486496,0.9997659716806216,0.00016744653044720295
1572.3595375737586,1572.3595375737586,0.9997223079055253,0.0001674594253025403
1572.366482098681,1572.366482098681,1.0001596287081862,0.00016744194679660856
1572.3734266235108,1572.3734266235108,1.0000184643744536,0.00016738782481507547
1572.380371148342,1572.380371148342,1.000049339151775,0.000167375768880111
1572.3873156730779,1572.3873156730779,0.9999030037493138,0.00016731330490776238
1572.3942601978142,1572.3942601978142,1.0000193467315852,0.00016733033327866523
1572.401204722551,1572.401204722551,1.000035319144446,0.00016725923963591924
1572.4081492471007,1572.4081492471007,0.9999385009461704,0.00016724314720987775
1572.415093771651,1572.415093771651,1.0002762698488912,0.00016723464915961104
1572.422038296202,1572.422038296202,0.9999419101266088,0.00016719972514995184
1572.4289828206593,1572.4289828206593,1.000137401150827,0.0001671640625974144
1572.4359273450236,1572.4359273450236,0.999856731967629,0.00016715822366417885
1572.4428718693875,1572.4428718693875,1.0000115389920452,0.00016714504573794956
1572.449816393751,1572.449816393751,0.9998916300899905,0.00016710760183322374
1572.456760917929,1572.456760917929,0.999872470229606,0.00016707596606517088
1572.4637054421066,1572.4637054421066,0.9997816070141508,0.00016703688430192294
1572.4706499661922,1572.4706499661922,1.0003158446247375,0.00016707078319564282
1572.47759449037,1572.47759449037,0.9998984227020493,0.00016704687622914728
1572.4845390144542,1572.4845390144542,1.0003391872847254,0.00016710363084735546
1572.4914835383524,1572.4914835383524,0.9997748057450518,0.00016704242895966003
1572.4984280623437,1572.4984280623437,1.0000506924158015,0.00016701827358561898
1572.505372586242,1572.505372586242,1.0001491100744355,0.00016703894620904506
1572.5123171099547,1572.5123171099547,1.0001012059484355,0.00016699457516975105
1572.5192616336672,1572.5192616336672,0.9997627636626438,0.0001669751226157776
1572.5262061574724,1572.5262061574724,1.0000847212532473,0.00016703309278076693
1572.5331506810912,1572.5331506810912,0.9999004614430683,0.00016699568882087395
1572.5400952047098,1572.5400952047098,1.0000025624083957,0.00016700520501029465
1572.5470397282356,1572.5470397282356,0.9997987260217018,0.00016696423074961784
1572.5539842517612,1572.5539842517612,1.0000745929658044,0.00016698816577878146
1572.5609287751952,1572.5609287751952,1.0001251799135933,0.0001669815049895283
1572.5678732985348,1572.5678732985348,1.0000337683057525,0.0001669741450577639
1572.5748178217807,1572.5748178217807,1.000120936394474,0.00016698691958202784
1572.5817623452137,1572.5817623452137,1.0000088563066947,0.0001669722617160317
1572.5887068682734,1572.5887068682734,0.9999623698268743,0.00016698604969600438
1572.5956513916128,1572.5956513916128,0.9999107106565696,0.00016692870083242275
1572.60259591458,1572.60259591458,1.0000160554423856,0.0001669534810850343
1572.6114849039786,1572.6114849039786,0.9999488268670678,0.00016697844463228075
1572.6262072926684,1572.6262072926684,1.0002402066090184,0.000166990383327925
1572.6331518156355,1572.6331518156355,0.9997192500427488,0.00016693483364570383
1572.640096338323,1572.640096338323,0.9998520729032132,0.00016696094686562235
1572.6470408611033,1572.6470408611033,1.000148666560434,0.0001670022993312971
1572.653985383699,1572.653985383699,0.9999535199006718,0.00016697374858045186
1572.660929906387,1572.660929906387,1.0001914398039602,0.00016699100477531812
1572.667874428981,1572.667874428981,0.9999891998238694,0.0001669557611113349
1572.6748189514824,1572.6748189514824,1.0000084635922395,0.0001669173182329773
