time,time,flux,flux_err
1491.6403297237705,1491.6403297237705,0.9998670015252334,0.00033738519142290736
1491.6486631420296,1491.6486631420296,1.0000288035466645,0.0003373688277501146
1491.6563021086981,1491.6563021086981,0.9997272664855255,0.00030787257364649657
1491.6632466236376,1491.6632466236376,1.0000648619007224,0.00030773820793671445
1491.6701911387634,1491.6701911387634,1.0004100508661327,0.000307793797396342
1491.6771356536094,1491.6771356536094,1.000314675006239,0.0003077224490716932
1491.6840801683622,1491.6840801683622,1.0002810811075942,0.00030758375583612454
1491.691024683115,1491.691024683115,0.9998767920050569,0.00030749650601891957
1491.6979691977747,1491.6979691977747,1.000040865850443,0.00030748531902548016
1491.7049137123413,1491.7049137123413,0.9993740942767564,0.00030733394346076857
1491.711858226815,1491.711858226815,0.9995866193872629,0.00030722444554586
1491.7188027412888,1491.7188027412888,1.0000349146082401,0.00030727260722353896
1491.7257472555757,1491.7257472555757,1.0009104908861253,0.00030730522331872057
1491.7326917698629,1491.7326917698629,0.9998402882521681,0.0003070058046074566
1491.739636283964,1491.739636283964,1.0000898442201631,0.0003068871463347624
1491.7465807979718,1491.7465807979718,1.0000456736874368,0.0003068609569394581
1491.7535253119797,1491.7535253119797,0.9996886335726456,0.00030666540785046577
1491.760469825708,1491.760469825708,0.999299925327298,0.00030649300838270487
1491.7674143394363,1491.7674143394363,0.9995004708122073,0.000306485984531888
1491.7743588531648,1491.7743588531648,0.9997261771253173,0.0003065112100957209
1491.7813033668933,1491.7813033668933,1.0024824457313086,0.000306581294258204
1491.788247880249,1491.788247880249,1.0010830787296812,0.00030641966676921595
1491.795192393698,1491.795192393698,0.9997542784796434,0.0003061661639585223
1491.802136906961,1491.802136906961,1.0003620578448662,0.00030618452478147385
1491.8090814201303,1491.8090814201303,0.9995727011238849,0.0003060936381936556
1491.816025933207,1491.816025933207,1.0000240034238441,0.00030605760269883587
1491.8229704461905,1491.8229704461905,1.0001739391658602,0.0003059787466006917
1491.8299149589875,1491.8299149589875,0.9996241140868121,0.0003058391310687006
1491.8368594716915,1491.8368594716915,1.0005820872099447,0.0003059508867217928
1491.8438039843022,1491.8438039843022,0.9997921243319945,0.00030583267377461934
1491.85074849682,1491.85074849682,0.9993466361659905,0.00030571694546814885
1491.8576930093377,1491.8576930093377,0.9999530559691993,0.0003057712829995273
1491.8646375216695,1491.8646375216695,0.9997547934057083,0.00030581905338375025
1491.8715820339078,1491.8715820339078,0.9991112839273153,0.00030543342521097236
1491.8785265458666,1491.8785265458666,1.000095525715967,0.00030567559460123857
1491.8854710579187,1491.8854710579187,0.999580854961412,0.0003056371440623493
1491.8924155697846,1491.8924155697846,1.000138704176046,0.0003056919856823259
1491.899360081557,1491.899360081557,1.000910510594863,0.0003057478108931637
1491.9063045930502,1491.9063045930502,1.005754371511312,0.0003062229653328844
1491.9132491048233,1491.9132491048233,1.0044216246192117,0.00030552856315576085
1491.920193616316,1491.920193616316,1.0003718083883886,0.0003048592440423357
1491.9271381272506,1491.9271381272506,1.0005486445684615,0.0003050244923122511
1491.934082638651,1491.934082638651,0.9999514804526338,0.00030486003909693777
1491.941027149585,1491.941027149585,1.0001292517336584,0.0003049848784042887
1491.9479716606127,1491.9479716606127,0.9993977316512128,0.00030490737873571096
1491.9549161713614,1491.9549161713614,0.9996751285194534,0.000304992987610024
1491.961860682109,1491.961860682109,0.9991331592898852,0.00030499783197130955
1491.968805192671,1491.968805192671,0.9990390228258044,0.0003049768354443458
1491.9757497032329,1491.9757497032329,0.9994515243209168,0.00030516489873152087
1491.9826942134223,1491.9826942134223,1.0014620272209702,0.0003054444914134966
1491.9896387237047,1491.9896387237047,1.0012654110697108,0.00030545931790157285
1491.9965832338946,1491.9965832338946,1.0005970726815692,0.0003053558926468819
1492.0035277438046,1492.0035277438046,1.0001519431234394,0.00030537104289001915
1492.0104722536216,1492.0104722536216,0.9998521169890113,0.0003053760649773759
1492.0174167634382,1492.0174167634382,0.9994595464094177,0.00030530747503837094
1492.0243612730687,1492.0243612730687,0.9997780339743189,0.000305359492097311
1492.031305782513,1492.031305782513,1.0003260731264114,0.00030553638808801466
1492.0382502919579,1492.0382502919579,0.9999569830414836,0.00030550034918563294
1492.0451948010295,1492.0451948010295,1.0001588649537894,0.00030560758136236683
1492.0521393101012,1492.0521393101012,0.9999677550180669,0.00030558743930114945
1492.0590838191729,1492.0590838191729,1.0004915299135506,0.000305684789210369
1492.0660283282448,1492.0660283282448,0.9996746936407235,0.00030556841066151156
1492.072972836851,1492.072972836851,1.0001282409742678,0.0003056277722448059
1492.0799173455503,1492.0799173455503,0.9998962357653012,0.00030577851558474063
1492.0868618539703,1492.0868618539703,0.9995818146711185,0.00030569181230931765
1492.0938063623898,1492.0938063623898,0.9994146957531495,0.0003056814618858068
1492.1007508706236,1492.1007508706236,1.0001287645800279,0.00030586164444631255
1492.1076953787644,1492.1076953787644,1.0002424756294146,0.0003058670387308914
1492.1146398867181,1492.1146398867181,1.0006323221874962,0.0003059658130440697
1492.1215843946725,1492.1215843946725,1.0004480439613508,0.0003059631722274814
1492.1285289023476,1492.1285289023476,0.9995831447644301,0.00030589722344477913
1492.1354734099289,1492.1354734099289,1.0000838058656645,0.0003059618260175122
1492.1424179174178,1492.1424179174178,0.999737160306984,0.0003059636665617273
1492.14936242472,1492.14936242472,0.9999927362639109,0.000306082670193592
1492.1563069320225,1492.1563069320225,0.9996332304903204,0.00030597533400801395
1492.163251438952,1492.163251438952,1.000318695742425,0.0003061402450368589
1492.1701959461614,1492.1701959461614,0.9999120073253642,0.000306153539374979
1492.1771404529052,1492.1771404529052,0.9999789251310963,0.00030608791395199446
1492.184084959648,1492.184084959648,1.0000414292970494,0.0003060997711203745
1492.1910294661125,1492.1910294661125,0.9999597004160755,0.0003061435214445589
1492.1979739725766,1492.1979739725766,1.000359430221664,0.00030623273952406203
1492.2049184788543,1492.2049184788543,0.9994237559351026,0.00030606742448706365
1492.2118629850393,1492.2118629850393,0.9999141431987534,0.0003061522505853829
1492.218807491224,1492.218807491224,1.000760637681039,0.0003063373912963739
1492.2257519970358,1492.2257519970358,0.9995323864500703,0.0003061171793933542
1492.232696502755,1492.232696502755,1.000150553705096,0.00030620183055285813
1492.2396410085676,1492.2396410085676,0.9997705839928187,0.00030621263219735815
1492.2465855140067,1492.2465855140067,0.9999328879102809,0.0003062627214781587
1492.2535300194463,1492.2535300194463,1.0000332457822019,0.0003062483125549926
1492.2604745246997,1492.2604745246997,1.000325572256943,0.00030631317804350226
1492.2674190298599,1492.2674190298599,1.0000830253476194,0.0003062901386437415
1492.2743635348338,1492.2743635348338,1.0002717359803612,0.0003063303770694993
1492.281308039715,1492.281308039715,0.9996121805245096,0.00030623526145944386
1492.288252544503,1492.288252544503,1.0001193381629103,0.0003062388009267208
1492.2951970489182,1492.2951970489182,0.9997084036306039,0.00030623797761370787
1492.302141553427,1492.302141553427,1.000222409358966,0.00030633840145175885
1492.309086057749,1492.309086057749,1.0000888939175572,0.0003063374498206597
1492.3160305621639,1492.3160305621639,0.9997120411843998,0.00030635724615223216
1492.3229750662065,1492.3229750662065,1.0002923578997809,0.00030642479441507953
1492.329919570156,1492.329919570156,0.9995823930854597,0.00030629362664439665
1492.3368640740125,1492.3368640740125,0.9998294918824289,0.0003063517887888143
1492.3438085776825,1492.3438085776825,1.000317701370428,0.00030642595563154816
1492.3507530812594,1492.3507530812594,0.9997397428001715,0.0003063624828209809
1492.3576975846502,1492.3576975846502,1.0003796871013435,0.0003064311432909801
1492.3646420880411,1492.3646420880411,0.999622943397734,0.00030645187886880934
1492.3715865910594,1492.3715865910594,1.0002475133409772,0.00030643756104677697
1492.3785310941703,1492.3785310941703,0.999784695385286,0.0003063466177246687
1492.3854755970024,1492.3854755970024,1.000023446601145,0.00030640358677024807
1492.3924200998345,1492.3924200998345,1.0002449135457994,0.00030649636888714513
1492.39936460248,1492.39936460248,0.9999704452251852,0.0003065076004286451
1492.4063091049393,1492.4063091049393,0.9991697799379626,0.00030638352007106366
1492.4132536072127,1492.4132536072127,1.0001317760903092,0.0003064991502943369
1492.420198109672,1492.420198109672,0.9997353860837134,0.00030646946268289175
1492.427142611852,1492.427142611852,1.0000818252098775,0.0003065152606512593
1492.4340871134737,1492.4340871134737,0.9996966877627006,0.000306342844511867
1492.4410316154674,1492.4410316154674,1.000361974083312,0.00030656920901832486
1492.447976117182,1492.447976117182,1.0050891633216772,0.00030712001399094634
1492.45492061871,1492.45492061871,1.0033147427028661,0.00030662971575094055
1492.4618651201447,1492.4618651201447,1.0003429683860292,0.0003062550805281518
1492.4688096213933,1492.4688096213933,0.9997430709263172,0.0003062376357697913
1492.4757541226422,1492.4757541226422,0.9993798168425636,0.0003061496970821465
1492.482698623798,1492.482698623798,0.9991035468703686,0.00030623380716853236
1492.4896431246739,1492.4896431246739,0.9996043961555603,0.0003063066348408541
1492.4965876253639,1492.4965876253639,0.9992820957257234,0.0003062945938868619
1492.5035321259609,1492.5035321259609,0.9994117771516704,0.000306349442591716
1492.510476626464,1492.510476626464,1.001129017110644,0.00030657461051862973
1492.517421126968,1492.517421126968,1.000902296461224,0.000306549089515865
1492.524365627099,1492.524365627099,1.0002934139337456,0.00030644629130098424
1492.5313101273232,1492.5313101273232,0.9998366669494931,0.00030637123816470286
1492.5382546270819,1492.5382546270819,0.9991458819120146,0.0003061493894892802
1492.5451991273062,1492.5451991273062,1.0000719585427056,0.00030645020731416675
1492.552143626785,1492.552143626785,0.9995802725232157,0.000306198144910724
1492.5590881263574,1492.5590881263574,0.9998334044250108,0.0003065299211607616
1492.5660326258371,1492.5660326258371,0.9997995717270566,0.00030642196968964794
1492.5729771251295,1492.5729771251295,0.9999776996001863,0.0003063919312122048
1492.5799216244225,1492.5799216244225,1.000226110685226,0.0003064749213243801
1492.5868661233428,1492.5868661233428,1.0002167318612016,0.00030635790271784426
1492.5938106223562,1492.5938106223562,1.000298946867283,0.0003063384212085865
1492.600755121091,1492.600755121091,0.999979458869743,0.0003064037839056483
1492.6076996196387,1492.6076996196387,0.9995588407017229,0.0003063144093447199
1492.6146441182798,1492.6146441182798,1.000002006977739,0.0003061387683925249
1492.6215886166415,1492.6215886166415,0.9998326367987957,0.00030639383265549736
1492.6285331149102,1492.6285331149102,0.9996880572782432,0.00030633894402019445
1492.6354776130852,1492.6354776130852,0.9993847370458282,0.00030617231393343335
1492.6424221110742,1492.6424221110742,0.9999433014955225,0.00030619580656220623
1492.649366608877,1492.649366608877,1.0003772824822599,0.0003062834904285851
1492.6563111066798,1492.6563111066798,0.9984631657669784,0.00030601688403093135
1492.66325560411,1492.66325560411,1.0006982090756424,0.0003063648699473416
1492.6702001015403,1492.6702001015403,0.9993025391569106,0.0003061478520161525
1492.6771445989705,1492.6771445989705,0.9995590725609373,0.0003061860926729759
1492.6840890963076,1492.6840890963076,0.9994089485593088,0.00030608343885323827
1492.6910335932726,1492.6910335932726,1.0009574521763989,0.00030629543750031326
1492.697978090237,1492.697978090237,1.000100547756749,0.00030620538245592656
1492.704922587015,1492.704922587015,0.9998259485223292,0.0003061694943879587
1492.7118670837003,1492.7118670837003,1.0001536177988803,0.00030603538615744453
1492.7188115801996,1492.7188115801996,0.9998863158457926,0.00030611860266844014
1492.7257560766984,1492.7257560766984,1.0002402692542418,0.00030616018231028
1492.7327005729178,1492.7327005729178,1.0002449519620986,0.00030618782494117047
1492.7396450690444,1492.7396450690444,0.9999121638690054,0.0003061941871636628
1492.7465895650773,1492.7465895650773,0.9999197279416551,0.00030612656635819845
1492.7535340609245,1492.7535340609245,1.00014095277372,0.0003062213113133875
1492.760478556679,1492.760478556679,1.0000764476595134,0.00030612727298776136
1492.7674230523396,1492.7674230523396,0.9991504820595514,0.00030597927417574613
1492.7743675478143,1492.7743675478143,0.9995067021539394,0.0003061306165008329
1492.7813120431954,1492.7813120431954,0.9997238404142189,0.00030603341756124273
1492.7882565382974,1492.7882565382974,1.0005274480039308,0.00030620285582314157
1492.795201033399,1492.795201033399,0.9999265443053644,0.0003061595736165143
1492.8021455285013,1492.8021455285013,1.0003867986390833,0.00030610691174557417
1492.809090023231,1492.809090023231,1.0001348508464614,0.00030610506130396867
1492.8160345179601,1492.8160345179601,1.0003024351453549,0.00030612705497424077
1492.8229790125965,1492.8229790125965,0.9996037297470333,0.0003061448504357394
1492.829923506954,1492.829923506954,0.9999420486371641,0.00030623071611698586
1492.8368680013102,1492.8368680013102,0.9995972643224796,0.0003059762970679844
1492.8438124954812,1492.8438124954812,0.999639744777539,0.0003061101928504481
1492.8507569894655,1492.8507569894655,1.0001585360300906,0.000306211259130271
1492.8577014833568,1492.8577014833568,0.9999976853313374,0.00030622905844122016
1492.864645977248,1492.864645977248,1.000443084664946,0.00030610374096889183
1492.87159047086,1492.87159047086,0.9992705422709405,0.00030600398962619724
1492.878534964378,1492.878534964378,1.0007174679494693,0.000306153824665506
1492.885479457804,1492.885479457804,0.9999874516470021,0.00030607260100442825
1492.8924239510438,1492.8924239510438,0.9998895977829505,0.0003060117813337538
1492.8993684440964,1492.8993684440964,1.0002052452700325,0.00030613120163545477
1492.9063129372425,1492.9063129372425,0.999870757348954,0.00030605805785482895
1492.9132574301093,1492.9132574301093,1.0006308543655147,0.0003062207976872526
1492.9202019228826,1492.9202019228826,0.9997913598921013,0.0003058345242419076
1492.9271464152846,1492.9271464152846,0.9994893661961439,0.00030596001874187267
1492.934090907872,1492.934090907872,0.998898778607263,0.00030574544090468885
1492.94103540018,1492.94103540018,0.9994525146041175,0.00030587417229975696
1492.9479798923949,1492.9479798923949,0.9994685050526076,0.0003057676451640714
1492.9549243844237,1492.9549243844237,1.0031788733487463,0.00030612815803442265
1492.9618688764522,1492.9618688764522,1.002427206706447,0.0003061651978920489
1492.9688133682012,1492.9688133682012,1.0011814682354623,0.0003058751619759151
1492.9757578600436,1492.9757578600436,1.0002151448470156,0.00030576679507340676
1492.9827023515134,1492.9827023515134,1.0003562806770998,0.0003057879567659605
1492.989646842983,1492.989646842983,0.9998268154409035,0.0003057165401022456
1492.9965913342664,1492.9965913342664,0.9996901638181923,0.00030561044029030134
1493.003535825457,1493.003535825457,1.000028345763837,0.0003056725373556518
1493.0104803165543,1493.0104803165543,0.9996059095875316,0.0003057640839374381
1493.0174248073722,1493.0174248073722,1.0002055488030206,0.00030566230882700043
1493.02436929819,1493.02436929819,0.9997348513382776,0.0003056100403957817
1493.0313137889148,1493.0313137889148,1.000063292460169,0.00030573951349627856
1493.0382582795464,1493.0382582795464,0.9997693342463213,0.0003056968536961625
1493.0452027699919,1493.0452027699919,0.9995762936658339,0.00030567714809511876
1493.0521472599717,1493.0521472599717,1.0007455025495497,0.00030581414115880086
1493.0590917502304,1493.0590917502304,0.9991843873814099,0.00030552451022967676
1493.0660362402105,1493.0660362402105,1.0006657261507386,0.00030569751747476357
1493.0729807300966,1493.0729807300966,0.9995109188538436,0.00030567677260287627
1493.0799252198901,1493.0799252198901,0.999776475329876,0.00030582929965479054
1493.0868697094975,1493.0868697094975,1.0001580499049747,0.00030563213836093574
1493.0938141990114,1493.0938141990114,0.9995839588360713,0.0003056472918223471
1493.1007586883397,1493.1007586883397,1.0003175869038665,0.000305713740044878
1493.1077031775742,1493.1077031775742,1.000167566740385,0.0003057644529068474
1493.1146476667157,1493.1146476667157,1.0001974989360782,0.0003056726307149859
1493.1215921557637,1493.1215921557637,1.0000557291955046,0.00030580344692142207
1493.1285366445331,1493.1285366445331,1.000235679687401,0.00030565848361423155
1493.135481133302,1493.135481133302,1.000001612255016,0.00030566431882386583
1493.1424256218847,1493.1424256218847,0.9998494519384307,0.00030554743696244803
1493.1493701103743,1493.1493701103743,0.9997880872448279,0.00030571652653748965
1493.1563145986777,1493.1563145986777,1.0001400181519948,0.0003056835947117954
1493.1632590870738,1493.1632590870738,1.0000333353122948,0.0003057652690216397
1493.1702035751912,1493.1702035751912,1.000418382143035,0.00030588043697914484
1493.1771480628427,1493.1771480628427,1.0002679161882317,0.00030570551612389994
1493.1840925508664,1493.1840925508664,0.9997567835554413,0.00030571661005279955
1493.191037038518,1493.191037038518,0.9997544186494848,0.0003056889236565771
1493.197981526076,1493.197981526076,1.0001893165038827,0.000305794338637225
1493.204926013541,1493.204926013541,0.9994280122951464,0.0003055688977497905
1493.21187050082,1493.21187050082,0.9998660308833938,0.0003056494982823883
1493.2188149880062,1493.2188149880062,1.0002387717131866,0.00030584058467492565
1493.2257594750984,1493.2257594750984,1.000540343119278,0.00030563924504002974
1493.2327039620977,1493.2327039620977,0.9996160354915222,0.000305748420978168
1493.2396484488177,1493.2396484488177,1.000093573695745,0.0003055804339228915
1493.2465929354444,1493.2465929354444,0.9995158277838317,0.00030554370295098434
1493.2535374220715,1493.2535374220715,0.9995965280926107,0.0003056535138705604
1493.2604819085125,1493.2604819085125,1.0000886279855776,0.00030566516708166415
1493.2674263947665,1493.2674263947665,1.000307096244718,0.0003057209293511195
1493.2743708810212,1493.2743708810212,1.0001258251183074,0.00030570670413957536
1493.2813153669033,1493.2813153669033,0.9999518494195027,0.00030562610126331797
1493.2882598530648,1493.2882598530648,1.0003282934872808,0.00030571847190422004
1493.2952043388532,1493.2952043388532,0.9998828503884709,0.00030565621048175547
1493.3021488242698,1493.3021488242698,0.9993017041004373,0.00030554277061955494
1493.3090933099652,1493.3090933099652,0.9998237980292922,0.0003056244734676014
1493.3160377953814,1493.3160377953814,1.0001216374369275,0.0003056528907129622
1493.322982280611,1493.322982280611,1.0001688860646658,0.0003055977338234059
1493.3299267658413,1493.3299267658413,1.0002598410400516,0.00030569261047184017
1493.336871250885,1493.336871250885,1.0000723745757172,0.0003056687453864047
1493.3438157357425,1493.3438157357425,1.000222422441174,0.00030564905181422567
1493.3507602205068,1493.3507602205068,0.9997494322825362,0.0003056055058722727
1493.3577047050844,1493.3577047050844,0.9998798323536171,0.0003056754191701317
1493.3646491897557,1493.3646491897557,1.0001326773442916,0.0003057391946231138
1493.3715936740546,1493.3715936740546,0.9998634655127845,0.000305475302006371
1493.378538158353,1493.378538158353,1.0000388784797742,0.0003058009165110993
1493.3854826424654,1493.3854826424654,1.0000210673752057,0.00030568389890281986
1493.392427126578,1493.392427126578,0.9994061271190112,0.000305585428774419
