time,time,flux,flux_err
1325.3025356648707,1325.3025356648707,0.9994045773600343,0.0004655790270294717
1325.3108690955326,1325.3108690955326,1.001021972111956,0.0004660417356523315
1325.3192025261565,1325.3192025261565,1.0003772629293948,0.00046622915962593635
1325.3275359567797,1325.3275359567797,1.0036745818751163,0.00046660373218260513
1325.335174934782,1325.335174934782,0.9997314363577647,0.00042535649016681875
1325.3421194602483,1325.3421194602483,0.9999066701965527,0.00042557093308437914
1325.3490639856686,1325.3490639856686,0.9998586451532481,0.0004256719069940797
1325.3560085110419,1325.3560085110419,0.999296437341226,0.0004258392865964807
1325.3629530364153,1325.3629530364153,0.9999427786284478,0.0004260392772608863
1325.369897561789,1325.369897561789,0.9994545560432773,0.00042606894757129464
1325.3768420871152,1325.3768420871152,1.0008010692840812,0.00042638216970963556
1325.3837866124425,1325.3837866124425,0.9997784224832487,0.0004262545743889031
1325.390731137769,1325.390731137769,0.9996666472406831,0.00042632679381333005
1325.397675663049,1325.397675663049,0.9996334678179437,0.00042640227938762885
1325.404620188283,1325.404620188283,1.0002116603050517,0.000426462925667259
1325.411564713563,1325.411564713563,1.0004201688337384,0.0004264686867668091
1325.4185092387502,1325.4185092387502,0.9999127792475588,0.00042636970378761164
1325.425453763984,1325.425453763984,0.9989685015989445,0.0004262109377916208
1325.432398289171,1325.432398289171,1.0005748576086286,0.0004265687124006657
1325.4393428143117,1325.4393428143117,1.0004956614479883,0.0004265422725408025
1325.4462873394987,1325.4462873394987,0.9999453549585955,0.00042647537044166573
1325.4532318646393,1325.4532318646393,1.000208659144894,0.0004265672869960228
1325.460176389733,1325.460176389733,0.9999351360148866,0.00042645549172966947
1325.4671209148737,1325.4671209148737,0.9996043700712793,0.00042642428800978535
1325.474065439921,1325.474065439921,0.9999718614006857,0.0004265850455766688
1325.4810099650153,1325.4810099650153,1.000133994291294,0.0004266356264000746
1325.4879544900625,1325.4879544900625,0.9996326247626355,0.00042652960260895886
1325.4948990151101,1325.4948990151101,1.0007833991136432,0.0004268190911427534
1325.5018435401576,1325.5018435401576,0.9998120140610943,0.0004266782561122851
1325.5087880651117,1325.5087880651117,1.000114254588063,0.0004268957130543909
1325.515732590159,1325.515732590159,0.9994587830993126,0.00042676477457525365
1325.5226771151601,1325.5226771151601,1.0004819462741836,0.0004270229802529499
1325.529621640114,1325.529621640114,1.0004815394631361,0.00042711018508714675
1325.5365661650685,1325.5365661650685,0.9998587018950446,0.0004270773498911477
1325.543510689976,1325.543510689976,0.9994809130715996,0.0004270429450955461
1325.5504552149307,1325.5504552149307,0.9993772521674433,0.00042713882847739777
1325.557399739838,1325.557399739838,1.0001240415026422,0.0004272391104902915
1325.564344264746,1325.564344264746,1.0005796473134698,0.0004274178695078472
1325.5712887896073,1325.5712887896073,0.9990200720824193,0.00042714799409659536
1325.5782333145148,1325.5782333145148,1.0003090983032048,0.00042745118200649004
1325.5851778393762,1325.5851778393762,0.9998200894035076,0.0004273073570655505
1325.5921223642367,1325.5921223642367,1.001406291789904,0.00042755281404698394
1325.5990668890518,1325.5990668890518,1.0006887518763672,0.00042753320683369504
1325.6060114139127,1325.6060114139127,1.0001195711553013,0.000427431322943209
1325.6129559387275,1325.6129559387275,1.0002144139385354,0.0004274927981555524
1325.6199004634955,1325.6199004634955,0.9996092506769421,0.0004273789828690987
1325.62684498831,1325.62684498831,0.9992719668978507,0.0004273336903642914
1325.6337895130782,1325.6337895130782,0.9995450956081097,0.00042731364215070985
1325.6407340378462,1325.6407340378462,1.0003894491652423,0.0004274341392694195
1325.647678562614,1325.647678562614,1.000003343002829,0.0004273366639794965
1325.6546230873355,1325.6546230873355,1.0005676364852207,0.0004274774510066257
1325.6615676120568,1325.6615676120568,1.0002857546900477,0.00042739983529626723
1325.668512136825,1325.668512136825,0.9998976110520909,0.0004273427674480145
1325.6754566614532,1325.6754566614532,0.999663683544657,0.00042729253930575545
1325.682401186268,1325.682401186268,0.9996255196914777,0.00042719446303001444
1325.6893457108497,1325.6893457108497,1.0004417927942626,0.00042732027304152686
1325.696290235571,1325.696290235571,0.9994348227338034,0.0004271772812322633
1325.7032347602465,1325.7032347602465,0.9998889763449611,0.0004271912164001009
1325.710179284828,1325.710179284828,1.0004498105572404,0.00042737212850227574
1325.7171238094095,1325.7171238094095,0.9999684784555537,0.00042729537873188093
1325.7240683342238,1325.7240683342238,1.0001901044118564,0.00042729047460584224
1325.7310128588058,1325.7310128588058,1.0003566875584693,0.0004273551681257232
1325.7379573833875,1325.7379573833875,0.9996213713792583,0.00042721101851933856
1325.7449019079693,1325.7449019079693,0.999355959250648,0.00042717516008130787
1325.7518464325508,1325.7518464325508,1.0002412994323546,0.0004274100425723835
1325.758790957133,1325.758790957133,1.0004476263974964,0.00042747601061962436
1325.7657354817147,1325.7657354817147,1.0001701690984757,0.00042750125694886534
1325.7726800062965,1325.7726800062965,0.9999784887053714,0.00042751462927961836
1325.7796245306452,1325.7796245306452,1.0001584201058182,0.00042759877216128555
1325.786569055227,1325.786569055227,0.9993640313584511,0.0004274710279015213
1325.7935135798089,1325.7935135798089,0.9999565297604033,0.0004276024953657414
1325.8004581042508,1325.8004581042508,1.000025087253091,0.000427664704212654
1325.80740262874,1325.80740262874,0.9999366600277538,0.0004276787139245509
1325.8143471532746,1325.8143471532746,0.9995751399048534,0.00042768075252053666
1325.8212916776704,1325.8212916776704,1.0008654164995385,0.0004279126994936082
1325.8282362022055,1325.8282362022055,1.0004024894054802,0.00042785443307264553
1325.835180726601,1325.835180726601,0.9995335702862675,0.0004276847670252748
1325.842125251043,1325.842125251043,1.0006038750452981,0.0004278935271251424
1325.849069775485,1325.849069775485,0.9998681035570154,0.00042770692029563226
1325.8560142998801,1325.8560142998801,0.9992515886874024,0.00042766207890898046
1325.8629588242293,1325.8629588242293,0.9995503196034983,0.00042764715351395504
1325.869903348625,1325.869903348625,0.9997915873499442,0.0004275691941883064
1325.8768478730206,1325.8768478730206,0.9997540677303011,0.0004274449289607047
1325.8837923973692,1325.8837923973692,1.0004719308081296,0.000427550795676135
1325.8907369217184,1325.8907369217184,1.0009202205353882,0.0004275282093708893
1325.897681446067,1325.897681446067,1.0000601072423316,0.0004273715371470261
1325.9046259704162,1325.9046259704162,1.0005308075490504,0.0004272981614562312
1325.9115704947185,1325.9115704947185,0.9995083385519236,0.0004271595488618468
1325.918515018974,1325.918515018974,0.9997706464768132,0.0004271389734002839
1325.9254595432765,1325.9254595432765,0.9995998808488424,0.0004270429707947526
1325.932404067579,1325.932404067579,1.0000863194881642,0.000427090886000399
1325.9393485918347,1325.9393485918347,0.9996587467371663,0.0004270503587109172
1325.9462931160904,1325.9462931160904,1.0002893722457569,0.00042707534191006375
1325.9532376403465,1325.9532376403465,1.0000947176127672,0.00042699997199635765
1325.9601821645556,1325.9601821645556,1.000289245140291,0.0004269793209886054
1325.9682378126513,1325.9682378126513,0.9997386073266761,0.0004269754685321321
1325.9754601177974,1325.9754601177974,0.9999905021825907,0.00042686394416195406
1325.9824046420065,1325.9824046420065,0.9998785577274635,0.0004267793458150533
1325.9893491661692,1325.9893491661692,0.9984820720703563,0.0004265355009721251
1325.9962936903316,1325.9962936903316,1.0002153152650706,0.0004268057699261754
1326.0032382144948,1326.0032382144948,0.9999176967632873,0.00042689337309076555
1326.0101827386104,1326.0101827386104,1.0003364361887204,0.0004271214535321342
1326.0171272627267,1326.0171272627267,1.0006198252374152,0.000427298384531417
1326.024071786843,1326.024071786843,1.0016406715581305,0.000427640951129957
1326.031016310959,1326.031016310959,1.003274479804715,0.00042820736819214
1326.0379608350286,1326.0379608350286,1.002137409421802,0.00042814175124483266
1326.0449053591442,1326.0449053591442,1.0006467742247016,0.00042803060960678837
1326.0518498831211,1326.0518498831211,0.9989600489893491,0.00042798268895058195
1326.0587944072367,1326.0587944072367,0.998109843778785,0.0004280958673031911
1326.06573893126,1326.06573893126,0.9979904587683357,0.0004282765533683999
1326.0726834552363,1326.0726834552363,0.9975163495236312,0.00042829673834816624
1326.079627979259,1326.079627979259,0.9960799057294887,0.0004274496086182052
1326.0865725032359,1326.0865725032359,0.9969808366169346,0.00042723026654343973
1326.0935170272587,1326.0935170272587,0.9996560306934624,0.00042753247666096233
1326.1004615511422,1326.1004615511422,1.0013454026578548,0.00042774851123798753
1326.1074060751187,1326.1074060751187,1.001714042641769,0.00042766845388400154
1326.114350599048,1326.114350599048,1.0002909566268117,0.00042739618456350903
1326.1212951229782,1326.1212951229782,1.0018151627267389,0.00042755052191666913
1326.128239646861,1326.128239646861,0.9999233874323181,0.0004271912304313072
1326.1351841707449,1326.1351841707449,0.999954254118455,0.0004270512257543574
1326.1421286946277,1326.1421286946277,0.9999338374001641,0.00042700572991300606
1326.1490732184648,1326.1490732184648,1.00035708090071,0.0004269619789846033
1326.1560177423478,1326.1560177423478,0.9990014985201412,0.0004267541857276959
1326.162962266138,1326.162962266138,0.9999596274360604,0.0004269516058184721
1326.1699067899285,1326.1699067899285,1.0003133623053881,0.0004270086480002773
1326.1768513137645,1326.1768513137645,1.0002393158279266,0.00042697745827660545
1326.183795837555,1326.183795837555,1.0004744050385084,0.00042701082288864765
1326.1907403612986,1326.1907403612986,0.9997152680023424,0.0004268610826608856
1326.197684885042,1326.197684885042,0.9986560917202439,0.000426636145991762
1326.2046294088323,1326.2046294088323,1.0004315912030488,0.0004269075392084585
1326.2115739325295,1326.2115739325295,0.9994490776598031,0.00042670795246205917
1326.2185184562263,1326.2185184562263,1.0000700814377779,0.00042675523905384824
1326.2254629799233,1326.2254629799233,1.0006216061878432,0.0004268251113870046
1326.2324075036202,1326.2324075036202,1.0007508772671467,0.0004268057121644622
1326.2393520272706,1326.2393520272706,0.9998325685303421,0.0004266301204946617
1326.2462965509208,1326.2462965509208,1.0000630567442477,0.00042666774069379025
1326.2532410745255,1326.2532410745255,0.9999868580484886,0.00042672081250820547
1326.2601855981754,1326.2601855981754,1.0001092596720205,0.0004266880674422207
1326.2671301217792,1326.2671301217792,0.9995340915626894,0.00042658093468275033
1326.2740746452903,1326.2740746452903,0.9999973365093362,0.0004267227705179423
1326.2810191688939,1326.2810191688939,0.9998302103063385,0.00042664642045124785
1326.2879636924513,1326.2879636924513,1.0002648594722305,0.0004267446854657554
1326.2949082159616,1326.2949082159616,0.9996389490370754,0.0004266349603059932
1326.3018527394263,1326.3018527394263,1.0003731166917884,0.00042677419034132917
1326.3087972630299,1326.3087972630299,0.999969553360863,0.00042671938880778473
1326.315741786448,1326.315741786448,0.9995160223834944,0.0004266431632798662
1326.3226863098655,1326.3226863098655,1.0001415766943427,0.0004267874851357365
1326.3296308332829,1326.3296308332829,1.0003662783006866,0.00042679589474898594
1326.3365753567005,1326.3365753567005,1.0007865654847572,0.0004268384275113521
1326.343519880118,1326.343519880118,0.9996102176880608,0.00042673067843702054
1326.3515755272826,1326.3515755272826,0.9996433637408575,0.0004267118600217881
1326.3601867363202,1326.3601867363202,0.9996931149939738,0.000426735310976751
1326.367131259738,1326.367131259738,0.9992676597847275,0.0004266879505797721
1326.3740757829692,1326.3740757829692,0.9995137596260545,0.0004267609946354157
1326.3810203063404,1326.3810203063404,1.0008155085057813,0.0004269783061842381
1326.387964829618,1326.387964829618,0.9995668794770879,0.00042676672135428016
1326.3949093529427,1326.3949093529427,1.0000642018418393,0.00042688414903297686
1326.4018538761277,1326.4018538761277,1.0004818269667626,0.0004269893249528575
1326.4087983994054,1326.4087983994054,1.000578242161237,0.0004270521552174306
1326.4157429226373,1326.4157429226373,1.000032259881629,0.0004270210749999509
1326.4226874458682,1326.4226874458682,0.9999172051294734,0.0004269807802885849
1326.429631969053,1326.429631969053,0.9996090549184565,0.0004268645284931951
1326.4365764921909,1326.4365764921909,0.999434744766013,0.0004269052340376764
1326.443521015376,1326.443521015376,0.9999513703588427,0.0004269432269249678
1326.450465538514,1326.450465538514,0.9998606282208966,0.0004269674354992342
1326.4574100616524,1326.4574100616524,1.0001073039420256,0.00042702968494296844
1326.4643545846975,1326.4643545846975,0.9994293179445173,0.00042690020688998466
1326.4712991078354,1326.4712991078354,0.9997113029683256,0.000426967418808247
1326.478243630834,1326.478243630834,1.0017115409793047,0.0004273202606319115
1326.4851881538793,1326.4851881538793,1.0004852591219044,0.0004271487519301504
1326.4921326769243,1326.4921326769243,0.9998098008901671,0.00042702198687446147
1326.499077199923,1326.499077199923,0.9995252615616138,0.00042703178140801633
1326.5060217228745,1326.5060217228745,0.9996117456260329,0.0004269968642225358
1326.5129662458735,1326.5129662458735,1.0000299798887045,0.0004272021152084477
1326.5199107688254,1326.5199107688254,0.999993526576168,0.00042717066092924367
1326.5268552917773,1326.5268552917773,1.0000971401882746,0.0004272613687103076
1326.5337998146363,1326.5337998146363,0.9994590376825766,0.00042725746468464526
1326.5407443375411,1326.5407443375411,0.9999727158381881,0.00042734694783941475
1326.5476888604005,1326.5476888604005,1.0002610594185601,0.0004274327074528907
1326.5546333832124,1326.5546333832124,1.0007233030510823,0.00042759477812932595
1326.5615779060713,1326.5615779060713,1.0001203483017869,0.00042755293113430946
1326.5685224288834,1326.5685224288834,0.9994235381953078,0.0004273876582957729
1326.5754669516493,1326.5754669516493,0.9993868871766642,0.00042732251628708405
1326.5824114744617,1326.5824114744617,1.0007479249995133,0.0004275870154996925
1326.5893559971805,1326.5893559971805,1.0005216926008091,0.0004276111546072021
1326.5963005199,1326.5963005199,0.9999496874253448,0.00042751917125715994
1326.603245042619,1326.603245042619,0.9997488113993018,0.00042748473927536846
1326.6101895652914,1326.6101895652914,1.000382464125422,0.0004275897118766276
1326.6171340879641,1326.6171340879641,0.9997262244697399,0.0004276073576255016
1326.6240786105895,1326.6240786105895,0.999880031695243,0.00042758450764842455
1326.631023133216,1326.631023133216,0.9999801074288126,0.00042753532238659587
1326.6379676558417,1326.6379676558417,1.0004761865069367,0.0004275943334407386
1326.6449121784215,1326.6449121784215,1.0000660580754246,0.0004276030375641955
1326.6518567009546,1326.6518567009546,1.0002361926052314,0.00042761421412319144
1326.6588012235338,1326.6588012235338,0.9998660391124521,0.000427539135971073
1326.66574574602,1326.66574574602,0.9995624988500982,0.0004274544081745499
1326.6726902685061,1326.6726902685061,1.0004269155514474,0.00042758191551302396
1326.6796347909926,1326.6796347909926,1.0002851218985505,0.00042749814381494314
1326.6865793134323,1326.6865793134323,0.9991762729255823,0.00042728917482067516
1326.6949127403693,1326.6949127403693,0.9996063556234261,0.0004273817797775692
1326.701857262809,1326.701857262809,1.0003727923378272,0.00042740702950677927
1326.7088017851088,1326.7088017851088,1.0002334589853548,0.00042733590076237966
1326.716579650219,1326.716579650219,0.9993244744376926,0.0004271947313436388
1326.7240797342997,1326.7240797342997,1.0004759621368584,0.0004272969033412158
1326.7310242565532,1326.7310242565532,1.0003973336587682,0.00042721279766616663
1326.737968778946,1326.737968778946,0.9997883836311084,0.0004271281462969427
1326.744913301293,1326.744913301293,0.9996033590812695,0.00042702178416266354
1326.751857823546,1326.751857823546,1.0006985101281254,0.00042717632362246377
1326.7588023456133,1326.7588023456133,0.9997760922604734,0.0004270219959294306
1326.7657468678203,1326.7657468678203,0.9996996552389398,0.0004270611391622446
1326.7726913900738,1326.7726913900738,1.00040239256891,0.0004271019315314628
1326.7796359122337,1326.7796359122337,1.0002416066531876,0.0004270750394425616
1326.7865804343478,1326.7865804343478,0.9996203586387054,0.00042698516223092987
1326.7935249564619,1326.7935249564619,1.000298332370407,0.00042714427185581647
1326.8004694785752,1326.8004694785752,0.9996551755492717,0.000427063458299606
1326.807414000643,1326.807414000643,0.9999017941585105,0.00042701929821700507
1326.814358522663,1326.814358522663,0.999479318561215,0.0004270074480800459
1326.8213030446836,1326.8213030446836,1.0005469992188694,0.00042722817128729206
1326.8282475666579,1326.8282475666579,1.0006906358437733,0.0004272208801510016
1326.835192088632,1326.835192088632,0.999617942080849,0.0004270750547240421
1326.842136610606,1326.842136610606,0.999791962660279,0.00042710836549374317
1326.8490811325332,1326.8490811325332,0.999761502914182,0.0004270747825678361
1326.856025654461,1326.856025654461,1.0008431428122204,0.0004272772178314124
1326.8629701763418,1326.8629701763418,0.9994631724841531,0.000426994927013809
1326.869914698223,1326.869914698223,0.9997985488128404,0.00042705997177960793
1326.8768592200108,1326.8768592200108,0.9997662788107362,0.00042699767151318
1326.883803741845,1326.883803741845,1.0002928994462241,0.0004270713048782016
1326.890748263633,1326.890748263633,1.0000125869870147,0.0004269884743624263
1326.8976927854205,1326.8976927854205,1.0000912052815423,0.0004269084597539106
1326.9046373071155,1326.9046373071155,0.9994752263180541,0.00042669214843775883
1326.9115818288565,1326.9115818288565,1.0011431174567051,0.00042686651791877067
1326.9185263505979,1326.9185263505979,0.9998229238268287,0.0004266690559734419
1326.925470872246,1326.925470872246,0.9993201395239225,0.00042653271015377186
1326.9324153938476,1326.9324153938476,1.00018787136497,0.00042659286959766276
1326.9393599154955,1326.9393599154955,0.9995554424414935,0.00042648508990546637
1326.9463044370968,1326.9463044370968,1.000243610809425,0.00042643904596885034
1326.9532489586522,1326.9532489586522,1.0004716953249593,0.00042645414171917724
1326.960193480207,1326.960193480207,0.9998347824760294,0.0004262657313287942
1326.9671380017157,1326.9671380017157,0.9998010955618286,0.0004262019046176465
1326.9740825232238,1326.9740825232238,1.000195894104487,0.00042626385166331774
1326.9810270447322,1326.9810270447322,0.9998329261792136,0.0004261251153164656
1326.9879715661477,1326.9879715661477,1.0000186823218884,0.0004260499006406974
1326.9949160876095,1326.9949160876095,1.0001586341171684,0.0004261123488917617
1327.0018606089782,1327.0018606089782,0.9999315907972667,0.0004259779297882774
1327.008805130347,1327.008805130347,0.999565043802604,0.00042597453056839285
1327.0157496517154,1327.0157496517154,0.99994171134086,0.0004260212788766749
1327.0226941730375,1327.0226941730375,1.0005510484583346,0.00042601237578733536
1327.0296386943598,1327.0296386943598,0.9993056025817213,0.00042585583861394694
1327.0365832156356,1327.0365832156356,1.0005120055342076,0.0004259861707170363
1327.043527736864,1327.043527736864,0.9999000831980182,0.00042596201211251883
1327.0504722580936,1327.0504722580936,1.0003422361264351,0.00042598212872844147
1327.0574167792759,1327.0574167792759,0.9992859137802521,0.00042582415980751243
1327.0654724238793,1327.0654724238793,1.0001117994816675,0.0004259425581775495
1327.0726947258122,1327.0726947258122,0.9992383566120833,0.0004258151384268238
