time,time,flux,flux_err
1410.9052499381398,1410.9052499381398,0.9994042210664857,0.0002683983936830062
1410.9135830884354,1410.9135830884354,0.9998665189855442,0.00026846745806335357
1410.921221809725,1410.921221809725,1.0000174571956117,0.00024510611467415047
1410.928166101966,1410.928166101966,1.0002395151070282,0.00024508704507602956
1410.9351103943486,1410.9351103943486,0.9997380586526023,0.00024502917112071673
1410.9420546868807,1410.9420546868807,0.9999730694456774,0.00024504024021927505
1410.9489989795652,1410.9489989795652,1.0000304815743175,0.00024504200349610673
1410.9562210441152,1410.9562210441152,1.0003657788918079,0.00024508009465247163
1410.9656652826125,1410.9656652826125,1.0000471224546248,0.0002448240729519026
1410.98094272774,1410.98094272774,0.9997501886422414,0.0002448329909551256
1410.9878870212049,1410.9878870212049,1.0003207240415852,0.00024490357993912893
1410.9987201193335,1410.9987201193335,1.000151498688713,0.00024473561782206813
1411.0073310437012,1411.0073310437012,1.0000879203538813,0.0002449067756701307
1411.0142753377122,1411.0142753377122,1.0002598648797059,0.00024489651064717893
1411.0212196318403,1411.0212196318403,1.0000263689615223,0.0002448714582873166
1411.0281639261193,1411.0281639261193,1.000088060991303,0.00024477674988544057
1411.0351082205377,1411.0351082205377,1.0000709583441956,0.0002448804516431859
1411.0420525150853,1411.0420525150853,0.9998039179254956,0.0002448195489786118
1411.0503856687155,1411.0503856687155,1.0000873935373955,0.0002447708785904973
1411.0573299635657,1411.0573299635657,0.9996411773284845,0.0002447821196109312
1411.0642742585312,1411.0642742585312,1.0003694075749725,0.00024485010176692325
1411.0712185536486,1411.0712185536486,0.9999036444657781,0.0002448422713251726
1411.0781628488712,1411.0781628488712,1.0000320609683158,0.0002447690365623595
1411.085107144232,1411.085107144232,1.0001607653042555,0.0002448320104678918
1411.0920514397344,1411.0920514397344,1.0001758129770404,0.0002448577459728091
1411.098995735352,1411.098995735352,1.000182360227017,0.0002448779886015413
1411.105940031098,1411.105940031098,0.9998424090055373,0.00024480311717972917
1411.1128843269723,1411.1128843269723,1.0000180058476456,0.00024480732802127826
1411.1198286229856,1411.1198286229856,0.9998420268096307,0.0002448557038076234
1411.126772919093,1411.126772919093,1.0001099268042293,0.0002446985513363031
1411.1337172153392,1411.1337172153392,0.9999019367123714,0.00024483955698806695
1411.1406615117135,1411.1406615117135,1.0004951629089862,0.00024478213700386157
1411.147605808205,1411.147605808205,1.0004398895519624,0.00024484434182876053
1411.154550104812,1411.154550104812,1.0007210306557297,0.00024482526717506923
1411.161494401548,1411.161494401548,0.9996850421765602,0.0002447081356510456
1411.1684386984348,1411.1684386984348,1.0006609691286514,0.00024476817686916127
1411.1753829953911,1411.1753829953911,1.0000745532364783,0.0002447569998825607
1411.1823272924883,1411.1823272924883,1.0000961679508404,0.0002447631419463873
1411.1892715897004,1411.1892715897004,1.000223625773822,0.0002447840257812791
1411.19621588703,1411.19621588703,0.9999974500804774,0.0002447366910784765
1411.2031601844753,1411.2031601844753,1.0000071203866234,0.00024474769751568477
1411.2101044820374,1411.2101044820374,1.0003094419664633,0.00024476940583146505
1411.2170487797162,1411.2170487797162,0.9998457565788191,0.000244678828798738
1411.2239930775108,1411.2239930775108,1.0002394015202607,0.0002447124750261131
1411.2309373753992,1411.2309373753992,0.9998679447870085,0.00024466330311535665
1411.2378816734154,1411.2378816734154,1.0001670755076535,0.0002448148314558419
1411.2448259715475,1411.2448259715475,1.000090400348553,0.0002448310536674925
1411.2517702697967,1411.2517702697967,1.0000622777276007,0.00024476410619387603
1411.2587145681266,1411.2587145681266,1.0000955992777936,0.0002447667927872302
1411.2656588666089,1411.2656588666089,1.0000454035937598,0.00024483166329207647
1411.2726031651719,1411.2726031651719,1.00048955214953,0.00024475231257590563
1411.2795474638513,1411.2795474638513,1.0003839204027059,0.0002447505001443634
1411.2864917626478,1411.2864917626478,0.9998877175756382,0.0002447211777206932
1411.2934360615247,1411.2934360615247,0.9999227265914061,0.00024478807816526806
1411.3003803605193,1411.3003803605193,1.0002343304641488,0.0002448432188928772
1411.307324659629,1411.307324659629,1.0001296103104993,0.00024489106507636163
1411.3142689588333,1411.3142689588333,1.000223579356129,0.00024487526458781615
1411.3212132581762,1411.3212132581762,1.000067187263939,0.00024490856391012016
1411.328157557589,1411.328157557589,0.9998673022384995,0.0002448268140571619
1411.3351018570959,1411.3351018570959,0.9998178667028889,0.00024474996136287987
1411.3420461567414,1411.3420461567414,1.000542477488589,0.00024490646630633223
1411.3489904564574,1411.3489904564574,0.9998584305761412,0.000244906749654019
1411.355934756278,1411.355934756278,1.0004956831244645,0.00024490685360676977
1411.362879056214,1411.362879056214,1.0005144697873827,0.00024483497611531974
1411.369823356245,1411.369823356245,1.0003652372242224,0.0002448902240943529
1411.3767676563793,1411.3767676563793,1.0000685820022315,0.00024485681353622884
1411.3837119566074,1411.3837119566074,1.0006038862283517,0.0002448571265205727
1411.3906562569405,1411.3906562569405,0.9997337469941447,0.00024476535172181766
1411.3976005573659,1411.3976005573659,1.0002109487781392,0.000244723581365812
1411.4045448578624,1411.4045448578624,1.000267218732728,0.000244850953087736
1411.4114891584854,1411.4114891584854,0.9998542556746959,0.000244736153545138
1411.4184334592028,1411.4184334592028,1.0001991155213223,0.0002447795531571224
1411.4253777600127,1411.4253777600127,0.9999595086443526,0.0002447204100967942
1411.432322060904,1411.432322060904,1.0004895913229672,0.00024480180289600007
1411.4392663619008,1411.4392663619008,1.000372493553407,0.0002447137233964079
1411.4462106629899,1411.4462106629899,1.0001733195302567,0.00024476032810317794
1411.4531549641727,1411.4531549641727,1.0000640317949603,0.00024477769416433615
1411.4600992654487,1411.4600992654487,1.000136401603232,0.0002448274866164807
1411.4670435668172,1411.4670435668172,1.0003787115756313,0.00024480644362062626
1411.4739878682794,1411.4739878682794,0.9997304135140611,0.00024473978142766547
1411.4809321698108,1411.4809321698108,1.0004822256320742,0.0002448465323149349
1411.4878764714595,1411.4878764714595,0.9999100419370007,0.00024484582061562053
1411.494820773189,1411.494820773189,1.0001069367581992,0.00024484660014989653
1411.5017650749883,1411.5017650749883,0.999699506536946,0.0002448498125105245
1411.5087093769048,1411.5087093769048,1.0003006018576452,0.00024480142187722684
1411.5156536788902,1411.5156536788902,1.0003355521918904,0.0002448804124532353
1411.5225979809813,1411.5225979809813,1.0004155015805192,0.0002449434893892578
1411.5295422831528,1411.5295422831528,0.9998008218945789,0.00024491255499171005
1411.5364865853953,1411.5364865853953,1.000191715196281,0.0002448854527968858
1411.5434308877304,1411.5434308877304,1.0000198116346868,0.00024485917956503466
1411.5503751901351,1411.5503751901351,1.000329289549239,0.00024492900117434845
1411.557319492657,1411.557319492657,0.9996066858714732,0.00024485727648124335
1411.5642637952476,1411.5642637952476,1.0003409150785583,0.0002449815503002671
1411.5712080979324,1411.5712080979324,0.9999420416129479,0.00024489052428379774
1411.5781524006863,1411.5781524006863,1.0000256619007,0.0002449442181375155
1411.5850967035217,1411.5850967035217,0.9999955600146704,0.000244973686515236
1411.5920410064512,1411.5920410064512,1.0000630677464144,0.0002450197972326661
1411.5989853094609,1411.5989853094609,1.0001298503554004,0.0002449914144155089
1411.60592961253,1411.60592961253,1.0003042533607707,0.0002450058592976183
1411.6128739156916,1411.6128739156916,1.000285313210569,0.0002449967587664247
1411.619818218946,1411.619818218946,1.00017146536765,0.00024500418753961806
1411.6267625222713,1411.6267625222713,0.999767541055102,0.00024497166384660027
1411.6337068256767,1411.6337068256767,0.9996594625914202,0.0002449894001666887
1411.6406511291648,1411.6406511291648,1.000234894273389,0.00024501692794423656
1411.6475954327102,1411.6475954327102,0.9999890862141397,0.00024499010510646406
1411.654539736361,1411.654539736361,0.9997955806620699,0.00024499151444091203
1411.6614840400698,1411.6614840400698,1.000102585234852,0.0002450438838839285
1411.66842834386,1411.66842834386,1.0003969753939566,0.00024504764560295074
1411.6753726477439,1411.6753726477439,1.0005189079204224,0.0002450586529997629
1411.6823169516852,1411.6823169516852,1.000516291900111,0.0002450443366313546
1411.6892612557085,1411.6892612557085,0.999919488431317,0.00024499878976509557
1411.6962055598128,1411.6962055598128,0.9999688842836327,0.0002450279869621902
1411.703149863999,1411.703149863999,1.0003765309102333,0.0002450265395636158
1411.7100941682318,1411.7100941682318,0.9997166807414274,0.0002450110575368728
1411.7170384725455,1411.7170384725455,0.9999246143097954,0.0002450321373954538
1411.723982776942,1411.723982776942,1.000209055029584,0.00024503224472839885
1411.7309270814185,1411.7309270814185,0.9999828398288043,0.00024508635194738464
1411.7378713859425,1411.7378713859425,0.9998449308114348,0.00024500986039725564
1411.744815690548,1411.744815690548,1.0003227541632351,0.0002451106171090065
1411.751759995234,1411.751759995234,0.999870334248994,0.0002450861346938318
1411.758704300003,1411.758704300003,0.999970445340321,0.00024509538380545635
1411.7656486048168,1411.7656486048168,1.000378287515568,0.000245151479653862
1411.7725929097137,1411.7725929097137,1.0001629161483816,0.0002450949369944506
1411.7795372146797,1411.7795372146797,0.9999787730029702,0.000245084219970937
1411.7864815197036,1411.7864815197036,0.9998030815203748,0.0002451345852743343
1411.7934258248217,1411.7934258248217,0.9999773926987334,0.0002451358076469171
1411.8003701299965,1411.8003701299965,1.0003392727552665,0.0002452004134165466
1411.807314435231,1411.807314435231,0.9999605461102032,0.0002451429760859576
1411.814258740546,1411.814258740546,1.0000654002443572,0.00024513585058104646
1411.8212030459197,1411.8212030459197,1.0002356513185524,0.00024517209629919186
1411.8281473513748,1411.8281473513748,0.9999000235178709,0.0002451584466429264
1411.835091656888,1411.835091656888,0.9998057658261328,0.00024511699165595806
1411.84203596246,1411.84203596246,0.9998275755689081,0.00024512165442380627
1411.8489802681124,1411.8489802681124,0.999786616047458,0.0002451471499023051
1411.8559245738122,1411.8559245738122,1.000325582564385,0.0002452252972753526
1411.8628688796048,1411.8628688796048,1.0002899018628666,0.000245211121712526
1411.8698131854321,1411.8698131854321,1.0000593814096113,0.00024515785514605127
1411.876757491353,1411.876757491353,0.9997197347755968,0.00024510957228440755
1411.8837017973199,1411.8837017973199,0.9997275755463363,0.000245126582857827
1411.8906461033578,1411.8906461033578,0.9999885234431387,0.000245164739379093
1411.8975904094525,1411.8975904094525,1.0002755418854874,0.0002451973629179043
1411.9045347156182,1411.9045347156182,0.999808411364938,0.00024514494558373407
1411.9114790218298,1411.9114790218298,1.000397874462509,0.0002451709845185957
1411.918423328146,1411.918423328146,1.0000281373975317,0.00024517082498880444
1411.9253676344865,1411.9253676344865,0.9998784370893109,0.00024519037901978415
1411.932311940895,1411.932311940895,0.9999333632715116,0.00024513878641446946
1411.9392562473988,1411.9392562473988,1.000271923076366,0.00024516821939911474
1411.9462005539358,1411.9462005539358,0.9998890426717603,0.0002451493536938471
1411.9531448605085,1411.9531448605085,0.9995334478002151,0.00024516847806964424
1411.9600891671748,1411.9600891671748,0.9998833606412821,0.0002451581611015432
1411.967033473898,1411.967033473898,1.000223810891286,0.0002452044161960352
1411.9739777806694,1411.9739777806694,1.0002139536122896,0.00024520852142536937
1411.9809220875093,1411.9809220875093,1.0001832893874931,0.0002452070974093773
1411.98786639442,1411.98786639442,1.0000227535874397,0.0002451963222483216
1411.9948107013763,1411.9948107013763,0.9999514171960563,0.00024514445998494774
1412.0017550084033,1412.0017550084033,0.9995579649568487,0.000245154524077813
1412.0086993154532,1412.0086993154532,0.9999087499113216,0.0002451611197396516
1412.0156436226075,1412.0156436226075,1.0001891470626714,0.0002452400006685079
1412.0225879297977,1412.0225879297977,1.0002283600036719,0.0002451974606466552
1412.0295322370566,1412.0295322370566,0.9998356809848528,0.0002451199146690832
1412.0364765443633,1412.0364765443633,0.9998780367238614,0.0002451110528014208
1412.0434208517272,1412.0434208517272,1.0000753152722226,0.00024510580945402027
1412.0503651591612,1412.0503651591612,1.0001819035682649,0.0002452100321591429
1412.0573094666306,1412.0573094666306,1.000095326403434,0.000245167825133337
1412.0642537741574,1412.0642537741574,1.0002052368644632,0.0002452145185540831
1412.0711980817553,1412.0711980817553,0.9998920246418515,0.0002452535355812602
1412.0781423893866,1412.0781423893866,0.9998087936269136,0.0002451868404743054
1412.0850866970886,1412.0850866970886,1.0000881629010554,0.0002451666573858935
1412.0920310048605,1412.0920310048605,1.0001304209536122,0.000245235376366161
1412.0989753126667,1412.0989753126667,0.9999927650914255,0.0002452261698408838
1412.1059196205435,1412.1059196205435,1.00037595529434,0.0002453037057206358
1412.1128639284543,1412.1128639284543,0.9994808379307937,0.00024520273502281326
1412.119808236413,1412.119808236413,1.0000309626828936,0.0002452416718412458
1412.126752544464,1412.126752544464,0.9999307045181741,0.0002452804116782563
1412.1336968525386,1412.1336968525386,1.0000411337954282,0.0002452756706310483
1412.1406411606827,1412.1406411606827,1.000252775943116,0.0002452152718270899
1412.1475854688733,1412.1475854688733,1.000427748097327,0.00024526787005064836
1412.1545297771345,1412.1545297771345,0.9997435600282941,0.0002452779674988897
1412.1614740854177,1412.1614740854177,1.0000640846612814,0.0002453222847465699
1412.1684183937489,1412.1684183937489,0.9996407005017437,0.0002452319256197485
1412.1753627021485,1412.1753627021485,0.9999456352200339,0.000245243274873987
1412.182307010596,1412.182307010596,0.9999806524224348,0.000245309100270969
1412.189251319101,1412.189251319101,1.000283778834983,0.00024529223887248726
1412.1961956276525,1412.1961956276525,0.999801439317916,0.00024528185196511106
1412.2031399362513,1412.2031399362513,0.9999637845486676,0.00024529266356993574
1412.2100842449072,1412.2100842449072,1.0002324805284684,0.00024533245706856183
1412.2170285536226,1412.2170285536226,1.000032397664407,0.000245244943386348
1412.2239728623717,1412.2239728623717,1.0002058529768507,0.00024527352930259465
1412.2309171711681,1412.2309171711681,0.9999113141462799,0.0002452225476616857
1412.237861480034,1412.237861480034,0.9994885854000906,0.00024516609286405076
1412.2448057889349,1412.2448057889349,0.9997091620818865,0.00024517910223296113
1412.2528611873126,1412.2528611873126,0.9998771992535044,0.000245079195041595
1412.2620276752255,1412.2620276752255,1.0005288462552988,0.00024495811452434864
1412.2720274803187,1412.2720274803187,0.9998445355780257,0.00024501228261651403
1412.2828606026153,1412.2828606026153,1.000150054999951,0.00024501869684784836
1412.2906382289289,1412.2906382289289,1.0003166732446611,0.000245044035727963
1412.297582538203,1412.297582538203,0.9999056548022727,0.0002451491033296986
1412.3045268475228,1412.3045268475228,0.9999420880341645,0.00024514653866259805
1412.3114711568896,1412.3114711568896,1.00014921692889,0.0002451452382836042
1412.3184154663143,1412.3184154663143,1.0000921727232825,0.00024517855382274925
1412.3253597757623,1412.3253597757623,0.9999094511437594,0.00024507716300048964
1412.332304085292,1412.332304085292,0.9997727500875353,0.00024520412698533225
1412.3392483948444,1412.3392483948444,1.0004442117725936,0.000245248947702638
1412.3461927044445,1412.3461927044445,0.9998616414286875,0.0002449946893433671
1412.35313701409,1412.35313701409,1.0000444340578059,0.00024517071393737245
1412.3600813237713,1412.3600813237713,1.0001846790057825,0.0002451562701494557
1412.3670256335104,1412.3670256335104,1.0000999923818896,0.00024521392875397237
1412.3739699433077,1412.3739699433077,0.9997271298515387,0.00024527193015695827
1412.3809142531404,1412.3809142531404,1.0001298206079008,0.0002452617778016281
1412.3878585630184,1412.3878585630184,0.9997474990016105,0.0002452087929139412
1412.3948028729444,1412.3948028729444,0.9998911615946666,0.00024529239586515623
1412.4017471828927,1412.4017471828927,0.9999995703012378,0.0002452165224888884
1412.4086914929235,1412.4086914929235,1.000201738578483,0.00024512917953051656
1412.415635802965,1412.415635802965,1.0001186366861645,0.0002451786453000855
1412.422580113065,1412.422580113065,0.9999941474159476,0.0002452786739713463
1412.4295244232,1412.4295244232,1.000192919326595,0.0002453053832987171
1412.4364687333932,1412.4364687333932,0.9999151327922207,0.00024523996859834374
1412.4434130436216,1412.4434130436216,0.9999684022820379,0.00024517869745379
1412.4503573538955,1412.4503573538955,0.9997511814776612,0.00024520963704648975
1412.4573016641941,1412.4573016641941,1.0004272367222895,0.00024512589143024457
1412.464245974573,1412.464245974573,0.9998651442971802,0.0002451675177671497
1412.4711902849645,1412.4711902849645,0.999953098081544,0.0002450134763178789
1412.4781345954252,1412.4781345954252,0.9998778443494194,0.0002450920674453896
1412.4850789058976,1412.4850789058976,0.9998095770992894,0.0002452505434176932
1412.492023216429,1412.492023216429,1.0002148673816367,0.00024522357049158716
1412.4989675269824,1412.4989675269824,0.9999451872853641,0.00024514369068798675
1412.5059118375955,1412.5059118375955,1.0002098293056867,0.00024523613791896696
1412.5128561482654,1412.5128561482654,0.999966010619534,0.000245218805035054
1412.5198004589597,1412.5198004589597,0.9999096991605378,0.0002452680738151311
1412.526744769711,1412.526744769711,0.9996274694685037,0.0002452475585699691
1412.5336890804747,1412.5336890804747,1.0002164612167919,0.00024532927001278575
1412.5406333912965,1412.5406333912965,1.0001286316977307,0.00024531573466959704
1412.5475777021416,1412.5475777021416,0.999855101040224,0.0002452793275671194
1412.5545220130452,1412.5545220130452,1.0005373886113467,0.0002453947378439216
1412.5614663239946,1412.5614663239946,0.9995897679065262,0.00024526998621896196
1412.5684106349918,1412.5684106349918,0.9995721348087379,0.0002453016575025139
1412.5753549459994,1412.5753549459994,1.0001820658857246,0.0002453861336513284
1412.582299257066,1412.582299257066,0.9999800495312495,0.00024538234283628165
1412.5892435681667,1412.5892435681667,0.9996393708790258,0.0002453406070975807
1412.5961878793032,1412.5961878793032,1.0000605716358208,0.00024531352890186993
1412.6031321904743,1412.6031321904743,0.9999127212433295,0.0002453505707500689
1412.6100765017031,1412.6100765017031,1.0002287519807824,0.0002453879539516
1412.6170208129563,1412.6170208129563,1.000016874529275,0.0002453101076092264
1412.6239651242665,1412.6239651242665,0.9999359061949292,0.00024521445065496343
1412.630909435601,1412.630909435601,1.0003706193384747,0.00024539430228508305
1412.6378537469816,1412.6378537469816,0.9998559138277852,0.00024534616392457304
1412.6447980583973,1412.6447980583973,1.0001657972289764,0.00024537045903671626
1412.6517423698242,1412.6517423698242,0.9996786753565392,0.00024531881661676906
1412.6586866813327,1412.6586866813327,1.00000567562078,0.00024535774851044306
1412.6656309928649,1412.6656309928649,1.0000310366854854,0.0002453448985107108
1412.6725753044316,1412.6725753044316,1.0001806973113665,0.00024529743610598916
1412.6795196160454,1412.6795196160454,0.999992220803561,0.0002452056617043837
1412.6864639276814,1412.6864639276814,0.9999096990152474,0.00024535292085294696
1412.693408239354,1412.693408239354,0.9996360698025054,0.0002453286887443039
