time,time,flux,flux_err
1354.108420288076,1354.108420288076,12557.168,14.498882
1354.10980918198,1354.10980918198,12578.694,14.514305
1354.1125869700186,1354.1125869700186,12534.152,14.480168
1354.1139758639224,1354.1139758639224,12575.212,14.51833
1354.1153647579422,1354.1153647579422,12557.222,14.5059595
1354.1167536519617,1354.1167536519617,12589.476,14.521904
1354.1181425459813,1354.1181425459813,12556.37,14.512204
1354.1195314400015,1354.1195314400015,12548.96,14.509427
1354.120920334022,1354.120920334022,12589.589,14.518369
1354.1223092280416,1354.1223092280416,12566.23,14.507995
1354.1236981221778,1354.1236981221778,12549.4,14.507424
1354.125087016197,1354.125087016197,12563.357,14.50623
1354.1264759102169,1354.1264759102169,12556.796,14.509486
1354.1278648043535,1354.1278648043535,12534.328,14.497123
1354.1292536984897,1354.1292536984897,12556.376,14.511771
1354.130642592509,1354.130642592509,12561.198,14.5117235
1354.132031486646,1354.132031486646,12557.164,14.511748
1354.133420380782,1354.133420380782,12552.726,14.514835
1354.1348092749186,1354.1348092749186,12553.152,14.509491
1354.1361981690548,1354.1361981690548,12524.628,14.495997
1354.13758706319,1354.13758706319,12536.215,14.492032
1354.1389759573267,1354.1389759573267,12529.176,14.506602
1354.1403648514633,1354.1403648514633,12572.007,14.515081
1354.1417537455995,1354.1417537455995,12546.605,14.500767
1354.1431426397355,1354.1431426397355,12550.976,14.510242
1354.144531533988,1354.144531533988,12548.805,14.506065
1354.1459204281246,1354.1459204281246,12552.336,14.509184
1354.1473093223779,1354.1473093223779,12541.625,14.501795
1354.1486982165134,1354.1486982165134,12544.836,14.507753
1354.1500871107655,1354.1500871107655,12556.11,14.507554
1354.1514760050186,1354.1514760050186,12557.864,14.509074
1354.152864899272,1354.152864899272,12553.82,14.507386
1354.1542537935243,1354.1542537935243,12563.186,14.514494
1354.155642687776,1354.155642687776,12531.246,14.506102
1354.157031582029,1354.157031582029,12545.514,14.505186
1354.1584204762823,1354.1584204762823,12559.963,14.514537
1354.1598093705347,1354.1598093705347,12555.002,14.504753
1354.1611982647873,1354.1611982647873,12552.498,14.507404
1354.162587159156,1354.162587159156,12539.457,14.495086
1354.1639760534092,1354.1639760534092,12572.077,14.521111
1354.165364947779,1354.165364947779,12521.1045,14.493326
1354.1667538420306,1354.1667538420306,12553.394,14.511222
1354.1681427363994,1354.1681427363994,12530.525,14.5053835
1354.1695316306527,1354.1695316306527,12559.353,14.507565
1354.1709205250213,1354.1709205250213,12558.925,14.516381
1354.1723094193908,1354.1723094193908,12527.838,14.496713
1354.1736983137598,1354.1736983137598,12545.001,14.504379
1354.1750872081288,1354.1750872081288,12548.823,14.504238
1354.1764761024983,1354.1764761024983,12549.14,14.506093
1354.177864996867,1354.177864996867,12558.474,14.513883
1354.1792538912366,1354.1792538912366,12552.236,14.513272
1354.1806427857218,1354.1806427857218,12531.038,14.497552
1354.18203168009,1354.18203168009,12535.713,14.503041
1354.183420574576,1354.183420574576,12564.537,14.516031
1354.1848094689458,1354.1848094689458,12516.999,14.493595
1354.1861983634308,1354.1861983634308,12545.3955,14.505336
1354.1875872577998,1354.1875872577998,12544.167,14.505167
1354.188976152285,1354.188976152285,12527.18,14.493582
1354.1903650467711,1354.1903650467711,12541.975,14.500872
1354.191753941257,1354.191753941257,12554.342,14.511556
1354.1931428356252,1354.1931428356252,12551.7705,14.506002
1354.1945317301104,1354.1945317301104,12566.424,14.51322
1354.1959206245965,1354.1959206245965,12537.61,14.502043
1354.1973095191988,1354.1973095191988,12567.565,14.511215
1354.1986984136838,1354.1986984136838,12537.036,14.505816
1354.2000873081686,1354.2000873081686,12581.186,14.522045
1354.2014762026547,1354.2014762026547,12548.965,14.509748
1354.202865097257,1354.202865097257,12552.643,14.505191
1354.204253991742,1354.204253991742,12561.439,14.50863
1354.2056428863439,1354.2056428863439,12548.257,14.501646
1354.2070317808293,1354.2070317808293,12566.559,14.510371
1354.2084206754316,1354.2084206754316,12539.269,14.505423
1354.209809570034,1354.209809570034,12544.762,14.50148
1354.211198464635,1354.211198464635,12548.897,14.504003
1354.2125873591203,1354.2125873591203,12543.113,14.502878
1354.2139762537226,1354.2139762537226,12537.475,14.502341
1354.2153651483243,1354.2153651483243,12563.193,14.508926
1354.2167540429268,1354.2167540429268,12538.091,14.508649
1354.2181429376446,1354.2181429376446,12523.515,14.495784
1354.2195318322465,1354.2195318322465,12541.004,14.502305
1354.2209207268488,1354.2209207268488,12548.911,14.511687
1354.2223096214507,1354.2223096214507,12533.532,14.498171
1354.2236985161685,1354.2236985161685,12553.349,14.511631
1354.2250874107704,1354.2250874107704,12535.012,14.501375
1354.2264763054884,1354.2264763054884,12552.2705,14.506157
1354.227865200091,1354.227865200091,12551.563,14.506874
1354.2292540948097,1354.2292540948097,12541.011,14.504674
1354.2306429895277,1354.2306429895277,12553.082,14.510424
1354.2320318842458,1354.2320318842458,12577.908,14.520041
1354.233420778964,1354.233420778964,12553.303,14.507702
1354.2348096736828,1354.2348096736828,12534.461,14.506532
1354.2361985684015,1354.2361985684015,12531.808,14.500017
1354.2375874631189,1354.2375874631189,12540.253,14.504791
1354.2389763578371,1354.2389763578371,12557.9795,14.515172
1354.2403652525559,1354.2403652525559,12554.3545,14.504635
1354.2417541472746,1354.2417541472746,12547.71,14.501645
1354.2431430421093,1354.2431430421093,12574.751,14.517872
1354.2445319368267,1354.2445319368267,12556.66,14.509843
1354.2459208315454,1354.2459208315454,12558.498,14.511024
1354.2473097263805,1354.2473097263805,12533.236,14.500508
1354.2486986212152,1354.2486986212152,12544.399,14.501211
1354.250087515933,1354.250087515933,12540.679,14.503401
1354.2514764107677,1354.2514764107677,12537.706,14.49849
1354.2528653056029,1354.2528653056029,12554.017,14.509272
1354.254254200438,1354.254254200438,12552.039,14.512785
1354.2556430951554,1354.2556430951554,12567.476,14.50395
1354.25703198999,1354.25703198999,12560.637,14.5121355
1354.2584208848252,1354.2584208848252,12544.759,14.506852
1354.2598097797763,1354.2598097797763,12566.509,14.507196
1354.2611986746115,1354.2611986746115,12576.525,14.5175705
1354.262587569446,1354.262587569446,12552.824,14.505085
1354.2639764642804,1354.2639764642804,12545.46,14.5071745
1354.265365359232,1354.265365359232,12554.868,14.505341
1354.2667542540667,1354.2667542540667,12567.2,14.510258
1354.2681431489013,1354.2681431489013,12539.021,14.502441
1354.269532043852,1354.269532043852,12552.974,14.503515
1354.270920938803,1354.270920938803,12543.03,14.4999275
1354.2723098336382,1354.2723098336382,12571.144,14.513805
1354.2736987285898,1354.2736987285898,12543.86,14.505638
1354.275087623541,1354.275087623541,12555.877,14.505915
1354.2764765184916,1354.2764765184916,12559.054,14.505832
1354.2778654134427,1354.2778654134427,12570.139,14.514118
1354.2792543083942,1354.2792543083942,12554.013,14.50568
1354.2806432033453,1354.2806432033453,12536.974,14.494157
1354.2820320982955,1354.2820320982955,12542.867,14.497304
1354.283420993247,1354.283420993247,12560.52,14.508323
1354.2848098881987,1354.2848098881987,12556.413,14.505197
1354.2861987831502,1354.2861987831502,12561.031,14.510439
1354.2875876782177,1354.2875876782177,12561.745,14.510186
1354.288976573168,1354.288976573168,12554.958,14.505489
1354.290365468236,1354.290365468236,12547.281,14.504286
1354.2917543631875,1354.2917543631875,12526.135,14.496474
1354.2931432582543,1354.2931432582543,12555.723,14.507553
1354.2945321532052,1354.2945321532052,12572.561,14.516113
1354.2959210482732,1354.2959210482732,12543.802,14.503716
1354.2973099433411,1354.2973099433411,12539.924,14.496223
1354.2986988384093,1354.2986988384093,12545.183,14.501312
1354.3000877333598,1354.3000877333598,12563.517,14.504527
1354.3014766284268,1354.3014766284268,12550.758,14.49729
1354.3028655234948,1354.3028655234948,12552.135,14.505865
1354.3042544185623,1354.3042544185623,12540.311,14.499341
1354.3056433137467,1354.3056433137467,12545.286,14.496449
1354.3070322088142,1354.3070322088142,12540.775,14.497229
1354.3084211038815,1354.3084211038815,12537.72,14.500909
1354.3098099989497,1354.3098099989497,12530.32,14.495072
1354.3111988941332,1354.3111988941332,12572.725,14.512759
1354.3125877892007,1354.3125877892007,12546.546,14.50195
1354.3139766843844,1354.3139766843844,12537.384,14.498183
1354.3153655794517,1354.3153655794517,12544.386,14.503856
1354.3167544746361,1354.3167544746361,12541.739,14.499622
1354.318143369704,1354.318143369704,12552.178,14.501797
1354.319532264888,1354.319532264888,12553.52,14.502611
1354.320921160072,1354.320921160072,12557.451,14.505878
1354.3223100552555,1354.3223100552555,12564.736,14.508832
1354.3236989504398,1354.3236989504398,12524.939,14.492861
1354.3250878455074,1354.3250878455074,12527.283,14.49145
1354.3264767406904,1354.3264767406904,12551.106,14.507635
1354.3278656359912,1354.3278656359912,12533.196,14.490577
1354.3292545311758,1354.3292545311758,12540.569,14.499167
1354.3306434263604,1354.3306434263604,12549.085,14.500553
1354.332032321544,1354.332032321544,12541.3955,14.497187
1354.333421216727,1354.333421216727,12542.273,14.502842
1354.334810112028,1354.334810112028,12543.099,14.50009
1354.3361990072126,1354.3361990072126,12572.555,14.509359
1354.337587902512,1354.337587902512,12562.022,14.508335
1354.3389767976955,1354.3389767976955,12562.185,14.50763
1354.3403656929966,1354.3403656929966,12533.343,14.496106
1354.3417545881812,1354.3417545881812,12557.816,14.50818
1354.343143483482,1354.343143483482,12562.022,14.511371
1354.3445323787814,1354.3445323787814,12540.863,14.497587
1354.3459212739651,1354.3459212739651,12535.58,14.501909
1354.3473101692662,1354.3473101692662,12548.156,14.502113
1354.348699064566,1354.348699064566,12523.167,14.49712
1354.3500879598664,1354.3500879598664,12543.193,14.493276
1354.3514768551665,1354.3514768551665,12541.217,14.495631
1354.3528657504676,1354.3528657504676,12567.778,14.510461
1354.3542546457684,1354.3542546457684,12549.241,14.501378
1354.355643541185,1354.355643541185,12556.454,14.499608
1354.357032436485,1354.357032436485,12543.082,14.501991
1354.3584213317854,1354.3584213317854,12557.349,14.506604
1354.3598102270853,1354.3598102270853,12549.591,14.506679
1354.3611991225027,1354.3611991225027,12558.23,14.497539
1354.3625880178038,1354.3625880178038,12543.884,14.497061
1354.36397691322,1354.36397691322,12544.873,14.498069
1354.3653658085204,1354.3653658085204,12554.615,14.504502
1354.366754703937,1354.366754703937,12548.048,14.49946
1354.3681435993544,1354.3681435993544,12537.1045,14.496067
1354.3695324946543,1354.3695324946543,12539.5,14.500276
1354.3709213900702,1354.3709213900702,12540.288,14.496199
1354.3723102854876,1354.3723102854876,12561.989,14.503928
1354.373699180905,1354.373699180905,12554.224,14.504368
1354.3750880763223,1354.3750880763223,12551.256,14.50469
1354.3764769717388,1354.3764769717388,12556.177,14.502806
1354.377865867155,1354.377865867155,12564.894,14.510556
1354.3792547625721,1354.3792547625721,12554.066,14.506957
1354.3806436579894,1354.3806436579894,12556.724,14.5058
1354.3820325534052,1354.3820325534052,12569.79,14.505223
1354.383421448822,1354.383421448822,12549.764,14.505363
1354.3848103443556,1354.3848103443556,12532.7295,14.491845
1354.3861992397728,1354.3861992397728,12562.89,14.502544
1354.3875881353065,1354.3875881353065,12538.5205,14.500143
1354.3889770307223,1354.3889770307223,12511.04,14.4897375
1354.3903659262555,1354.3903659262555,12566.488,14.504767
1354.3917548216727,1354.3917548216727,12549.125,14.5010605
1354.393143717206,1354.393143717206,12542.976,14.492909
1354.3945326126222,1354.3945326126222,12557.065,14.50673
1354.3959215081554,1354.3959215081554,12538.133,14.492286
1354.397310403689,1354.397310403689,12558.233,14.502817
1354.3986992992227,1354.3986992992227,12552.264,14.505164
1354.4000881947559,1354.4000881947559,12530.162,14.493652
1354.4014770902886,1354.4014770902886,12524.271,14.488151
1354.4028659858218,1354.4028659858218,12542.169,14.496106
1354.404254881355,1354.404254881355,12548.31,14.502001
1354.4056437768886,1354.4056437768886,12540.841,14.500159
1354.4070326724222,1354.4070326724222,12558.693,14.495975
1354.4084215679552,1354.4084215679552,12560.76,14.503387
1354.4098104634882,1354.4098104634882,12543.633,14.5064745
1354.4111993591378,1354.4111993591378,12570.824,14.508076
1354.4125882546714,1354.4125882546714,12558.89,14.504053
1354.4139771502046,1354.4139771502046,12559.636,14.505119
1354.4153660458533,1354.4153660458533,12548.014,14.498399
1354.416754941387,1354.416754941387,12543.97,14.503167
1354.418143837037,1354.418143837037,12545.585,14.494521
1354.4195327325706,1354.4195327325706,12560.106,14.502369
1354.4209216282202,1354.4209216282202,12541.331,14.499309
1354.4223105238689,1354.4223105238689,12530.898,14.494289
1354.4236994194025,1354.4236994194025,12565.58,14.506832
1354.4250883150526,1354.4250883150526,12531.668,14.495869
1354.4264772107013,1354.4264772107013,12552.915,14.499895
1354.4278661063508,1354.4278661063508,12559.269,14.505134
1354.429255002001,1354.429255002001,12556.607,14.501691
1354.430643897651,1354.430643897651,12545.522,14.503181
1354.432032793301,1354.432032793301,12547.007,14.499954
1354.4334216889497,1354.4334216889497,12536.177,14.492553
1354.4348105845993,1354.4348105845993,12522.945,14.486879
1354.4361994802493,1354.4361994802493,12540.325,14.499843
1354.4375883760154,1354.4375883760154,12539.321,14.495086
1354.4389772716647,1354.4389772716647,12528.254,14.498413
1354.440366167314,1354.440366167314,12561.278,14.509289
1354.4417550630806,1354.4417550630806,12557.114,14.504853
1354.4431439587306,1354.4431439587306,12556.334,14.504287
1354.4445328543802,1354.4445328543802,12554.835,14.503343
1354.4459217501462,1354.4459217501462,12544.009,14.496574
1354.4473106459118,1354.4473106459118,12557.735,14.509237
1354.4486995415614,1354.4486995415614,12567.545,14.508634
1354.4500884373278,1354.4500884373278,12515.65,14.492726
1354.4514773330943,1354.4514773330943,12563.197,14.505281
1354.452866228744,1354.452866228744,12569.927,14.50711
1354.4542551245097,1354.4542551245097,12555.383,14.500006
1354.4556440202755,1354.4556440202755,12550.22,14.501254
1354.457032916042,1354.457032916042,12552.453,14.4996195
1354.458421811808,1354.458421811808,12546.083,14.501332
1354.459810707573,1354.459810707573,12562.599,14.50192
1354.4611996033395,1354.4611996033395,12557.001,14.502762
1354.462588499106,1354.462588499106,12556.348,14.499157
1354.4639773948725,1354.4639773948725,12564.052,14.51026
1354.4653662906385,1354.4653662906385,12547.033,14.499038
1354.46675518652,1354.46675518652,12546.832,14.499661
1354.4681440822865,1354.4681440822865,12545.361,14.501982
1354.469532978053,1354.469532978053,12562.717,14.50215
1354.4709218738183,1354.4709218738183,12552.077,14.499689
1354.4723107697005,1354.4723107697005,12561.206,14.506642
1354.473699665467,1354.473699665467,12573.881,14.512394
1354.47508856135,1354.47508856135,12562.826,14.503447
1354.4764774571167,1354.4764774571167,12558.366,14.5043125
1354.4778663529983,1354.4778663529983,12547.504,14.503962
1354.4792552488802,1354.4792552488802,12542.765,14.499304
1354.480644144647,1354.480644144647,12558.935,14.506501
1354.4820330405291,1354.4820330405291,12541.595,14.493216
1354.4834219364116,1354.4834219364116,12535.065,14.492506
1354.4848108322935,1354.4848108322935,12549.03,14.504717
1354.4861997281766,1354.4861997281766,12539.817,14.497075
1354.4875886240598,1354.4875886240598,12560.945,14.513961
1354.4889775199417,1354.4889775199417,12569.613,14.511334
1354.4903664158242,1354.4903664158242,12542.414,14.499668
1354.4917553117064,1354.4917553117064,12571.378,14.510337
1354.4931442075886,1354.4931442075886,12558.909,14.505405
1354.4945331034714,1354.4945331034714,12561.024,14.503584
1354.4959219993546,1354.4959219993546,12552.24,14.496124
1354.4973108952368,1354.4973108952368,12528.751,14.490298
1354.4986997912356,1354.4986997912356,12576.9795,14.510994
1354.5000886871176,1354.5000886871176,12546.947,14.499913
1354.5014775830007,1354.5014775830007,12553.988,14.49643
1354.5028664789993,1354.5028664789993,12558.844,14.5040455
1354.5042553748808,1354.5042553748808,12551.819,14.503053
1354.50564427088,1354.50564427088,12542.832,14.4920435
1354.5070331667632,1354.5070331667632,12556.531,14.501646
1354.5084220627627,1354.5084220627627,12547.174,14.500386
1354.5098109586447,1354.5098109586447,12544.686,14.499406
1354.5111998546427,1354.5111998546427,12535.242,14.487203
1354.5125887506422,1354.5125887506422,12554.868,14.508708
1354.5139776465253,1354.5139776465253,12532.961,14.49343
1354.5153665425232,1354.5153665425232,12523.082,14.490247
1354.5167554385218,1354.5167554385218,12564.346,14.507104
1354.5181443345214,1354.5181443345214,12556.564,14.50142
1354.5195332305207,1354.5195332305207,12560.049,14.497184
1354.52092212652,1354.52092212652,12551.217,14.498873
1354.522311022518,1354.522311022518,12538.389,14.492427
1354.5236999185167,1354.5236999185167,12548.455,14.499843
1354.525088814516,1354.525088814516,12552.991,14.499086
1354.5264777105144,1354.5264777105144,12557.65,14.501157
1354.5278666065133,1354.5278666065133,12546.162,14.499315
1354.5292555026285,1354.5292555026285,12550.43,14.50495
1354.5306443986278,1354.5306443986278,12530.574,14.487594
1354.5320332946271,1354.5320332946271,12585.824,14.513389
1354.5334221907424,1354.5334221907424,12547.693,14.497201
1354.5348110867408,1354.5348110867408,12566.372,14.510596
1354.5361999827396,1354.5361999827396,12550.194,14.497283
1354.5375888788546,1354.5375888788546,12574.004,14.506883
1354.5389777749706,1354.5389777749706,12555.214,14.499801
1354.54036667097,1354.54036667097,12548.211,14.49928
1354.5417555670847,1354.5417555670847,12554.426,14.505411
1354.5431444630835,1354.5431444630835,12540.034,14.493671
1354.5445333591988,1354.5445333591988,12548.785,14.503816
1354.5459222553145,1354.5459222553145,12546.462,14.4923315
1354.5473111514293,1354.5473111514293,12537.902,14.50235
1354.5487000474275,1354.5487000474275,12566.0,14.505139
1354.5500889435434,1354.5500889435434,12558.972,14.503941
1354.5514778396591,1354.5514778396591,12532.485,14.490109
1354.5528667357748,1354.5528667357748,12546.966,14.50228
1354.55425563189,1354.55425563189,12550.481,14.504653
1354.5556445280044,1354.5556445280044,12553.147,14.501451
1354.5570334241202,1354.5570334241202,12554.044,14.504035
1354.5584223202359,1354.5584223202359,12562.262,14.508397
1354.5598112163502,1354.5598112163502,12560.766,14.507591
1354.561200112582,1354.561200112582,12548.215,14.499402
1354.5625890086976,1354.5625890086976,12561.924,14.501898
1354.5639779048133,1354.5639779048133,12534.721,14.494568
1354.565366800929,1354.565366800929,12555.219,14.495423
1354.5667556971598,1354.5667556971598,12554.791,14.503458
1354.568144593275,1354.568144593275,12517.694,14.488803
1354.5695334893908,1354.5695334893908,12563.882,14.505252
1354.5709223856225,1354.5709223856225,12563.877,14.501645
1354.5723112817373,1354.5723112817373,12554.537,14.5041
1354.573700177969,1354.573700177969,12537.611,14.494005
1354.575089074201,1354.575089074201,12532.441,14.495852
1354.5764779703168,1354.5764779703168,12547.569,14.499911
1354.5778668665484,1354.5778668665484,12576.8955,14.50627
1354.57925576278,1354.57925576278,12538.004,14.496528
1354.580644658895,1354.580644658895,12556.5,14.498683
1354.5820335551266,1354.5820335551266,12552.469,14.499761
1354.5834224513587,1354.5834224513587,12560.826,14.500278
1354.5848113475909,1354.5848113475909,12532.036,14.490932
1354.5862002438225,1354.5862002438225,12545.961,14.501213
1354.5875891400538,1354.5875891400538,12560.322,14.502919
1354.5889780362854,1354.5889780362854,12549.018,14.501185
1354.5903669325176,1354.5903669325176,12564.045,14.503065
1354.5917558287492,1354.5917558287492,12538.085,14.497997
