time,time,flux,flux_err
1354.113209853416,1354.113209853416,0.9998613641696893,0.00015964285471053337
1354.1220061099627,1354.1220061099627,1.0001938100609304,0.00015967714267322571
1354.1296449645993,1354.1296449645993,1.0001415427755862,0.00014576309871394515
1354.1365893781558,1354.1365893781558,0.9998645464998548,0.00014574633329490986
1354.143533791875,1354.143533791875,1.000035070621275,0.000145770812856794
1354.150478205827,1354.150478205827,0.9997056855743157,0.00014575198912787692
1354.15742262,1354.15742262,1.0003474619089627,0.00014579197299870793
1354.164367034348,1354.164367034348,0.9997990924427743,0.00014575565519682062
1354.1713114488934,1354.1713114488934,0.9999946945503959,0.00014576604489663082
1354.178255863661,1354.178255863661,0.9999475099381228,0.0001457704347683424
1354.1852002786256,1354.1852002786256,1.0000399957166544,0.00014576810851099812
1354.192144693765,1354.192144693765,1.0000686577609936,0.00014578221273334397
1354.199089109114,1354.199089109114,1.0000516095920937,0.00014577486336987715
1354.206033524661,1354.206033524661,0.9998687668477446,0.00014576452936188413
1354.2129779403826,1354.2129779403826,1.0000934532105188,0.00014577426380494424
1354.219922356302,1354.219922356302,1.0000494278816805,0.00014577131632781084
1354.2268667724074,1354.2268667724074,0.9998507436142461,0.00014576735272123952
1354.233811188688,1354.233811188688,0.9999364113271716,0.00014576552336162177
1354.2407556051896,1354.2407556051896,1.0001335906210702,0.00014577268784076065
1354.2477000218191,1354.2477000218191,0.9999467836507161,0.00014576789369261775
1354.2546444386583,1354.2546444386583,0.9998996927116272,0.00014575152716755875
1354.261588855707,1354.261588855707,1.000243258503502,0.0001457778253606766
1354.2685332728836,1354.2685332728836,0.9999928112761264,0.00014577381388893528
1354.2754776902584,1354.2754776902584,0.999964651989807,0.00014575694853982723
1354.2824221078076,1354.2824221078076,1.0001003097012884,0.00014577743495687042
1354.28936652552,1354.28936652552,1.000005627355264,0.00014577252317428315
1354.2963109434065,1354.2963109434065,0.9999274059831521,0.00014576278641829395
1354.303255361468,1354.303255361468,0.9998917357110886,0.0001457609876131818
1354.3101997796928,1354.3101997796928,0.999792570449662,0.00014575361709261324
1354.3171441980917,1354.3171441980917,1.000205023241778,0.00014578320248704804
1354.3240886166536,1354.3240886166536,0.999961027210059,0.0001457689105204648
1354.3310330353675,1354.3310330353675,0.9999460763920777,0.00014576215205178898
1354.337977454255,1354.337977454255,1.000233920070377,0.00014579114309227876
1354.3449218733183,1354.3449218733183,0.9998924382047154,0.00014576269456627623
1354.3518662925085,1354.3518662925085,1.0000133057066694,0.0001457743501716917
1354.3588107118856,1354.3588107118856,0.9999319724925029,0.00014576357240501814
1354.3657551313909,1354.3657551313909,1.0002047969454775,0.0001457892860877858
1354.3726995510353,1354.3726995510353,0.9999959468915309,0.00014577181585448206
1354.379643970878,1354.379643970878,0.9998408022675072,0.00014575976539810476
1354.3865883908372,1354.3865883908372,1.0000523507945185,0.00014577410385586547
1354.3935328109706,1354.3935328109706,1.0000275641436374,0.0001457768815198157
1354.400477231256,1354.400477231256,0.9997363905878405,0.00014575214832754493
1354.4074216516574,1354.4074216516574,1.000049621493289,0.00014577615442412648
1354.4143660722102,1354.4143660722102,1.0000803818276263,0.00014577735130221915
1354.421310492938,1354.421310492938,1.000102165239886,0.00014577751808760898
1354.4282549138047,1354.4282549138047,1.0001053734144338,0.00014577954733469684
1354.4351993347766,1354.4351993347766,1.0000853198277673,0.0001457808164815804
1354.4421437559229,1354.4421437559229,0.9997431344848244,0.00014575717393098436
1354.4490881771742,1354.4490881771742,1.0003899055583252,0.00014579985505563947
1354.4560325985772,1354.4560325985772,0.999673416757991,0.00014574895461909229
1354.4629770201425,1354.4629770201425,0.9996877286865613,0.00014575449174145534
1354.4699214418126,1354.4699214418126,1.0000705991217669,0.00014578074554434274
1354.4768658636347,1354.4768658636347,1.0002734663105801,0.00014579483021330021
1354.4838102855724,1354.4838102855724,1.0000303692873924,0.0001457785432096049
1354.4907547076389,1354.4907547076389,0.9998521879233149,0.00014577342766611132
1354.4976991298568,1354.4976991298568,1.0001790493138834,0.00014579544700670346
1354.5046435521785,1354.5046435521785,1.0000201016418895,0.0001457774459917947
1354.5115879746525,1354.5115879746525,0.9999981140504796,0.00014577315271705415
1354.5185323972191,1354.5185323972191,0.9997130664249008,0.0001457555590373341
1354.5254768199488,1354.5254768199488,0.9995642015462695,0.00014573730976565242
1354.532421242772,1354.532421242772,1.0003880661880173,0.00014579024032390994
1354.539365665723,1354.539365665723,1.0001331811726184,0.00014578734282162773
1354.5463100888016,1354.5463100888016,1.00001142163169,0.00014577107521877928
1354.5532545119972,1354.5532545119972,1.00019889841031,0.00014578288738480437
1354.560198935309,1354.560198935309,1.0000102757754297,0.00014576123571703446
1354.5671433587374,1354.5671433587374,0.9999851458684006,0.00014576517997423138
1354.5740877822818,1354.5740877822818,0.9998806832885829,0.00014575866252851353
1354.5810322059428,1354.5810322059428,1.0001869720245922,0.00014578108535006755
1354.587976629744,1354.587976629744,0.9997916495785626,0.00014576185044348693
1354.5949210536141,1354.5949210536141,0.9998486882983958,0.00014576894023966255
1354.6018654776012,1354.6018654776012,1.0001354435929788,0.00014578813404510143
1354.6088099017165,1354.6088099017165,1.0001623055785926,0.0001457907017532372
1354.615754325936,1354.615754325936,0.9997771593198836,0.00014576868450157194
1354.622698750261,1354.622698750261,0.9998965557016625,0.00014576945451563077
1354.629643174702,1354.629643174702,1.0001025484727664,0.00014577934108385085
1354.6365875992478,1354.6365875992478,0.9999633383080466,0.0001457725434006715
1354.643532023887,1354.643532023887,1.0002162960242864,0.0001457823646332641
1354.6504764486422,1354.6504764486422,0.999975832643854,0.00014576665685841111
1354.6574208734908,1354.6574208734908,0.99988841818395,0.00014576506562212547
1354.6643652984442,1354.6643652984442,1.0000587659053257,0.00014578447533563976
1354.6713097235138,1354.6713097235138,0.9999109356123845,0.00014576689532605353
1354.678254148665,1354.678254148665,1.0000939397376931,0.00014578531288729732
1354.6851985739327,1354.6851985739327,1.000069319235037,0.00014578060024589284
1354.6921429992697,1354.6921429992697,1.0000673440240113,0.00014578277642628466
1354.6990874247356,1354.6990874247356,1.000012805528992,0.00014577620256841223
1354.7060318502943,1354.7060318502943,0.9998625595632238,0.00014577806754994318
1354.712976275911,1354.712976275911,0.999835529009195,0.00014576358196044558
1354.719920701656,1354.719920701656,1.0000466416092233,0.000145781814060569
1354.7268651274705,1354.7268651274705,0.9999141320334083,0.0001457692411655411
1354.7338095534137,1354.7338095534137,1.0001075061396894,0.0001457795351290137
1354.7407539794262,1354.7407539794262,1.0001240746558255,0.00014578038753784646
1354.7476984055204,1354.7476984055204,0.9999052191640558,0.0001457654484556134
1354.754642831731,1354.754642831731,0.999835148085657,0.0001457626495873579
1354.7615872580232,1354.7615872580232,1.0001388702107852,0.00014577933401063882
1354.768531684385,1354.768531684385,0.9999413716852255,0.00014576150811781792
1354.7754761108515,1354.7754761108515,1.0002187880117641,0.00014578304595342417
1354.7824205374,1354.7824205374,1.0000216611579025,0.00014577006838955323
1354.7893649640296,1354.7893649640296,0.9998824314806459,0.00014576203770027288
1354.7963093907406,1354.7963093907406,1.00015391776846,0.00014577035288011386
1354.8032538175564,1354.8032538175564,1.0000936922827068,0.00014577708707846172
1354.8101982444307,1354.8101982444307,0.999817799633546,0.00014576652208953553
1354.8171426714096,1354.8171426714096,0.9998675850017971,0.00014575977950437503
1354.8240870984469,1354.8240870984469,1.0000189796126957,0.00014576638669357693
1354.831031525589,1354.831031525589,0.999842951273991,0.0001457658397898362
1354.8379759527888,1354.8379759527888,1.0001391411469025,0.00014579270552975105
1354.844920380094,1354.844920380094,1.0000876593558778,0.00014576951770310466
1354.851864807445,1354.851864807445,0.9999288394128527,0.00014575975891205237
1354.8588092348896,1354.8588092348896,0.9999749645360826,0.00014576267739222496
1354.8657536624046,1354.8657536624046,0.9999739023108454,0.00014576697600665166
1354.87269809,1354.87269809,0.9999369629072451,0.00014576240661076878
1354.8796425176893,1354.8796425176893,1.000134062576326,0.00014577809481380308
1354.8865869454364,1354.8865869454364,1.0000167491059702,0.00014577176152705853
1354.8935313732538,1354.8935313732538,1.0000502698974194,0.00014577494375146352
1354.9004758011527,1354.9004758011527,0.9998401398309449,0.00014576533868389705
1354.9074202291208,1354.9074202291208,1.0002582590687505,0.00014578812938845594
1354.9143646571588,1354.9143646571588,0.9999006391731149,0.00014576005054445609
1354.9213090852904,1354.9213090852904,0.999985228962592,0.00014577279578739766
1354.92825351348,1354.92825351348,0.9998613230570937,0.0001457613219976273
1354.9365868273771,1354.9365868273771,0.9998735487578976,0.0001457600609770312
1354.9435312557066,1354.9435312557066,1.0001311763421468,0.0001457782508407589
1354.9504756841175,1354.9504756841175,1.00012649115587,0.00014579072454524598
1354.957420112575,1354.957420112575,0.9999329026479099,0.00014576491375312264
1354.9643645411375,1354.9643645411375,1.0001413418706373,0.00014578539630479999
1354.9713089697343,1354.9713089697343,1.0001020719677232,0.0001457829612162601
1354.978253398413,1354.978253398413,1.000189608810159,0.00014580182478817963
1354.985197827138,1354.985197827138,0.9998149464575901,0.00014575369868360006
1354.9921422559562,1354.9921422559562,0.9998939718300107,0.00014576715712880805
1354.9990866848211,1354.9990866848211,0.999547422658338,0.00014574844649681038
1355.0060311137559,1355.0060311137559,1.0001063002102355,0.00014577891564145553
1355.012975542749,1355.012975542749,0.9999469468882015,0.0001457800694486508
1355.0199199718113,1355.0199199718113,1.0000195769344402,0.00014577686866494723
1355.026864400921,1355.026864400921,1.0001795847546064,0.00014578310768847112
1355.0338088301005,1355.0338088301005,1.0001850325145034,0.00014578520783186673
1355.0407532593492,1355.0407532593492,1.0001896227237883,0.0001457852299039875
1355.0476976886446,1355.0476976886446,1.0000637321041292,0.0001457880561961142
1355.0546421179984,1355.0546421179984,0.9998561507819483,0.0001457648345012289
1355.0615865474338,1355.0615865474338,0.9999113600282824,0.00014577186796976052
1355.0685309768924,1355.0685309768924,0.9998804663863992,0.00014577323819730262
1355.0754754064324,1355.0754754064324,0.9997307934134156,0.0001457621845412409
1355.0824198360538,1355.0824198360538,1.000353184312916,0.0001457913945065071
1355.0893642656988,1355.0893642656988,0.9999957445362814,0.00014577640542103935
1355.0963086953784,1355.0963086953784,0.99983478209357,0.00014576974551330383
1355.1032531251515,1355.1032531251515,1.0000186344767228,0.00014578674731813846
1355.1101975549595,1355.1101975549595,1.0001359172251079,0.00014577930127346436
1355.1171419848604,1355.1171419848604,0.9999620386884288,0.00014577373191452782
1355.1240864147844,1355.1240864147844,0.9999059674187614,0.00014576726780791632
1355.1310308447553,1355.1310308447553,0.9999859423945047,0.00014577712506375347
1355.137975274784,1355.137975274784,1.000187691834538,0.00014578880904807018
1355.1449197048719,1355.1449197048719,0.9999016660114627,0.0001457702882119245
1355.1518641350171,1355.1518641350171,0.9999450850975815,0.00014577734548737502
1355.1588085652322,1355.1588085652322,1.0001203799878589,0.000145789617656868
1355.1657529954593,1355.1657529954593,1.0000343481682248,0.0001457887360070567
1355.1726974257442,1355.1726974257442,0.9997697838684946,0.00014576999220821863
1355.1796418560994,1355.1796418560994,0.9998001896219659,0.0001457714953038402
1355.1865862864893,1355.1865862864893,1.0003258317752741,0.0001457939188151291
1355.1935307169372,1355.1935307169372,1.0001531833438981,0.00014578844506661954
1355.2004751474087,1355.2004751474087,1.0000776285978716,0.00014578588972340555
1355.2074195779728,1355.2074195779728,0.9998376227066743,0.00014576187551694275
1355.214364008561,1355.214364008561,0.9997872767882481,0.00014576195034308117
1355.2213084392074,1355.2213084392074,1.0002159658622165,0.00014579335284793183
1355.2282528698881,1355.2282528698881,0.999830901741851,0.00014576630302059226
1355.2351973006273,1355.2351973006273,1.0000045672295532,0.00014578352435274
1355.2421417313894,1355.2421417313894,1.0000904633102674,0.00014577916649688576
1355.2490861622334,1355.2490861622334,0.9999138871028521,0.0001457713936433558
1355.2560305931008,1355.2560305931008,0.9999826406052879,0.00014578403437385103
1355.2629750240144,1355.2629750240144,1.0002472880897106,0.00014578404012085855
1355.2699194549864,1355.2699194549864,0.9999913800498497,0.0001457705827219066
1355.276863885993,1355.276863885993,0.9999381750073664,0.0001457724279244128
1355.2838083170584,1355.2838083170584,0.9999426337714026,0.00014576758892800623
1355.2907527481586,1355.2907527481586,1.0000731253648998,0.0001457695993551365
1355.2976971792818,1355.2976971792818,0.9999776698512319,0.0001457691293031254
1355.3046416104632,1355.3046416104632,0.9999412288534406,0.00014576054627236145
1355.31158604168,1355.31158604168,0.9999501937564045,0.00014576227874976903
1355.3185304729545,1355.3185304729545,0.9999643544834788,0.00014576849629091608
1355.325474904264,1355.325474904264,0.999996196869968,0.00014577580675272252
1355.3332526673987,1355.3332526673987,0.9999084535275102,0.000145767774968466
1355.3407526533013,1355.3407526533013,1.0002672657251437,0.00014578627213233264
1355.347697084727,1355.347697084727,1.000033820414059,0.0001457794129819381
1355.3546415162232,1355.3546415162232,0.9999629352981824,0.00014577332965732534
1355.3615859477538,1355.3615859477538,0.9999628878287805,0.00014577568363198192
1355.368530379296,1355.368530379296,1.0000767651239912,0.00014577679194037842
1355.3754748109084,1355.3754748109084,0.9998085003475816,0.00014576066145385554
1355.3824192425323,1355.3824192425323,1.0000892810729507,0.00014578380741867708
1355.3893636742027,1355.3893636742027,1.0000623013065921,0.00014577731969935622
1355.397419215024,1355.397419215024,0.9997822549611539,0.0001457566904491038
1355.4046414240545,1355.4046414240545,1.000007712129351,0.00014577343416149747
1355.4115858558648,1355.4115858558648,0.9998645366488843,0.00014576676166185677
1355.4185302876983,1355.4185302876983,1.000231017867005,0.00014579003637494296
1355.4254747195669,1355.4254747195669,0.999894630118046,0.00014575536653845485
1355.432419151482,1355.432419151482,1.000183286214979,0.0001457783172007663
1355.4393635834201,1355.4393635834201,1.00014429334362,0.0001457833572394007
1355.4463080154048,1355.4463080154048,0.9999148576074738,0.00014577042711699746
1355.4532524474362,1355.4532524474362,0.999973713224261,0.00014577475715608633
1355.4601968794907,1355.4601968794907,1.0000334633044328,0.00014578089332060602
1355.4671413115923,1355.4671413115923,0.9998868400268168,0.00014576813021681439
1355.474085743705,1355.474085743705,0.999952943866319,0.00014577498004131768
1355.4810301758644,1355.4810301758644,1.0001648548794446,0.00014579667362936863
1355.4879746080587,1355.4879746080587,0.9996963941646086,0.0001457644975403057
1355.4949190403113,1355.4949190403113,1.0001340726286125,0.0001457870134277814
1355.5018634725752,1355.5018634725752,0.999933831384854,0.00014578052799344205
1355.508807904851,1355.508807904851,0.9998730237899203,0.00014577422459967625
1355.5157523371854,1355.5157523371854,1.000269497441939,0.00014579668484713702
1355.5226967695423,1355.5226967695423,0.9999575002468605,0.00014576143084229755
1355.5296412019347,1355.5296412019347,1.0001773246735497,0.0001457943515707901
1355.5365856343622,1355.5365856343622,0.999944520803038,0.00014575040197010414
1355.5435300668241,1355.5435300668241,0.999879232392521,0.00014576473101283834
1355.5504744993211,1355.5504744993211,0.9999933484835338,0.00014577432500054085
1355.5574189318531,1355.5574189318531,0.9998877452547064,0.0001457686802647314
1355.564363364408,1355.564363364408,1.0002012358373396,0.0001457767076049194
1355.5713077969751,1355.5713077969751,0.9999018143359389,0.00014575590222321721
1355.5782522296001,1355.5782522296001,0.9999291711804785,0.00014576460126535594
1355.5851966622486,1355.5851966622486,1.000159372360309,0.00014577577219104966
1355.592141094932,1355.592141094932,1.000218298362852,0.00014578712727374106
1355.5990855276382,1355.5990855276382,0.999786838438203,0.00014574610921137243
1355.6060299603566,1355.6060299603566,0.9998711763788158,0.00014575825027672858
1355.612974393133,1355.612974393133,0.9998027118122446,0.00014574873635547
1355.6199188259327,1355.6199188259327,1.0001754577859685,0.0001457766771083889
1355.6268632587444,1355.6268632587444,1.0002033491028466,0.00014577570298287455
1355.6338076915904,1355.6338076915904,0.999824372979273,0.00014574152502319686
1355.6407521244946,1355.6407521244946,0.9999587345498384,0.0001457662988247849
1355.647696557411,1355.647696557411,1.0002565668272365,0.00014577808370131205
1355.654640990339,1355.654640990339,1.0000645369062233,0.0001457830568585406
1355.661585423313,1355.661585423313,0.9998855658454445,0.0001457656376628584
1355.6685298562993,1355.6685298562993,0.9999941448383842,0.00014577302902974232
1355.6754742893315,1355.6754742893315,0.9996887919494067,0.0001457474342449504
1355.6824187223642,1355.6824187223642,0.9999702229939149,0.00014576099118092907
1355.6893631554435,1355.6893631554435,1.000331937609285,0.00014579818159196379
1355.6963075885456,1355.6963075885456,0.9997657819456206,0.00014575319791394962
1355.703252021683,1355.703252021683,1.000123889589741,0.00014578371718612084
1355.7101964548206,1355.7101964548206,0.9999774705929859,0.00014576233510493224
1355.7171408880158,1355.7171408880158,0.9999204310141673,0.00014576232374967444
1355.7240853212231,1355.7240853212231,1.0000475987256412,0.00014577796812409276
1355.7310297544536,1355.7310297544536,0.9999694012608741,0.00014576890048393997
1355.7379741877073,1355.7379741877073,1.0002682118268345,0.0001457892832185681
1355.7463075076582,1355.7463075076582,0.9999490517983609,0.000145771300790595
1355.7532519409701,1355.7532519409701,1.0001032750051042,0.00014577293706408433
1355.7601963743055,1355.7601963743055,1.000011205384583,0.00014577986184578198
1355.7671408076756,1355.7671408076756,0.9999562606330811,0.00014578204609518524
1355.7740852410686,1355.7740852410686,0.9996448824262973,0.00014575306024066433
1355.7810296744506,1355.7810296744506,0.9999153093670946,0.0001457685514586916
1355.7879741079025,1355.7879741079025,1.0000578537250533,0.00014578106406110564
1355.7949185413659,1355.7949185413659,1.0002300287868457,0.00014578858486760676
1355.8018629748524,1355.8018629748524,0.9999008051423053,0.0001457663539190898
1355.808807408362,1355.808807408362,1.0000979761351971,0.00014578326712838237
1355.8157518418839,1355.8157518418839,0.9999693652184526,0.00014576045697986144
1355.82269627544,1355.82269627544,0.9999915734896423,0.00014577158344540126
1355.8296407090195,1355.8296407090195,0.9998868917991828,0.00014575986317168026
1355.8365851426113,1355.8365851426113,0.9997009324619773,0.00014574823363800615
1355.8435295762372,1355.8435295762372,1.0002008125933481,0.00014578718533949346
1355.8504740098754,1355.8504740098754,1.0000576212178731,0.0001457716310459863
1355.8574184435597,1355.8574184435597,1.0000996270769054,0.0001457784673132615
1355.8643628772209,1355.8643628772209,0.9999577186025388,0.00014576792028159162
1355.8713073109404,1355.8713073109404,1.0000831566908976,0.0001457745626556248
