time,time,flux,flux_err
1653.9286989340242,1653.9286989340242,0.9995572195573192,0.0016849078481835766
1653.9370324622544,1653.9370324622544,0.9989567920659442,0.0016838758834117396
1653.9446715297272,1653.9446715297272,1.000118029841952,0.0015372722469781793
1653.951616135962,1653.951616135962,1.0003376998842775,0.0015374747750499461
1653.9585607420104,1653.9585607420104,1.0015815306084104,0.0015350786041417222
1653.9655053476868,1653.9655053476868,1.0013045150271733,0.0015407649498538714
1653.9724499531762,1653.9724499531762,1.0000941966818595,0.0015380383102637952
1653.979394558201,1653.979394558201,1.000301818415489,0.0015358989025391384
1653.9863391630383,1653.9863391630383,0.9993303150183918,0.0015352761556764983
1653.9932837675042,1653.9932837675042,0.9997177494899642,0.0015386650260011197
1654.0002283719696,1654.0002283719696,0.9995589100659229,0.0015359671363852111
1654.007172976062,1654.007172976062,1.0008120208597213,0.0015361128064797925
1654.0141175797828,1654.0141175797828,1.000048426429832,0.001536104332756743
1654.0210621834099,1654.0210621834099,0.9988664088507251,0.0015365112661710207
1654.0280067866643,1654.0280067866643,1.000180937986653,0.001539980872776569
1654.0349513897327,1654.0349513897327,1.000334452708877,0.0015372108339166892
1654.041895992522,1654.041895992522,0.9997983580767313,0.0015380297819470997
1654.0488405952178,1654.0488405952178,0.9995000908885595,0.0015393842242875917
1654.0557851974481,1654.0557851974481,0.9979788304363479,0.0015385552449211069
1654.0627297995852,1654.0627297995852,1.000540533470426,0.001542087469382372
1654.0696744017228,1654.0696744017228,1.0006964643476894,0.0015431398056767233
1654.07661900358,1654.07661900358,1.000584822425077,0.0015461459887114522
1654.0835636051584,1654.0835636051584,1.0014681163588561,0.0015498516840988404
1654.0905082065503,1654.0905082065503,1.0022436283308171,0.0015542813772334528
1654.097452807756,1654.097452807756,1.0018378894571598,0.0015577584467151415
1654.1043974087756,1654.1043974087756,1.0034897605448623,0.0015597033686435458
1654.1113420095157,1654.1113420095157,1.0004354253858705,0.0015639190164827717
1654.1182866102558,1654.1182866102558,0.9958089128673098,0.001569243824900323
1654.1252312107165,1654.1252312107165,0.9926662221359047,0.0015751682885315962
1654.132175811084,1654.132175811084,0.9951820993072757,0.001582282890101178
1654.1391204113584,1654.1391204113584,0.9921326956160694,0.0015892275840250596
1654.1460650112604,1654.1460650112604,0.9955348562235976,0.0015945445879518999
1654.1530096110691,1654.1530096110691,0.9949423030835796,0.0016056091601446688
1654.159954210878,1654.159954210878,0.9983815181168889,0.0016080861036162277
1654.1674543784854,1654.1674543784854,0.99420628565667,0.0016094927793179892
1654.1752323298983,1654.1752323298983,0.9946438959972929,0.0016110220553769371
1654.1821769291485,1654.1821769291485,0.9928766282300445,0.0016136363913094184
1654.1891215283983,1654.1891215283983,0.9922480802097933,0.0016161311546549362
1654.196066127369,1654.196066127369,0.9907479157094873,0.0016149974581718713
1654.2030107263395,1654.2030107263395,0.9943073863942274,0.0016180754693830165
1654.2099553252167,1654.2099553252167,0.9978454032983695,0.00162044098204033
1654.2168999238154,1654.2168999238154,1.0010820008754104,0.0016268043050166093
1654.2238445225062,1654.2238445225062,1.004467036775844,0.0016282887952076188
1654.230789120918,1654.230789120918,1.0039753047073006,0.0016293778651325333
1654.2377337193302,1654.2377337193302,1.0018065797190823,0.0016310769512978066
1654.2446783176485,1654.2446783176485,1.0016634008941845,0.0016362142027782454
1654.2516229158741,1654.2516229158741,1.000925960531691,0.0016358121811749526
1654.2591230817118,1654.2591230817118,1.0019273992230577,0.0016385683454330318
1654.2669010315421,1654.2669010315421,0.9984427313499168,0.0016431821605247382
1654.2738456293948,1654.2738456293948,0.9994500439248182,0.0016425843715617144
1654.2807902271547,1654.2807902271547,0.9989459134104542,0.0016463720219306213
1654.2877348250076,1654.2877348250076,1.0007000514704165,0.0016488875434528334
1654.2946794224881,1654.2946794224881,0.9993814358641956,0.0016522644435145914
1654.301624020062,1654.301624020062,0.9998580965940412,0.0016520404019350534
1654.3085686178213,1654.3085686178213,0.9998621239906422,0.00165427339349673
1654.3155132149295,1654.3155132149295,1.0000825175417847,0.001657172100326532
1654.32245781241,1654.32245781241,0.9992364859778491,0.0016559651481142205
1654.3294024098905,1654.3294024098905,0.9995081877052361,0.001656821376394927
1654.3363470069053,1654.3363470069053,1.0005000716326884,0.0016597007808846834
1654.3432916041995,1654.3432916041995,1.002743272457711,0.0016591333427318756
1654.3502362013073,1654.3502362013073,0.9988121842804956,0.0016624687002544758
1654.3571807983221,1654.3571807983221,1.0007821459761552,0.001663365647048767
1654.3641253952435,1654.3641253952435,0.9968456871008338,0.0016625916477837354
1654.3710699922588,1654.3710699922588,0.9985326409517367,0.0016653031678975437
1654.3780145890873,1654.3780145890873,0.9994375102772658,0.0016664848268681874
1654.3849591858227,1654.3849591858227,1.0014398870842636,0.00166538576727582
1654.3919037827443,1654.3919037827443,1.0020172589581393,0.0016656581301679057
1654.3988483793867,1654.3988483793867,1.0005968973498889,0.001670531662545002
1654.405792976122,1654.405792976122,0.9996518828439644,0.0016681458084976998
1654.4127375726707,1654.4127375726707,0.9983011866855038,0.001669893546746838
1654.4196821693135,1654.4196821693135,1.00038662704109,0.001670570036229987
1654.4266267658622,1654.4266267658622,0.9995147860898215,0.0016709109099424656
1654.4335713623186,1654.4335713623186,1.0009993297358388,0.0016717889176079432
1654.4405159587743,1654.4405159587743,0.9983229507707838,0.0016729355373967636
1654.4474605553237,1654.4474605553237,1.0006337170954305,0.0016745881760987641
1654.4544051515936,1654.4544051515936,0.9991840146258909,0.0016736707836545353
1654.461349747956,1654.461349747956,1.0005591300399599,0.0016735788039094264
1654.4682943442263,1654.4682943442263,0.9993198326547473,0.0016720373464257188
1654.475238940589,1654.475238940589,1.000526635899535,0.0016764150881556348
1654.4821835368584,1654.4821835368584,0.9993399473126037,0.001674022100627011
1654.4891281329424,1654.4891281329424,1.000564016368907,0.0016763321100356598
1654.496072729212,1654.496072729212,1.0008075309491713,0.0016749498278340834
1654.5044062446054,1654.5044062446054,0.9998367693818329,0.0016746735974460427
1654.5169065176483,1654.5169065176483,1.000151465386588,0.0016761546032460733
1654.5252400329493,1654.5252400329493,0.9988177452293419,0.0016782687940040304
1654.532184628939,1654.532184628939,1.0023044677185404,0.0016797482059948076
1654.5391292249296,1654.5391292249296,0.99869158943849,0.0016788665080115406
1654.5460738210131,1654.5460738210131,0.998865149547022,0.0016787489104524377
1654.5530184169106,1654.5530184169106,1.00086328115897,0.0016813828808397734
1654.5599630129007,1654.5599630129007,1.0007610124854935,0.0016836444322563399
1654.566907608798,1654.566907608798,0.9999020670105523,0.0016836031910655923
1654.5738522046952,1654.5738522046952,1.0020995482687343,0.0016847928688085109
1654.580796800592,1654.580796800592,0.9986846395143427,0.0016890506354999529
1654.5877413963965,1654.5877413963965,0.9984049634706997,0.0016847507575636408
1654.5946859922933,1654.5946859922933,1.000010942319855,0.0016879063486991148
1654.6016305880978,1654.6016305880978,1.0012774578911443,0.001685805390607829
1654.608575183995,1654.608575183995,1.0001094224973928,0.00168832256005362
1654.615519779706,1654.615519779706,1.0007827106103264,0.0016863770064328542
1654.62246437551,1654.62246437551,1.0026010335703364,0.0016880440589130176
1654.6299645390195,1654.6299645390195,0.9987758858692428,0.0016889898863638834
1654.6377424861487,1654.6377424861487,0.998119481336716,0.0016892922523631642
1654.6446870818595,1654.6446870818595,0.9995781505414968,0.0016864080276019593
1654.6516316775705,1654.6516316775705,1.0003377986836444,0.0016840810856639285
1654.6585762732816,1654.6585762732816,1.001103560656679,0.0016877040561795176
1654.6655208689922,1654.6655208689922,0.9995490816783805,0.0016836018945229412
1654.67246546461,1654.67246546461,0.9987293764957421,0.0016848549570437018
1654.679410060228,1654.679410060228,0.9984277935410917,0.0016818180669851263
1654.686354655939,1654.686354655939,1.0017525563799876,0.0016844732634577607
1654.6932992515565,1654.6932992515565,1.001564341786798,0.0016843421766293792
1654.7002438471743,1654.7002438471743,1.0015602473994794,0.001682849197685949
1654.7071884426998,1654.7071884426998,0.999871151438664,0.001681890451369967
1654.7141330383172,1654.7141330383172,0.9988901678372131,0.0016812812619169456
1654.7210776339348,1654.7210776339348,0.9999637843889619,0.0016791693434255635
1654.7280222294594,1654.7280222294594,0.999895134308658,0.0016792149301328094
1654.7349668249844,1654.7349668249844,0.9976024401626724,0.0016790061630595527
1654.7419114206023,1654.7419114206023,1.0006962074996917,0.001682795548180762
1654.7488560161266,1654.7488560161266,1.000280887886149,0.0016807875032341455
1654.7558006116517,1654.7558006116517,0.9994302381020462,0.0016802412829493647
1654.7627452070833,1654.7627452070833,1.0010027923854783,0.0016793145088226113
1654.7696898026074,1654.7696898026074,1.0012749688638813,0.0016784077764004815
1654.7766343982253,1654.7766343982253,1.000410234768424,0.0016759729171952641
1654.7835789936573,1654.7835789936573,0.9999725863112261,0.0016790592751460905
1654.7905235889957,1654.7905235889957,0.9971766811863159,0.0016769458528269592
1654.797468184613,1654.797468184613,0.9975276460767717,0.0016732445834309068
1654.8044127800447,1654.8044127800447,1.0028326313039928,0.0016744530706187372
1654.8113573753835,1654.8113573753835,1.001062992065459,0.0016737201640732555
1654.818301971001,1654.818301971001,0.9997475260338154,0.0016758829084995135
1654.8252465663397,1654.8252465663397,0.9993525897001238,0.0016728041139750355
1654.8321911617709,1654.8321911617709,1.0013229140699145,0.0016721225713784657
1654.839135757203,1654.839135757203,0.9988872327276883,0.0016702539878449732
1654.8460803525409,1654.8460803525409,0.9978538746976717,0.0016725992550638824
1654.8530249479725,1654.8530249479725,1.0009576334834924,0.0016692982187046345
1654.8599695433113,1654.8599695433113,0.9995604257716245,0.0016713151259040784
1654.8669141387425,1654.8669141387425,1.0006410433162258,0.0016663648054553264
1654.8738587340808,1654.8738587340808,1.0004245222524835,0.001668163745228699
1654.8808033295124,1654.8808033295124,1.0009747706699441,0.0016642725676015862
1654.8877479248508,1654.8877479248508,1.0000937097334384,0.0016637514630018107
1654.8946925200962,1654.8946925200962,0.9989328692889525,0.0016619980623347695
1654.9021926832331,1654.9021926832331,1.001153608851062,0.0016621083632133258
1654.9099706298032,1654.9099706298032,0.9988813119862584,0.0016602368548540233
1654.9169152253285,1654.9169152253285,1.000669420117045,0.0016604168923437927
1654.9238598205734,1654.9238598205734,0.9997507664599101,0.00165450896336651
1654.9308044157256,1654.9308044157256,0.9992710521739406,0.0016552633365595401
1654.9377490113432,1654.9377490113432,0.9994593575158415,0.0016539233012812353
1654.944693606496,1654.944693606496,1.0000648366340816,0.0016547232903642711
1654.9516382016477,1654.9516382016477,0.999897429508598,0.0016514601613958455
1654.9585827969863,1654.9585827969863,1.0008037540653394,0.0016497373953852598
1654.9655273924175,1654.9655273924175,0.9993826744697121,0.0016482351073372078
1654.9724719875699,1654.9724719875699,1.0015262415657513,0.0016466726998216378
1654.979416582722,1654.979416582722,1.0005801311591838,0.001647707540305466
1654.9863611778742,1654.9863611778742,0.997207861260437,0.0016446014318745987
1654.9933057734918,1654.9933057734918,1.0014609466927435,0.0016479783900389899
1655.0002503686442,1655.0002503686442,1.0000369095329629,0.0016461234545605084
1655.0071949637963,1655.0071949637963,1.0003891055607124,0.0016459589217858808
1655.0141395589483,1655.0141395589483,0.9990180295206879,0.0016447902521163793
1655.0210841541007,1655.0210841541007,0.9997381820951791,0.0016447222239254666
1655.0280287492528,1655.0280287492528,1.001949424931904,0.001644786932964657
1655.034973344405,1655.034973344405,0.9992827064811362,0.0016449194359319345
1655.0419179395572,1655.0419179395572,1.0000805732917744,0.0016436026336006145
1655.0488625349885,1655.0488625349885,0.9979580952403214,0.0016433966743762533
1655.055807130327,1655.055807130327,1.0000416202684073,0.001644317166763471
1655.0627517254793,1655.0627517254793,1.0005014987865417,0.0016452611264656147
1655.0696963206315,1655.0696963206315,0.9997367538874495,0.001645172734326537
1655.0766409157836,1655.0766409157836,1.001019343420986,0.0016452223603072697
1655.0835855107493,1655.0835855107493,0.9988991344433045,0.0016446082841320216
1655.0905301056223,1655.0905301056223,1.001382702206853,0.0016458045563918825
1655.0974747007742,1655.0974747007742,1.0007040933192013,0.0016460676279345919
1655.1044192959264,1655.1044192959264,1.000729576673407,0.0016474517418418786
1655.1113638910788,1655.1113638910788,0.9996692632038954,0.001647524556937101
1655.1183084862307,1655.1183084862307,0.9987507569145506,0.0016476919201302074
1655.1252530813829,1655.1252530813829,1.0007007546531081,0.001648361205516495
1655.132197676535,1655.132197676535,1.0003727445134494,0.0016476066036080824
1655.1391422715944,1655.1391422715944,0.9984578384504168,0.0016469113392866813
1655.1460868663737,1655.1460868663737,0.9997928963481197,0.001648700570251935
1655.1530314615259,1655.1530314615259,1.0005918136160878,0.001649080338811345
1655.159976056678,1655.159976056678,1.0005508397119987,0.0016504301746596665
1655.1669206518302,1655.1669206518302,1.0002002735306834,0.0016457445958383097
1655.1738652465167,1655.1738652465167,0.9999654352549887,0.001650011408720689
1655.1819209768928,1655.1819209768928,0.9982768347630959,0.0016454689470681984
1655.1891433558517,1655.1891433558517,1.0003816056363874,0.0016420641943741799
1655.196087950538,1655.196087950538,0.9992102833031413,0.0016445471517627392
1655.2030325456901,1655.2030325456901,0.9999625278096929,0.0016415328698257368
1655.2099771406556,1655.2099771406556,1.00156040377023,0.0016436867063468902
1655.216921735529,1655.216921735529,0.9998747330045793,0.0016417143930940116
1655.223866330681,1655.223866330681,0.99908091936862,0.001641788593165416
1655.230810925367,1655.230810925367,1.001228353116578,0.001639263373415038
1655.2377555205196,1655.2377555205196,0.9998363945421153,0.001638902212522011
1655.244700115299,1655.244700115299,1.000266996059975,0.0016376543565106798
1655.2516447103583,1655.2516447103583,1.0004418585231492,0.0016389815431012468
1655.2591448726566,1655.2591448726566,1.0012036387383074,0.0016380733502750773
1655.2669228190407,1655.2669228190407,0.9993194504177701,0.00163790823921017
1655.2738674139139,1655.2738674139139,0.99811904063717,0.001638538767985519
1655.2808120086934,1655.2808120086934,0.9994992071391904,0.0016365521535273056
1655.2885899549844,1655.2885899549844,1.0004935543930993,0.0016378098411705822
1655.296090117469,1655.296090117469,1.0000009073014202,0.001633965520400463
1655.303034712249,1655.303034712249,1.000230305580793,0.001636001773846833
1655.3099793071215,1655.3099793071215,1.000343488935536,0.0016330318231859737
1655.3169239019014,1655.3169239019014,1.0009776144676945,0.0016331148770143834
1655.3238684966811,1655.3238684966811,0.9997461261226837,0.0016301916078239654
1655.3308130914604,1655.3308130914604,0.9984024664952518,0.001631637786956156
1655.3377576862404,1655.3377576862404,1.001315478463337,0.001632791172982884
1655.3447022810196,1655.3447022810196,0.9996144678763714,0.001632608347780291
1655.3516468757994,1655.3516468757994,0.9998720003199567,0.0016324014734148385
1655.3585914704859,1655.3585914704859,1.0004562032703908,0.0016333142566914514
1655.3655360652658,1655.3655360652658,1.0006660918592547,0.0016313503507764068
1655.3724806599519,1655.3724806599519,0.9994880490040867,0.001632747060220287
1655.3794252546384,1655.3794252546384,1.0001106838953908,0.001633127078622075
1655.3863698493253,1655.3863698493253,0.9984275536350905,0.0016301967809369908
1655.3933144440114,1655.3933144440114,1.0000246601706038,0.001633033172740273
1655.400259038605,1655.400259038605,0.999852436216565,0.0016312592970009292
1655.4080369846165,1655.4080369846165,1.0011978485266115,0.001632089332944842
1655.415537146915,1655.415537146915,0.999094610996696,0.0016289821823954945
1655.4224817415084,1655.4224817415084,1.0003079703383713,0.0016308339213566795
1655.4294263361014,1655.4294263361014,0.999325445581308,0.0016275196980029554
1655.4363709306951,1655.4363709306951,1.0010549408963825,0.0016299074351248596
1655.4433155252889,1655.4433155252889,1.0007577714153242,0.001631218823325289
1655.450260119882,1655.450260119882,0.9998820341279455,0.001629327789552756
1655.4572047143822,1655.4572047143822,0.9997021478173626,0.0016310249354862018
1655.4641493088825,1655.4641493088825,0.999856911391604,0.0016278057332958778
1655.4710939034758,1655.4710939034758,0.9987236931326212,0.0016281449707921708
1655.4780384979756,1655.4780384979756,0.9994505741400326,0.0016288625782068303
1655.4849830923827,1655.4849830923827,0.998966599931655,0.0016328027723322147
1655.4919276869764,1655.4919276869764,1.0010303903893134,0.0016293740975096608
1655.4988722813837,1655.4988722813837,0.9999654895109306,0.0016316491594681195
1655.5058168758837,1655.5058168758837,0.999673692681349,0.0016340205348478506
1655.5127614702906,1655.5127614702906,1.0008621445646437,0.0016342950855631362
1655.519706064791,1655.519706064791,1.0009352274780594,0.0016336207003492375
1655.5266506591051,1655.5266506591051,0.9989829477163831,0.0016325744606351723
1655.533595253512,1655.533595253512,1.0006608212705705,0.0016334739246775618
1655.540539847919,1655.540539847919,0.999697535019679,0.0016337138295175932
1655.5474844422333,1655.5474844422333,1.0004918535094256,0.0016352712666894763
1655.5544290366404,1655.5544290366404,0.9994541772666947,0.0016349502205373328
1655.5613736310472,1655.5613736310472,0.9986165595592386,0.0016366167297710728
1655.568318225268,1655.568318225268,0.9998143470264719,0.0016354520332651126
1655.575262819582,1655.575262819582,0.9990088996341727,0.0016372379832505384
1655.582207413896,1655.582207413896,1.0020558311068275,0.0016355889352533397
1655.5891520081168,1655.5891520081168,0.9985954696020135,0.0016360662820206582
1655.5960966024309,1655.5960966024309,1.001224565731185,0.0016385706820989485
1655.6030411966517,1655.6030411966517,0.9992886435546868,0.0016369117930490316
1655.6099857908725,1655.6099857908725,1.0013187683721234,0.0016379964081155427
1655.6169303850936,1655.6169303850936,0.998803481269892,0.0016422168391787648
1655.623874979221,1655.623874979221,1.0005418304787288,0.0016371401058739056
1655.6308195734414,1655.6308195734414,0.9982636387564405,0.001637730177103684
1655.6377641676631,1655.6377641676631,1.0011113791243997,0.0016364971764445519
1655.6447087616973,1655.6447087616973,0.9987703364606532,0.0016379231186826222
1655.6516533558247,1655.6516533558247,1.0011075722578964,0.0016396246195515708
1655.6585979499528,1655.6585979499528,0.9993812110455836,0.0016383001721016408
1655.6655425440804,1655.6655425440804,0.9995748316295291,0.001635281350249477
1655.6724871380218,1655.6724871380218,0.9985649904295343,0.0016382123237160175
1655.6794317322424,1655.6794317322424,0.999565642519047,0.0016367541303078607
1655.6863763262768,1655.6863763262768,1.001146374764441,0.0016354217177843306
1655.6933209202186,1655.6933209202186,1.0014584178529766,0.0016363938214242837
1655.7002655142533,1655.7002655142533,0.9998081911334955,0.0016325252186311125
1655.7072101081944,1655.7072101081944,0.9998312024255614,0.0016368084977226322
1655.7141547022288,1655.7141547022288,0.9997651182599343,0.0016362188274955628
