time,time,flux,flux_err
1325.298464924289,1325.298464924289,0.9996990456755825,0.0004041197361953474
1325.3067984092102,1325.3067984092102,0.9996442262744196,0.0004042066366091477
1325.3151318943553,1325.3151318943553,1.0005082040063482,0.0004044684406195356
1325.3227709226353,1325.3227709226353,1.0003560164230887,0.0003692407980589669
1325.3297154939692,1325.3297154939692,1.000164282291599,0.000369236925392828
1325.3366600654779,1325.3366600654779,1.000132271238217,0.0003693669950630598
1325.3436046371382,1325.3436046371382,0.9997318157878297,0.00036942405727776465
1325.3505492089612,1325.3505492089612,1.0003508807675061,0.00036960421628001386
1325.3574937809474,1325.3574937809474,0.9999870007586547,0.00036971304416431096
1325.364438353085,1325.364438353085,1.0005700700354279,0.00036998431939387876
1325.3713829253734,1325.3713829253734,0.9995769912166159,0.00036998527461624714
1325.3783274978255,1325.3783274978255,1.0006239729926434,0.0003702423207860098
1325.3852720704167,1325.3852720704167,0.9999678783200683,0.0003703274729623215
1325.3922166431596,1325.3922166431596,0.999903761496969,0.0003704795149294665
1325.3991612160535,1325.3991612160535,1.000247246858612,0.0003706745191966164
1325.406105789076,1325.406105789076,0.9994311273670482,0.00037069616466289357
1325.4130503622607,1325.4130503622607,1.000082326521182,0.0003709488326440099
1325.419994935574,1325.419994935574,1.0001341462708864,0.0003710960063212579
1325.4269395090269,1325.4269395090269,1.0003173445400395,0.0003712841737881503
1325.4338840826313,1325.4338840826313,0.9999132480638238,0.00037140555141552744
1325.4408286563753,1325.4408286563753,0.9999468552675415,0.0003715361423958179
1325.4477732302123,1325.4477732302123,1.0002007525444383,0.0003717692880410639
1325.4547178042005,1325.4547178042005,1.000375023571661,0.0003718916719670999
1325.4616623783286,1325.4616623783286,1.0001326981656322,0.00037199672432909766
1325.468606952573,1325.468606952573,0.9994781733113856,0.0003721083734631381
1325.4755515269576,1325.4755515269576,0.9998080966125382,0.00037231393818860947
1325.4824961014463,1325.4824961014463,1.000564810680968,0.00037265629886321577
1325.4894406760754,1325.4894406760754,1.0002062571515333,0.0003727637781432964
1325.4963852508204,1325.4963852508204,0.999782031807996,0.0003729024418939638
1325.5033298256935,1325.5033298256935,1.0001609242806166,0.0003731269962577711
1325.51027440066,1325.51027440066,0.9997957613889433,0.00037334305687394267
1325.517218975754,1325.517218975754,0.9999738381405491,0.0003735945982261344
1325.524163550965,1325.524163550965,1.0003356177173377,0.00037387587087228067
1325.5311081262803,1325.5311081262803,0.9993299711323482,0.000373964783045748
1325.5380527017355,1325.5380527017355,1.0001342618341083,0.0003742667692695136
1325.5449972772726,1325.5449972772726,1.0002482802339976,0.0003745436257819225
1325.5519418529138,1325.5519418529138,0.9998031585977891,0.00037472828576060036
1325.5588864286954,1325.5588864286954,1.0000392976578367,0.00037492264577401686
1325.5658310045346,1325.5658310045346,0.9997893655158243,0.00037509041142061504
1325.5727755805021,1325.5727755805021,1.000448401030475,0.0003754227589267007
1325.5797201565747,1325.5797201565747,0.9997163462005754,0.0003755081493047836
1325.5866647327398,1325.5866647327398,1.0003588594037223,0.00037583350270099173
1325.59360930901,1325.59360930901,0.9998388370160821,0.0003759039049193405
1325.600553885385,1325.600553885385,0.9999282734818522,0.00037605204214547557
1325.6074984618178,1325.6074984618178,0.9997152674182914,0.0003761782021693155
1325.6144430383792,1325.6144430383792,1.0001258187669781,0.0003764468954591603
1325.6213876150218,1325.6213876150218,1.0004168708940937,0.00037654106717015213
1325.6283321917695,1325.6283321917695,0.9996894180087299,0.00037650849038082254
1325.6352767685983,1325.6352767685983,0.9997911029513842,0.0003766726389965015
1325.6422213455085,1325.6422213455085,0.999938740685901,0.0003767268692191977
1325.6491659225355,1325.6491659225355,1.0002770755553725,0.00037681788939425935
1325.6561104996206,1325.6561104996206,1.000304980766729,0.0003769231975670512
1325.6630550768223,1325.6630550768223,0.9998983583201021,0.0003769080260041138
1325.6699996540815,1325.6699996540815,0.9997132465322356,0.00037690588122711707
1325.676944231423,1325.676944231423,1.0001984949553875,0.00037712026279616243
1325.6838888088573,1325.6838888088573,0.9998275808229986,0.0003771946520097868
1325.6908333863846,1325.6908333863846,0.9999684458992805,0.0003773423357251144
1325.697777963959,1325.697777963959,1.0004609899752255,0.0003774475158841511
1325.7047225416145,1325.7047225416145,0.9996607885525638,0.0003775018930280998
1325.7116671193628,1325.7116671193628,0.999766299918671,0.00037761578929285393
1325.7186116971814,1325.7186116971814,1.000081650042522,0.000377791262878835
1325.725556275093,1325.725556275093,0.9998201411250454,0.0003779088138535031
1325.732500853051,1325.732500853051,1.000405729050961,0.00037813747699218974
1325.7394454311027,1325.7394454311027,0.9998959693259032,0.0003782383574119739
1325.7463900092348,1325.7463900092348,0.999897155917596,0.00037838186779682063
1325.753334587403,1325.753334587403,1.0003387918803495,0.0003786488481965195
1325.7602791656639,1325.7602791656639,0.9992550239429857,0.0003787222145146545
1325.7672237439826,1325.7672237439826,1.0006973796458998,0.0003790875026896262
1325.7741683223485,1325.7741683223485,1.000101006881517,0.00037921220822804063
1325.7811129008303,1325.7811129008303,0.999798808985142,0.0003793252061986416
1325.7880574793592,1325.7880574793592,0.9998215562236915,0.0003795177805929133
1325.7950020579344,1325.7950020579344,1.000389317335486,0.00037973376243088377
1325.8019466365795,1325.8019466365795,0.9997696606813229,0.00037974358743612176
1325.8088912152946,1325.8088912152946,1.0001501944238582,0.0003799411780896214
1325.8158357940788,1325.8158357940788,0.9998746035680768,0.0003800213646791684
1325.822780372922,1325.822780372922,0.9997629130372495,0.0003800879214450914
1325.8297249518114,1325.8297249518114,0.9999199643199381,0.0003802056693808058
1325.8366695307825,1325.8366695307825,1.0003513600183649,0.00038034372025564777
1325.8436141097886,1325.8436141097886,0.9998656691641781,0.00038025971956957746
1325.850558688852,1325.850558688852,0.9996293419527651,0.00038029742223057893
1325.8575032679867,1325.8575032679867,1.000375688627535,0.0003802822898042648
1325.864447847167,1325.864447847167,1.0001289038575338,0.0003802391384867857
1325.8713924263943,1325.8713924263943,1.0002087308554066,0.0003801223025070746
1325.8783370056913,1325.8783370056913,0.9999958619823722,0.0003799987116702982
1325.885281585023,1325.885281585023,0.9998737369104285,0.0003799049278223465
1325.8922261644245,1325.8922261644245,0.9996469538899427,0.00037976450272668265
1325.8991707438731,1325.8991707438731,0.999957132897771,0.00037974136976979633
1325.9061153233677,1325.9061153233677,1.0001527560061532,0.00037968266673405073
1325.9130599029327,1325.9130599029327,1.000589169096585,0.0003796762091800047
1325.9200044825204,1325.9200044825204,0.9998766794884656,0.0003795242239502692
1325.9269490621552,1325.9269490621552,0.9996093241653219,0.0003794670352422072
1325.9338936418594,1325.9338936418594,0.9999278638883122,0.00037952946874820803
1325.940838221599,1325.940838221599,0.9998704680245936,0.0003794543947730506
1325.9477828013733,1325.9477828013733,0.9997890027181789,0.0003794249012516204
1325.9547273812175,1325.9547273812175,1.0000811336224276,0.0003794706994152198
1325.9625053106822,1325.9625053106822,1.000481538989866,0.0003795264631568626
1325.9700054569862,1325.9700054569862,1.0001827774017253,0.00037950805426926505
1325.97695003697,1325.97695003697,0.9999300674434141,0.0003795255559312792
1325.9838946169884,1325.9838946169884,0.9999401946706742,0.00037956911116248163
1325.9908391970305,1325.9908391970305,0.9997974932421734,0.00037957748963313544
1325.997783777131,1325.997783777131,0.9997659881631286,0.0003796557479870147
1326.0047283572774,1326.0047283572774,0.9997114573361159,0.00037970770483519484
1326.0116729374479,1326.0116729374479,1.0001405879140937,0.00037992674629999516
1326.0186175176646,1326.0186175176646,1.0005556900147181,0.0003801764118731727
1326.0255620979278,1326.0255620979278,0.9996527564715183,0.00038022900585816166
1326.0325066782375,1326.0325066782375,1.0002293846544572,0.0003804042650017519
1326.0394512585585,1326.0394512585585,1.0006681795007863,0.00038043458370802584
1326.0463958389153,1326.0463958389153,0.9994240372050467,0.00038029704905018214
1326.0533404193413,1326.0533404193413,0.9997447066920084,0.00038042960042165705
1326.0602849997674,1326.0602849997674,0.9998149152751681,0.00038051192046299954
1326.0672295802638,1326.0672295802638,1.0000471753499593,0.00038055056166312146
1326.0741741607592,1326.0741741607592,1.0004131678140438,0.0003807379226689835
1326.0811187413026,1326.0811187413026,0.9997407038170723,0.00038070559006240704
1326.0880633218912,1326.0880633218912,0.9998206157226676,0.00038073286164618854
1326.095007902504,1326.095007902504,1.000202585388331,0.00038088655936600505
1326.1019524831513,1326.1019524831513,1.0004036798825078,0.0003809251592101241
1326.1088970638218,1326.1088970638218,1.0006111479768134,0.00038101888375394156
1326.1158416445392,1326.1158416445392,0.9997530396209436,0.0003809244320483099
1326.122786225291,1326.122786225291,0.9998518443182693,0.0003809586689987305
1326.1297308060437,1326.1297308060437,0.9995965445630274,0.00038101448492176214
1326.136675386842,1326.136675386842,0.9999285175429231,0.00038110090367873573
1326.143619967676,1326.143619967676,1.000636952816708,0.0003812372373445447
1326.1505645485327,1326.1505645485327,0.9998628461674762,0.00038114474187669173
1326.1575091294128,1326.1575091294128,1.0000617756409764,0.0003811908240759302
1326.1644537103398,1326.1644537103398,1.0002298232366584,0.0003812629391219601
1326.171398291278,1326.171398291278,0.9999486045538728,0.00038125288407725737
1326.1783428722515,1326.1783428722515,1.0001494583905717,0.00038125248045326794
1326.185287453248,1326.185287453248,0.9996328524626478,0.00038123931394471974
1326.1922320342676,1326.1922320342676,0.9996852824951439,0.0003812322588410796
1326.1991766153114,1326.1991766153114,0.9997401312533037,0.00038128601776083175
1326.2061211964008,1326.2061211964008,1.0000548997344527,0.0003813768796654858
1326.2130657775026,1326.2130657775026,1.0005043288245108,0.0003814298205316555
1326.2200103586388,1326.2200103586388,0.9997047911670827,0.00038129387476569076
1326.226954939775,1326.226954939775,1.0005885943651207,0.0003814396576656607
1326.2338995209461,1326.2338995209461,0.9996209444159383,0.0003812965343279703
1326.2408441021403,1326.2408441021403,0.9999944924292862,0.0003813422652081868
1326.2477886833706,1326.2477886833706,0.9995697818229029,0.0003812893873982131
1326.254733264611,1326.254733264611,1.0001703544149263,0.00038140122108536737
1326.261677845876,1326.261677845876,1.0001095040914847,0.0003814556617684536
1326.2686224271633,1326.2686224271633,0.9998131181544181,0.0003814202816877281
1326.2755670084741,1326.2755670084741,1.0002176016384754,0.00038149580151403736
1326.2825115898088,1326.2825115898088,1.000719357918356,0.0003815673103759466
1326.2894561711428,1326.2894561711428,1.0001800056387853,0.0003815204619533471
1326.2964007525352,1326.2964007525352,1.0000015682884196,0.0003815293762475068
1326.3033453339158,1326.3033453339158,0.9995910580818077,0.0003814695354585
1326.3102899153316,1326.3102899153316,0.9994469035018465,0.0003815019124913259
1326.3172344967593,1326.3172344967593,0.9994231383737733,0.0003815118720089768
1326.3241790782095,1326.3241790782095,1.0004110258899626,0.00038169904285645405
1326.3311236596842,1326.3311236596842,0.999637315890755,0.00038169365507958054
1326.3380682411694,1326.3380682411694,1.000228354909733,0.00038182757712421723
1326.345568389185,1326.345568389185,1.000250093157202,0.00038193116458892963
1326.3547352368137,1326.3547352368137,1.0001246736921823,0.00038199361752155566
1326.3616798183575,1326.3616798183575,1.0003233125753836,0.0003820756333564762
1326.3686243999248,1326.3686243999248,1.0003953021518726,0.000382124076893223
1326.3755689814916,1326.3755689814916,0.9999476975315158,0.00038216975224636
1326.382513563117,1326.382513563117,1.0001428633972993,0.00038223720637242024
1326.3894581447073,1326.3894581447073,0.9995016437029524,0.00038225052651366296
1326.396402726356,1326.396402726356,0.9995823452438524,0.0003823870206547117
1326.4033473079926,1326.4033473079926,0.9998806747304796,0.00038252884818354085
1326.4102918896533,1326.4102918896533,1.0002272509654069,0.0003826767738707135
1326.417236471325,1326.417236471325,1.000599440370775,0.0003828287685960841
1326.4241810530082,1326.4241810530082,1.0001463771210723,0.00038279277302002914
1326.431125634715,1326.431125634715,1.0004651934969258,0.00038297222412534543
1326.4380702164333,1326.4380702164333,0.9999946741099169,0.00038297671878855313
1326.4450147981752,1326.4450147981752,1.0001644209181944,0.00038302060377246115
1326.4519593799168,1326.4519593799168,0.9998346229703644,0.0003830464240320679
1326.4589039616817,1326.4589039616817,1.0002438585604831,0.00038319399366212983
1326.4658485434466,1326.4658485434466,0.999127744262576,0.0003830850720406618
1326.472793125235,1326.472793125235,1.0000370405155257,0.0003833525220043397
1326.4797377070352,1326.4797377070352,1.000510128525248,0.000383421949607295
1326.4866822888348,1326.4866822888348,1.000307550255895,0.0003834526673628704
1326.4936268706583,1326.4936268706583,0.999907691456737,0.00038348646659283695
1326.5005714525043,1326.5005714525043,0.9998584915608987,0.0003834599509905221
1326.5075160343392,1326.5075160343392,1.0002701061969161,0.0003836188673907441
1326.514460616209,1326.514460616209,0.9998034872443451,0.0003837491277991512
1326.5214051980672,1326.5214051980672,0.9996424509396178,0.00038376665365429856
1326.5283497799487,1326.5283497799487,1.0002495772343167,0.00038399714878864326
1326.5352943618414,1326.5352943618414,0.9996521173941082,0.0003840710653959084
1326.5422389437579,1326.5422389437579,1.000568492626408,0.0003842785757951474
1326.5491835256742,1326.5491835256742,0.9998823977195622,0.0003843657817373679
1326.5561281075904,1326.5561281075904,1.0004094124661917,0.00038451532991355225
1326.5630726895065,1326.5630726895065,0.9995428427394728,0.00038434680775838593
1326.5700172714346,1326.5700172714346,0.9995998411195183,0.0003844588446467949
1326.576961853398,1326.576961853398,0.9997158675886609,0.000384480509808451
1326.5839064353604,1326.5839064353604,1.0003500704334563,0.00038461246545284965
1326.5908510173235,1326.5908510173235,1.000502582004611,0.00038474843788871744
1326.597795599298,1326.597795599298,0.99939249571823,0.00038464242603570154
1326.6047401812843,1326.6047401812843,1.000378719562137,0.00038481244280873727
1326.611684763282,1326.611684763282,0.999796741274791,0.00038483890190568027
1326.6186293452797,1326.6186293452797,1.0003859692777244,0.0003849627121539206
1326.6255739273008,1326.6255739273008,1.0002062919374146,0.0003849861298855175
1326.63251850931,1326.63251850931,0.9999858198375577,0.0003849353269512933
1326.6394630913314,1326.6394630913314,0.9997406727369078,0.0003849078620978693
1326.6464076733641,1326.6464076733641,0.9999761515165776,0.0003848817165693369
1326.6533522554084,1326.6533522554084,0.9999120967018597,0.00038498078722678424
1326.660296837453,1326.660296837453,0.9998105738789906,0.0003848819098110522
1326.6672414195205,1326.6672414195205,0.9992690766918526,0.0003847332680762611
1326.6741860015768,1326.6741860015768,1.0005252664465278,0.00038491300761764113
1326.6811305836443,1326.6811305836443,1.0003760760928118,0.0003847775078039888
1326.68918629883,1326.68918629883,1.000575070216219,0.00038482944010053723
1326.6964086642092,1326.6964086642092,1.000550709709151,0.00038474931632931754
1326.7033532462885,1326.7033532462885,0.9997227835978079,0.0003845460160831123
1326.710853394968,1326.710853394968,0.9991137405835697,0.0003843725908034536
1326.718631326912,1326.718631326912,0.9996948511256531,0.0003844399063243882
1326.7255759090028,1326.7255759090028,1.000322992335174,0.0003844542201361284
1326.7325204911172,1326.7325204911172,1.000079434582688,0.0003843868416080848
1326.7394650732433,1326.7394650732433,0.9997801668201086,0.00038425356608764647
1326.746409655357,1326.746409655357,0.9999397984223457,0.0003842513151924298
1326.7533542374829,1326.7533542374829,0.9993362162624642,0.00038418176736646967
1326.7602988196206,1326.7602988196206,1.0005527909848966,0.00038422590561951544
1326.767243401758,1326.767243401758,1.0007206710956251,0.0003842911415832067
1326.7741879838954,1326.7741879838954,1.0003519261548024,0.00038412825153759226
1326.781132566033,1326.781132566033,0.9996286188981468,0.0003841616045353448
1326.788077148182,1326.788077148182,0.9998908226111187,0.0003840932564284816
1326.7950217303428,1326.7950217303428,0.9998749714452171,0.0003841821114981642
1326.8019663124924,1326.8019663124924,1.0001282632447237,0.00038427597197421645
1326.8089108946529,1326.8089108946529,0.9997213099181026,0.0003842364522607032
1326.8158554768133,1326.8158554768133,0.9998063247507201,0.0003842426993894195
1326.8228000589977,1326.8228000589977,1.0002901773371402,0.0003843558247621952
1326.8297446411466,1326.8297446411466,0.9997330968488839,0.00038430457403818274
1326.8366892233312,1326.8366892233312,1.0002055811537882,0.00038438105476142667
1326.8436338055035,1326.8436338055035,0.9998205135390628,0.0003842754681253697
1326.8505783876874,1326.8505783876874,0.9999445913427294,0.0003842517047369353
1326.8575229698597,1326.8575229698597,1.000651674482901,0.00038435492159201505
1326.8644675520675,1326.8644675520675,0.9998450287463447,0.00038420229233253594
1326.87141213424,1326.87141213424,0.9996512671247864,0.00038400024272296863
1326.8783567164235,1326.8783567164235,0.9999284174523286,0.00038390603364695913
1326.8853012986315,1326.8853012986315,1.0005868519276997,0.00038391552490501293
1326.8922458808383,1326.8922458808383,1.000091157145087,0.0003837727833278598
1326.8991904630225,1326.8991904630225,0.9995687718707759,0.0003834839316723277
1326.906135045195,1326.906135045195,1.0001158635162573,0.00038343803204655784
1326.9130796274026,1326.9130796274026,0.9996511456022864,0.00038312460704242635
1326.9200242096097,1326.9200242096097,1.0000102833057887,0.00038305851937836543
1326.9269687918172,1326.9269687918172,0.9997239557776192,0.00038281716125124205
1326.9339133740245,1326.9339133740245,1.0002487118562842,0.0003827428535658193
1326.9408579562314,1326.9408579562314,1.0002432344409553,0.0003825294067980122
1326.9478025384392,1326.9478025384392,0.9999943210331491,0.000382350444755433
1326.9547471206465,1326.9547471206465,0.9999282577185362,0.0003821567041605091
1326.9616917028538,1326.9616917028538,0.9996341972936132,0.0003820065330777451
1326.9686362850614,1326.9686362850614,1.00035857271302,0.00038193532387636753
1326.9755808672683,1326.9755808672683,1.0001025156149423,0.00038181045051110374
1326.982525449511,1326.982525449511,1.0001437586582633,0.00038167565614541127
1326.9894700317413,1326.9894700317413,1.0000692576982195,0.0003816187253937588
1326.9964146139491,1326.9964146139491,1.0002284367406244,0.0003815681703996558
1327.003359196156,1327.003359196156,0.9998432749987863,0.0003815135770168222
1327.0103037783636,1327.0103037783636,1.0003292194207978,0.0003815557645088798
1327.0172483605709,1327.0172483605709,0.9996205882918503,0.00038141672100330766
1327.0241929427782,1327.0241929427782,0.9999877147462775,0.00038145138831388153
1327.0311375250208,1327.0311375250208,1.000006345016423,0.0003815057214399011
1327.0380821072508,1327.0380821072508,1.0003371542927526,0.0003815553037281445
1327.0450266894586,1327.0450266894586,0.9995780961352165,0.00038146673558631035
1327.0519712716657,1327.0519712716657,1.0002534589493317,0.00038160361501793117
1327.0597492037384,1327.0597492037384,1.0003039302255778,0.00038159296829854826
