time,time,flux,flux_err
1325.3005294412978,1325.3005294412978,0.9999112143428412,0.00022740780106574946
1325.308862910726,1325.308862910726,0.9999857117292125,0.0002275427105589484
1325.3165019244952,1325.3165019244952,1.0000829690212283,0.00020774946868592852
1325.3234464825348,1325.3234464825348,1.0002822934489528,0.00020778063303769227
1325.330391040667,1325.330391040667,0.9999493609031533,0.00020777861677746763
1325.33733559887,1325.33733559887,0.9998615583330015,0.00020779724524481986
1325.3442801571657,1325.3442801571657,1.000004923268016,0.0002078303351202127
1325.3512247155077,1325.3512247155077,0.9998973102283617,0.00020783748346631415
1325.3581692739663,1325.3581692739663,1.0003339341217148,0.00020790202621958506
1325.3651138324717,1325.3651138324717,0.9998392855425848,0.00020786827652728634
1325.3720583910933,1325.3720583910933,0.9998617673036584,0.00020787913451621322
1325.3790029497382,1325.3790029497382,0.9999138785768276,0.00020789920478065117
1325.385947508453,1325.385947508453,0.9999560730132437,0.00020790562515424945
1325.3928920672606,1325.3928920672606,1.0002330465773874,0.00020795248588664832
1325.3998366261148,1325.3998366261148,1.0000779360828038,0.0002079455078137859
1325.4067811850625,1325.4067811850625,1.0000398257370111,0.00020793812188852693
1325.4137257440796,1325.4137257440796,1.000053375414618,0.00020793530825400264
1325.4206703031673,1325.4206703031673,0.9997946379265089,0.00020792655426259696
1325.427614862301,1325.427614862301,1.0000501573885168,0.00020797695398795443
1325.4345594215276,1325.4345594215276,0.9998899625650409,0.00020796696735133016
1325.4415039807784,1325.4415039807784,0.9997889534922564,0.0002079524100027039
1325.448448540145,1325.448448540145,1.000013156840896,0.00020798877938238417
1325.4553930995348,1325.4553930995348,1.0002561383433899,0.00020802752408998265
1325.4623376589946,1325.4623376589946,1.000024199500558,0.0002080067483758942
1325.4692822185007,1325.4692822185007,1.0002563388408958,0.00020802069621043417
1325.4762267781239,1325.4762267781239,0.9998654499804186,0.0002079954937268083
1325.4831713377694,1325.4831713377694,0.9999460381368989,0.0002080359483177967
1325.4901158974856,1325.4901158974856,0.9998029756947483,0.00020801564648125544
1325.4970604572482,1325.4970604572482,1.000137852671564,0.00020807250537167822
1325.504005017057,1325.504005017057,0.9999010320203794,0.00020804250409309214
1325.5109495769593,1325.5109495769593,1.0000947474528394,0.00020809416684054068
1325.5178941368845,1325.5178941368845,0.9999973757254581,0.0002081075146695038
1325.5248386968801,1325.5248386968801,0.9997785997661541,0.0002080840728970446
1325.5317832569683,1325.5317832569683,1.000147430641986,0.00020814530477490976
1325.538727817057,1325.538727817057,0.9998107836396917,0.0002081325334066484
1325.5456723771683,1325.5456723771683,0.9999499916541911,0.00020813648812056585
1325.5526169373734,1325.5526169373734,1.0000833909074847,0.0002081809839690823
1325.559561497625,1325.559561497625,1.0002848170110972,0.00020818981817031466
1325.566506057946,1325.566506057946,1.0001865897093842,0.00020821429373895812
1325.5734506182905,1325.5734506182905,0.9999776492297137,0.0002082040874872624
1325.5803951787052,1325.5803951787052,0.9998129459280193,0.00020820804689438061
1325.5873397391429,1325.5873397391429,0.9996198446523108,0.00020818165638240502
1325.5942842996733,1325.5942842996733,1.0000676218161857,0.00020822874411018598
1325.601228860204,1325.601228860204,0.9999566090846006,0.00020823298664036132
1325.6081734208049,1325.6081734208049,1.000280927355852,0.00020826061018356032
1325.6151179814055,1325.6151179814055,0.9998727768386857,0.00020820073084928852
1325.6220625421226,1325.6220625421226,1.0001980855851038,0.0002082684516419536
1325.629007102863,1325.629007102863,1.0001826843727997,0.00020826498697437554
1325.6359516636267,1325.6359516636267,1.0000430232207758,0.00020823356178179217
1325.6428962244602,1325.6428962244602,0.9995047078315948,0.00020821164510413035
1325.6498407852935,1325.6498407852935,0.9997400882223294,0.0002082295237343955
1325.656785346197,1325.656785346197,1.000001669721351,0.0002082562248009638
1325.6637299071233,1325.6637299071233,0.9998640760244271,0.0002082487370413123
1325.6706744681433,1325.6706744681433,1.0001237412967847,0.00020825129399772608
1325.6776190291396,1325.6776190291396,1.0002047422315468,0.00020826423308931185
1325.6845635902062,1325.6845635902062,0.9997744747791284,0.00020823353853979682
1325.691508151296,1325.691508151296,1.0003612832791748,0.00020828180144748617
1325.6984527124318,1325.6984527124318,1.0001783699268747,0.0002082864218052489
1325.7053972736148,1325.7053972736148,0.9997387971118619,0.00020825278216576797
1325.712341834774,1325.712341834774,0.9999692921008776,0.0002082971086095722
1325.7192863960033,1325.7192863960033,0.9999923101820192,0.0002083005180306114
1325.7262309573257,1325.7262309573257,0.9997829242884085,0.00020829677765457183
1325.7331755186246,1325.7331755186246,1.0001780122811676,0.0002083315416099568
1325.740120079971,1325.740120079971,0.9994353204136726,0.00020829791646852745
1325.7470646413396,1325.7470646413396,1.0005301494723193,0.00020840832607475537
1325.7540092027782,1325.7540092027782,0.9997680608104582,0.00020835065438474498
1325.7609537642174,1325.7609537642174,0.9997380535309313,0.00020836403497276478
1325.7678983256794,1325.7678983256794,1.000131230398098,0.0002084043399701877
1325.7748428871882,1325.7748428871882,0.9999937428920275,0.00020840800004581853
1325.7817874486968,1325.7817874486968,1.0000271324123737,0.00020841269750281353
1325.788732010299,1325.788732010299,0.9999457366086896,0.00020841710913079985
1325.795676571877,1325.795676571877,1.0000557299717148,0.00020845543477826062
1325.8026211335255,1325.8026211335255,1.0000194181101223,0.00020846859106517647
1325.809565695151,1325.809565695151,1.0001224373218771,0.00020847760503361649
1325.8165102568455,1325.8165102568455,1.0000096703406007,0.0002084757584117356
1325.823454818541,1325.823454818541,1.0000254625768794,0.0002085090301723592
1325.8303993802588,1325.8303993802588,0.9999141806484392,0.0002085122883709395
1325.8373439420468,1325.8373439420468,0.9998141632759291,0.0002084842903857231
1325.844288503789,1325.844288503789,1.0000553760383217,0.0002085394109814034
1325.8512330656229,1325.8512330656229,1.000208793252504,0.00020853674730952838
1325.8581776274577,1325.8581776274577,1.0000823399414187,0.00020853206309448497
1325.8651221892926,1325.8651221892926,0.9998359065477519,0.00020852436181188362
1325.872066751197,1325.872066751197,0.999935470385034,0.0002085341006824489
1325.8790113130785,1325.8790113130785,1.0000067204602452,0.0002085209111219001
1325.8859558750291,1325.8859558750291,0.9998800565091969,0.00020850114211384214
1325.8929004369807,1325.8929004369807,0.9999421512699905,0.0002084862181850065
1325.899844998955,1325.899844998955,0.9998530063430987,0.00020849263324380484
1325.9067895609523,1325.9067895609523,1.000212819164704,0.00020852055078573597
1325.9137341229498,1325.9137341229498,1.0004624693020492,0.00020853308534416753
1325.9206786849707,1325.9206786849707,0.9999119812191252,0.0002084675865122681
1325.9276232470386,1325.9276232470386,1.0001042842401353,0.00020852634362752116
1325.934567809129,1325.934567809129,0.9998287625908645,0.00020847057199290935
1325.941512371197,1325.941512371197,0.9999724851010825,0.0002085036953033624
1325.9484569333108,1325.9484569333108,0.9999186175723918,0.00020849566490764812
1325.955401495448,1325.955401495448,0.9999315651806393,0.00020850224509735789
1325.962901622579,1325.962901622579,1.0001807486189083,0.00020855869846963978
1325.970679532206,1325.970679532206,0.999841317253648,0.0002085029430236553
1325.9776240943902,1325.9776240943902,0.9999276122244833,0.000208554623206563
1325.9845686565736,1325.9845686565736,0.9998769821925408,0.00020854167724090148
1325.9915132188044,1325.9915132188044,1.0002008144712886,0.00020856455115651545
1325.998457781035,1325.998457781035,0.9999169800330312,0.00020856255082231652
1326.0054023432886,1326.0054023432886,1.0000328876577957,0.00020857338334281814
1326.012346905566,1326.012346905566,1.000188964744792,0.00020861139567775514
1326.0192914678196,1326.0192914678196,0.9998796984203497,0.0002085750130608617
1326.02623603012,1326.02623603012,0.9999102623574455,0.00020861281417071772
1326.0331805924438,1326.0331805924438,1.0000825917090777,0.00020864708541607882
1326.0401251547435,1326.0401251547435,0.9999150579238592,0.00020862029932931027
1326.0470697170674,1326.0470697170674,1.0000354128226832,0.00020864553893346953
1326.0540142794375,1326.0540142794375,1.0000931061686011,0.00020864605054162454
1326.0609588417612,1326.0609588417612,1.000093381331404,0.00020867098899019147
1326.067903404178,1326.067903404178,0.9999715829657851,0.00020868945533985867
1326.0748479665476,1326.0748479665476,0.999622328842082,0.0002086302733951917
1326.081792528895,1326.081792528895,1.0001475844541923,0.00020869330592152902
1326.0887370913117,1326.0887370913117,1.00000810386024,0.00020868518443505616
1326.0956816537287,1326.0956816537287,1.0003582507376632,0.00020873740304483992
1326.1026262161454,1326.1026262161454,0.9999000794362238,0.00020870835756390147
1326.1095707785853,1326.1095707785853,0.9996632669442448,0.00020869248514089213
1326.1165153410952,1326.1165153410952,0.9999023909990938,0.00020873118781848172
1326.1234599035115,1326.1234599035115,1.0002005750941525,0.0002087553730983681
1326.1304044659519,1326.1304044659519,1.0001382606777467,0.00020875376030296818
1326.1373490284618,1326.1373490284618,1.0001960270751027,0.00020875590421309546
1326.144293590925,1326.144293590925,1.0002510641166302,0.0002087903859107673
1326.1512381534117,1326.1512381534117,0.9999354457154404,0.00020874474400217206
1326.1581827159212,1326.1581827159212,0.9996679189900426,0.00020874238035340327
1326.1651272784084,1326.1651272784084,1.000155645321471,0.000208785849246216
1326.1720718409176,1326.1720718409176,0.9999042841746633,0.00020878321679319113
1326.1790164034278,1326.1790164034278,0.9998647315172459,0.0002087556543954292
1326.185960965961,1326.185960965961,1.0002903822087323,0.00020880464970523697
1326.1929055284938,1326.1929055284938,1.0002587157376719,0.0002087996375590471
1326.1998500910272,1326.1998500910272,0.999890539903576,0.00020878715060808074
1326.2067946535835,1326.2067946535835,0.9997218051852809,0.00020876846946464518
1326.2137392161405,1326.2137392161405,1.0000909392049777,0.00020881050171226096
1326.2206837786732,1326.2206837786732,1.0000517789834213,0.00020878298599607019
1326.2276283412298,1326.2276283412298,0.999738644085695,0.00020876613722286343
1326.234572903786,1326.234572903786,1.0000542229832565,0.00020881826432038835
1326.2415174663656,1326.2415174663656,1.0001504544525963,0.00020877989709589098
1326.2484620289456,1326.2484620289456,0.9999902020396314,0.0002087789055088463
1326.255406591502,1326.255406591502,1.000127564613787,0.00020883834923480366
1326.2623511541053,1326.2623511541053,0.9999128527132942,0.00020878671629977625
1326.2692957166616,1326.2692957166616,1.0000166506713177,0.0002088065740653775
1326.2762402792641,1326.2762402792641,1.0002210739662845,0.0002088305336306296
1326.2831848418443,1326.2831848418443,0.9998228063438663,0.00020878149942491674
1326.2901294044473,1326.2901294044473,0.9999252610071713,0.00020881847150866546
1326.297073967027,1326.297073967027,0.9999860507484462,0.00020882735254157316
1326.3040185296531,1326.3040185296531,1.0000459079739712,0.00020882797431523415
1326.3109630922097,1326.3109630922097,0.9999642361060689,0.0002088295637169002
1326.317907654836,1326.317907654836,0.9999015414760699,0.00020884505733967628
1326.3248522174385,1326.3248522174385,0.9999614188987405,0.00020886300502415345
1326.3317967800422,1326.3317967800422,1.000065971919907,0.00020886318094066888
1326.3387413426215,1326.3387413426215,1.0001078133187051,0.00020888676491558552
1326.3456859052249,1326.3456859052249,1.0001190928829313,0.00020888945039644353
1326.355408292888,1326.355408292888,0.9997959333546504,0.00020885048553497343
1326.3623528554904,1326.3623528554904,1.0000644477060485,0.0002089226875243083
1326.369297418117,1326.369297418117,0.9999062270187448,0.0002089089053435138
1326.376241980673,1326.376241980673,1.0000652459544743,0.00020893374221106926
1326.3831865432999,1326.3831865432999,1.00026064421353,0.00020896730489969594
1326.3901311059026,1326.3901311059026,0.9998213086992085,0.00020892141224383948
1326.3970756685055,1326.3970756685055,1.000059735505575,0.00020896714376155903
1326.4040202311319,1326.4040202311319,0.9999749542596543,0.0002089641325865357
1326.4109647936884,1326.4109647936884,0.9997181841067816,0.0002089318331995621
1326.4179093563148,1326.4179093563148,0.999831622371766,0.000208966006731761
1326.4248539189177,1326.4248539189177,1.0000034473263255,0.00020897915032018887
1326.4317984814975,1326.4317984814975,1.0004300779393895,0.00020903927678089833
1326.4387430441002,1326.4387430441002,1.0000836629598893,0.00020902046152428106
1326.4456876066802,1326.4456876066802,0.9999222368996842,0.00020900717103764202
1326.4526321692833,1326.4526321692833,1.0000611128717876,0.00020904161967312621
1326.4595767318629,1326.4595767318629,1.0001577485867266,0.00020906670508392982
1326.4665212944424,1326.4665212944424,0.999937029237012,0.00020902227816862545
1326.4734658570223,1326.4734658570223,0.999756972760621,0.0002090411272112845
1326.480410419602,1326.480410419602,1.0000065060231864,0.0002090824585162767
1326.4873549821584,1326.4873549821584,1.0000254982798868,0.00020908956890143706
1326.4942995447614,1326.4942995447614,0.999997557260811,0.00020909117589626856
1326.5012441073181,1326.5012441073181,0.999858484544399,0.00020910785560317096
1326.5081886698742,1326.5081886698742,0.9999792928508662,0.00020911648910123298
1326.5151332324308,1326.5151332324308,0.9998886090435514,0.000209106453191421
1326.5220777949871,1326.5220777949871,1.0003888107288563,0.00020917551577000882
1326.529022357544,1326.529022357544,0.9997375113128182,0.00020915349445073972
1326.5359669200768,1326.5359669200768,1.000256037840688,0.0002092097872157926
1326.5429114826334,1326.5429114826334,0.9997964156390701,0.00020916407559355018
1326.5498560451665,1326.5498560451665,1.0001294605979598,0.000209235855046957
1326.5568006076996,1326.5568006076996,0.9998970272511711,0.00020922994646231484
1326.5637451702096,1326.5637451702096,0.9999228486268228,0.00020924717301164705
1326.5706897327425,1326.5706897327425,1.0000339642786975,0.0002092175778762233
1326.5776342952527,1326.5776342952527,1.0000769852435853,0.00020923940206721368
1326.5845788577622,1326.5845788577622,0.9997207561383312,0.00020923828701558262
1326.5915234202726,1326.5915234202726,0.999975262625789,0.00020926768272801175
1326.5984679827588,1326.5984679827588,1.0000379936891164,0.00020928197344718619
1326.6054125452454,1326.6054125452454,1.0001557204665916,0.00020929978122564142
1326.6123571077555,1326.6123571077555,0.9997425446925752,0.00020927489044136335
1326.6193016701952,1326.6193016701952,1.0002362912077511,0.00020933985942981343
1326.6262462327052,1326.6262462327052,0.9998882395237493,0.0002092979015425241
1326.6331907951453,1326.6331907951453,0.999853595195025,0.00020929930458838457
1326.6401353575852,1326.6401353575852,0.9998178933229538,0.00020929364086991168
1326.6470799200954,1326.6470799200954,1.0000154520770124,0.00020932734114334928
1326.6540244825119,1326.6540244825119,0.9999967447053624,0.00020929744548709876
1326.6609690449288,1326.6609690449288,1.000346608362858,0.00020934576240549653
1326.6679136073453,1326.6679136073453,0.9998662142516459,0.00020928941238895245
1326.6748581697625,1326.6748581697625,1.0002168615938372,0.00020932349307126934
1326.6818027321788,1326.6818027321788,1.0000204672689876,0.00020924323806529801
1326.6895806420857,1326.6895806420857,0.9998920966818362,0.00020925654062306024
1326.6970807694956,1326.6970807694956,0.9998720014744109,0.00020926877621555996
1326.7040253319124,1326.7040253319124,1.00011683985763,0.00020927482958101019
1326.7112476767097,1326.7112476767097,0.999873849149812,0.00020927636360308202
1326.7193033691133,1326.7193033691133,0.9997949390391987,0.00020923844240441732
1326.7262479314602,1326.7262479314602,1.000137594591686,0.0002092791304973956
1326.7331924938303,1326.7331924938303,1.0001313965240821,0.0002092615011156258
1326.7401370561306,1326.7401370561306,0.9998647436785975,0.00020923178103519224
1326.7470816185007,1326.7470816185007,1.0004482118444398,0.0002092825637485212
1326.754026180824,1326.754026180824,0.9998383846900467,0.0002092488686298306
1326.760970743148,1326.760970743148,0.9998025910819447,0.0002092358009163328
1326.7679153054478,1326.7679153054478,1.0001786683814198,0.00020926950831084377
1326.7748598677251,1326.7748598677251,0.9997607326203741,0.00020922343064354326
1326.7818044300254,1326.7818044300254,0.999812963717534,0.0002092313225383524
1326.7887489923023,1326.7887489923023,1.0002797568134505,0.00020930025545767974
1326.7956935545799,1326.7956935545799,1.0001026048679855,0.00020928830091033606
1326.8026381168336,1326.8026381168336,0.9997579084179291,0.0002092587249246864
1326.8095826790873,1326.8095826790873,1.0000928969248042,0.00020929684688885961
1326.8165272413173,1326.8165272413173,0.9999019364575957,0.00020927153556361553
1326.823471803548,1326.823471803548,0.9999359420302024,0.00020926215942688163
1326.8304163657554,1326.8304163657554,1.0001146681953437,0.00020927296616262501
1326.8373609279859,1326.8373609279859,1.0001538229905251,0.00020928517963920032
1326.8443054901697,1326.8443054901697,1.0000364987447663,0.00020928556384551566
1326.8512500523534,1326.8512500523534,1.0001539057855862,0.00020930195173036423
1326.8581946145373,1326.8581946145373,0.999884403185205,0.00020928753248050688
1326.8651391766984,1326.8651391766984,0.9998437565366197,0.0002092686012720832
1326.872083738859,1326.872083738859,1.0002076345188287,0.00020929936689449022
1326.8790283009962,1326.8790283009962,0.9996367305227805,0.0002092557853060506
1326.8859728631335,1326.8859728631335,1.0002744691764334,0.00020926105603459298
1326.8929174252478,1326.8929174252478,0.9998530437173503,0.00020921822490314496
1326.8998619873616,1326.8998619873616,0.9999490262760782,0.00020921605143931054
1326.9068065494525,1326.9068065494525,1.0001906400496254,0.00020924055768143155
1326.9137511115432,1326.9137511115432,1.0000222331999082,0.00020915803388676853
1326.920695673611,1326.920695673611,0.9998382341897987,0.00020916987452233377
1326.9276402356782,1326.9276402356782,1.0000166083934945,0.000209147271803122
1326.934584797746,1326.934584797746,0.9999032384380021,0.00020909796242708176
1326.9415293597665,1326.9415293597665,1.0000476088934582,0.0002090912849092884
1326.9484739218108,1326.9484739218108,1.0000476051081921,0.00020909191049573302
1326.9554184838084,1326.9554184838084,0.9999618647494639,0.00020908195333633111
1326.9623630458295,1326.9623630458295,0.9999520475383308,0.00020905199167546817
1326.9693076078042,1326.9693076078042,1.0002008714183819,0.00020907077242410726
1326.976252169778,1326.976252169778,0.9997913700647111,0.00020899861608411974
1326.9831967317295,1326.9831967317295,0.9999757784177415,0.0002090125618909248
1326.9901412937038,1326.9901412937038,1.0001792196371602,0.00020900533434643954
1326.9970858556321,1326.9970858556321,1.0001411070227986,0.00020897066397294298
1327.0040304175593,1327.0040304175593,0.9998035035073739,0.00020897938815249702
1327.010974979464,1327.010974979464,0.9999496746578471,0.0002090005124415791
1327.0179195413916,1327.0179195413916,1.0000865837932877,0.00020902896220467704
1327.0248641032263,1327.0248641032263,0.9999705544679168,0.00020899737549066568
1327.0318086651773,1327.0318086651773,1.0000788653117592,0.00020904111895060827
1327.038753227012,1327.038753227012,1.0002269391161516,0.0002090293442006912
1327.045697788847,1327.045697788847,0.999965342549789,0.00020903077516327002
1327.0526423506815,1327.0526423506815,1.0001761828733486,0.00020900639798263602
