time,time,flux,flux_err
1354.1191423055309,1354.1191423055309,1.0000413290172436,0.00017171955112467912
1354.1279388095281,1354.1279388095281,0.9999384285111717,0.0001717042850402845
1354.1355778783843,1354.1355778783843,0.9997397237121888,0.00015674144441539913
1354.1425224860632,1354.1425224860632,0.9997370473238043,0.00015674632349363756
1354.1494670936488,1354.1494670936488,1.0002563328571452,0.000156792996575129
1354.1564117009552,1354.1564117009552,1.0000414035049743,0.00015678239604830955
1354.1633563078888,1354.1633563078888,1.0000782208505523,0.00015679267590628434
1354.1703009148227,1354.1703009148227,1.0001437069253394,0.0001567983808210156
1354.1772455213836,1354.1772455213836,0.9999953013549255,0.00015678998817902158
1354.184190127759,1354.184190127759,0.9997551286294994,0.00015677322908798987
1354.1911347339471,1354.1911347339471,1.000163498518746,0.00015680627786226754
1354.1980793396701,1354.1980793396701,1.000024842726414,0.00015678603468340983
1354.2050239453934,1354.2050239453934,0.9998222394091242,0.00015677479574224826
1354.2119685509301,1354.2119685509301,0.9999479783341473,0.0001567823830138471
1354.218913156094,1354.218913156094,0.9998546459822488,0.0001567812821240418
1354.2258577611653,1354.2258577611653,1.0000917471313284,0.00015678961902049744
1354.2328023658636,1354.2328023658636,0.9998932189686984,0.00015678507557284653
1354.2397469703762,1354.2397469703762,1.0003627849025651,0.00015680550517628057
1354.246691574795,1354.246691574795,1.0000587907963627,0.00015677976244692272
1354.2536361788418,1354.2536361788418,0.9999223113646808,0.00015676664065029033
1354.260580782702,1354.260580782702,0.9999432072886153,0.00015675566259457818
1354.26752538619,1354.26752538619,0.9999800169950326,0.0001567597409768858
1354.2744699895843,1354.2744699895843,0.999928566157339,0.0001567545137477183
1354.2814145929794,1354.2814145929794,1.0000271971482588,0.0001567675248789144
1354.2883591960012,1354.2883591960012,0.999961536428944,0.00015676310848104663
1354.2953037988377,1354.2953037988377,1.000003898925988,0.0001567706417684973
1354.3022484013939,1354.3022484013939,1.0002030372029431,0.00015678674307001997
1354.309193003857,1354.309193003857,1.0002310159007641,0.00015678391736916137
1354.3161376059481,1354.3161376059481,0.999957810836672,0.00015676552155549634
1354.3230822079458,1354.3230822079458,0.9997717631937796,0.00015675024349647
1354.3300268095707,1354.3300268095707,0.9998400071296552,0.00015675669366978413
1354.3369714111961,1354.3369714111961,0.9998865846081652,0.00015675452972576152
1354.3439160123555,1354.3439160123555,1.0000415344617066,0.00015677477086801383
1354.3508606134224,1354.3508606134224,0.9999274707056927,0.0001567710371719355
1354.3578052144883,1354.3578052144883,1.0001064322597035,0.0001567893832304252
1354.3647498152754,1354.3647498152754,1.000174845352884,0.0001567875721882294
1354.3716944157832,1354.3716944157832,1.000133737788182,0.00015677522908476928
1354.3786390161042,1354.3786390161042,0.9998207621816146,0.00015675504522526124
1354.3855836162395,1354.3855836162395,1.0001837549436348,0.00015677950927575998
1354.3925282161883,1354.3925282161883,0.9996920249969072,0.00015675290166277552
1354.3994728158573,1354.3994728158573,0.9999892802607201,0.00015676245670055716
1354.4064174153407,1354.4064174153407,0.9999915443158944,0.00015677118530632198
1354.4133620147309,1354.4133620147309,1.0002162799739933,0.00015678435788904027
1354.4203066138411,1354.4203066138411,0.9999465863783433,0.00015676276778144475
1354.4272512128591,1354.4272512128591,0.9999626984539096,0.00015677143028047276
1354.4341958116897,1354.4341958116897,0.9998134000614884,0.00015675695720430318
1354.4411404100554,1354.4411404100554,0.9999447029652142,0.00015676423324818904
1354.4480850085142,1354.4480850085142,0.9999584656320618,0.00015676550544065074
1354.4550296067866,1354.4550296067866,0.9999858330683598,0.0001567669023777102
1354.4619742046866,1354.4619742046866,1.00018958707181,0.00015677804930473612
1354.4689188025864,1354.4689188025864,0.9997646391140018,0.0001567517563188055
1354.4758634001134,1354.4758634001134,1.00018812546942,0.0001567915316310282
1354.4828079976412,1354.4828079976412,0.9998417445823579,0.00015676515297386842
1354.4897525948888,1354.4897525948888,1.0001095625648548,0.00015677622626746412
1354.4966971919507,1354.4966971919507,1.0001884758446287,0.00015678643907177933
1354.5036417889194,1354.5036417889194,0.9999606325360135,0.00015677245684923602
1354.5105863856083,1354.5105863856083,0.9997707263305291,0.0001567449120924877
1354.5175309822048,1354.5175309822048,0.9999778660823033,0.00015677279699903796
1354.5244755786143,1354.5244755786143,1.0000270711023684,0.00015677247063303863
1354.5314201746514,1354.5314201746514,1.0000077172092106,0.00015677357233062896
1354.538364770689,1354.538364770689,0.9998521079332224,0.00015675559203349158
1354.5453093665396,1354.5453093665396,0.9998446793763186,0.000156757228649195
1354.5522539622045,1354.5522539622045,1.0003557753095267,0.0001567941201714308
1354.5591985576834,1354.5591985576834,0.9999505621373231,0.00015675585736395133
1354.5661431529747,1354.5661431529747,0.9999521482062,0.00015675278107855252
1354.5730877481742,1354.5730877481742,1.0001631041218075,0.00015677613155452966
1354.5800323430935,1354.5800323430935,0.999845528594683,0.00015674608666061212
1354.5869769379203,1354.5869769379203,1.0001650137127738,0.00015676497429521622
1354.593921532561,1354.593921532561,1.0000584504348236,0.0001567679858491933
1354.6008661270148,1354.6008661270148,0.9997681245609348,0.00015674304871557458
1354.6078107213755,1354.6078107213755,0.9998679977480428,0.00015675848250623414
1354.6147553156432,1354.6147553156432,1.0003572922128405,0.00015679464837140507
1354.621699909445,1354.621699909445,0.9999862300125774,0.00015675651423791316
1354.6286445033404,1354.6286445033404,1.0000018375040054,0.00015676129000950358
1354.6355890968632,1354.6355890968632,0.9997813861069111,0.00015674710188042307
1354.6425336903856,1354.6425336903856,0.9998835806340487,0.00015675122652198146
1354.6494782837224,1354.6494782837224,1.0001141188421232,0.00015676178554547182
1354.6564228768723,1354.6564228768723,1.0000284400415134,0.00015677103974893984
1354.6633674699294,1354.6633674699294,0.9997893157563574,0.0001567471797160322
1354.6703120627074,1354.6703120627074,1.0003444243732642,0.00015678425674559108
1354.6772566553914,1354.6772566553914,1.0001082748834833,0.00015677447801815022
1354.68420124789,1354.68420124789,0.9999627600814549,0.0001567629316391345
1354.691145840295,1354.691145840295,0.9997856373140539,0.00015674373948225246
1354.6980904325133,1354.6980904325133,0.999984556602817,0.0001567584251599314
1354.7050350246395,1354.7050350246395,0.9999700697345878,0.00015675800366810643
1354.7119796164857,1354.7119796164857,1.000263771265859,0.00015678648249050836
1354.7189242082388,1354.7189242082388,0.9997780826830203,0.00015673526921715318
1354.725868799899,1354.725868799899,1.0000576799629808,0.00015676682423065456
1354.7328133912793,1354.7328133912793,1.0002070272320152,0.00015677873964818138
1354.7397579825672,1354.7397579825672,0.9998382005410583,0.000156755948251803
1354.7467025736682,1354.7467025736682,0.9999357018418422,0.00015675851449322573
1354.7536471646763,1354.7536471646763,0.9998783081547661,0.00015675507152744056
1354.7605917555913,1354.7605917555913,0.9999577716382216,0.00015675581793139347
1354.7675363462267,1354.7675363462267,1.000164694467408,0.00015677740851353976
1354.7744809367691,1354.7744809367691,1.0000053311685086,0.00015676648076414296
1354.7814255272187,1354.7814255272187,0.999966893112173,0.00015677362818305334
1354.7883701175747,1354.7883701175747,1.0001719334753596,0.00015678316637866385
1354.7953147075582,1354.7953147075582,1.0000925801240381,0.00015677903553380882
1354.8022592975422,1354.8022592975422,0.9998277083573296,0.000156759838467074
1354.8092038874327,1354.8092038874327,1.000081190808632,0.0001567769477954728
1354.8161484769505,1354.8161484769505,0.9998072397933152,0.00015676822643451122
1354.823093066748,1354.823093066748,0.9999628371190568,0.0001567593826092574
1354.8300376559866,1354.8300376559866,1.0001167541711353,0.00015677399374238165
1354.8369822452253,1354.8369822452253,0.9997701774132711,0.00015675579104775975
1354.8439268343707,1354.8439268343707,1.0001670665790514,0.00015679522638741044
1354.85087142333,1354.85087142333,1.0001027254654304,0.00015677858830704785
1354.8578160121956,1354.8578160121956,1.0000463310476497,0.00015677178765719914
1354.8647606008758,1354.8647606008758,0.9998703026654653,0.00015675570691787142
1354.8717051894625,1354.8717051894625,0.9999085850646614,0.0001567532634860059
1354.878649777956,1354.878649777956,1.0001409963043424,0.00015677325695688836
1354.8855943661702,1354.8855943661702,1.000035916125174,0.00015676307955830358
1354.892538954291,1354.892538954291,1.000013426036634,0.00015676888734980854
1354.8994835423189,1354.8994835423189,0.9997340702924566,0.0001567390641568455
1354.906428130161,1354.906428130161,1.0000595837389827,0.00015676678009381547
1354.9133727179092,1354.9133727179092,1.0001382383251702,0.00015676890912070445
1354.9203173055644,1354.9203173055644,1.0000194619697809,0.00015677138894784848
1354.9272618930336,1354.9272618930336,1.0001070239662186,0.00015677675821260887
1354.9342064804096,1354.9342064804096,1.0000764053556621,0.00015676824112098795
1354.9425399849254,1354.9425399849254,1.0000243043966228,0.00015677960063400505
1354.9494845720221,1354.9494845720221,0.999832903451287,0.00015674791430044936
1354.9564291590254,1354.9564291590254,1.0000184472293707,0.00015678320585760507
1354.9633737457493,1354.9633737457493,0.999872911199868,0.00015675722038926992
1354.9703183324739,1354.9703183324739,0.9999125401628634,0.00015676159756367682
1354.9772629189179,1354.9772629189179,1.0000873787334448,0.0001567613740487072
1354.984207505363,1354.984207505363,0.9997195657508318,0.00015676131319350433
1354.9911520916212,1354.9911520916212,1.0002775931022394,0.00015677602418369703
1354.9980966777862,1354.9980966777862,1.0001419553609663,0.00015678686399238438
1355.0050412637652,1355.0050412637652,1.0002338750701794,0.00015679436573331516
1355.0119858497442,1355.0119858497442,0.9998823595116966,0.00015675448566649606
1355.018930435444,1355.018930435444,0.9997482948466636,0.0001567374067934945
1355.0258750210503,1355.0258750210503,0.9999088830279401,0.00015675674530322387
1355.0328196066566,1355.0328196066566,1.0001321563766226,0.00015676584306803008
1355.039764191984,1355.039764191984,1.000042808197662,0.00015676851535613946
1355.0467087773109,1355.0467087773109,0.999853727183762,0.00015674960187039082
1355.0536533624518,1355.0536533624518,1.0000651396281388,0.00015677439638741943
1355.0605979474062,1355.0605979474062,1.0000105060856654,0.00015676585938721865
1355.0675425321745,1355.0675425321745,0.9998331168561606,0.00015675877542474243
1355.0744871169427,1355.0744871169427,1.000180580863846,0.00015678016668865807
1355.081431701711,1355.081431701711,1.0002162477518834,0.00015677520931104628
1355.0883762862927,1355.0883762862927,0.9999479949243899,0.00015675099138080274
1355.0953208706885,1355.0953208706885,0.9998283484468414,0.0001567513234858057
1355.1022654549913,1355.1022654549913,0.9997412637247989,0.00015673703898628095
1355.1092100391074,1355.1092100391074,1.0003411401500695,0.0001567875748961851
1355.116154623224,1355.116154623224,0.9998828393053948,0.00015674664413247114
1355.1230992071537,1355.1230992071537,1.0002060886586213,0.00015676094538541664
1355.1300437909908,1355.1300437909908,0.9999737215167137,0.00015676822452686672
1355.1369883746415,1355.1369883746415,0.9999461154005675,0.00015676536577683597
1355.1439329581988,1355.1439329581988,0.9999786911154264,0.00015676931082884965
1355.1508775416637,1355.1508775416637,0.9998014038673085,0.0001567573797379234
1355.1578221250347,1355.1578221250347,1.0002616081661515,0.00015679128786786275
1355.1647667082195,1355.1647667082195,1.000000559329416,0.00015677412236223012
1355.1717112913118,1355.1717112913118,1.000045078722755,0.00015676659045954147
1355.1786558743104,1355.1786558743104,0.9999373070612181,0.00015678141382557167
1355.185600457216,1355.185600457216,0.9997810443152162,0.00015675483769258196
1355.1925450399356,1355.1925450399356,0.9997627870778132,0.00015674665453210967
1355.1994896227477,1355.1994896227477,1.000044380078523,0.0001567701457588147
1355.2064342051879,1355.2064342051879,1.000369805035559,0.0001567907785252621
1355.2133787876278,1355.2133787876278,0.9999200519751781,0.0001567628214417764
1355.2203233699747,1355.2203233699747,1.0001387425288175,0.0001567514514494967
1355.2272679520422,1355.2272679520422,1.0000665708611904,0.00015675966466039562
1355.2342125341097,1355.2342125341097,0.9998398087864635,0.00015674527909708948
1355.241157116177,1355.241157116177,1.0002865626183557,0.00015679190245650784
1355.2481016979648,1355.2481016979648,0.9998896389029717,0.00015675413720950265
1355.2550462797528,1355.2550462797528,0.999732755583248,0.00015673704995174473
1355.261990861355,1355.261990861355,0.9998193974820294,0.00015675052913258442
1355.2689354428633,1355.2689354428633,1.0002364704551285,0.0001567876357344424
1355.2758800243719,1355.2758800243719,1.0000774899388793,0.00015677973302648704
1355.282824605601,1355.282824605601,0.999990472013742,0.0001567581659804361
1355.2897691868302,1355.2897691868302,0.9998923810983719,0.00015675000329037369
1355.2967137678734,1355.2967137678734,0.9999439756111836,0.00015675332141937254
1355.3036583488233,1355.3036583488233,1.0000677455516194,0.0001567631686709106
1355.31060292968,1355.31060292968,1.0000116724832238,0.0001567589883954759
1355.3175475105368,1355.3175475105368,0.9999688466833716,0.0001567503056193991
1355.324492091114,1355.324492091114,0.9999100581017005,0.00015674701870760087
1355.331436671691,1355.331436671691,1.000274815282069,0.00015678377501576526
1355.3392146016956,1355.3392146016956,1.000009061557897,0.00015675924736789708
1355.3467147485887,1355.3467147485887,0.9998401038668614,0.00015674100548891554
1355.3536593287004,1355.3536593287004,1.0002879379662395,0.00015678498047880902
1355.3606039088124,1355.3606039088124,0.9998696693506716,0.00015675340931614314
1355.3675484889238,1355.3675484889238,0.9999940141984951,0.00015676663767886335
1355.3744930685696,1355.3744930685696,0.99998514363936,0.0001567537781538994
1355.381437648402,1355.381437648402,0.999775559719261,0.0001567364579016424
1355.3883822281412,1355.3883822281412,1.0001462838085264,0.0001567505312995954
1355.3953268076941,1355.3953268076941,0.9998729107751153,0.00015675203217430504
1355.4033825198785,1355.4033825198785,0.9999228921384853,0.00015676800497578796
1355.4106048823562,1355.4106048823562,0.9999459515289061,0.00015676204414648385
1355.4175494616297,1355.4175494616297,1.000055311673662,0.0001567610281514171
1355.4244940407173,1355.4244940407173,1.0003251984155683,0.00015679409294532906
1355.4314386198043,1355.4314386198043,1.000163706063607,0.00015676155324166827
1355.4383831987052,1355.4383831987052,1.0000886739162,0.00015676372044871897
1355.445327777513,1355.445327777513,0.9997497046813326,0.00015674163288093452
1355.4522723562275,1355.4522723562275,0.9998511946547296,0.00015675980024994766
1355.4592169347561,1355.4592169347561,0.999984163610401,0.00015676078689804465
1355.4661615132845,1355.4661615132845,0.9999271721560413,0.00015676147417263125
1355.473106091813,1355.473106091813,1.0000547989291737,0.00015675977154751996
1355.480050670062,1355.480050670062,0.9998817429519169,0.00015676595117045642
1355.4869952482177,1355.4869952482177,1.000173755876641,0.00015678350902259395
1355.4939398264669,1355.4939398264669,0.9999954575783978,0.000156772363267952
1355.5008844042502,1355.5008844042502,0.9998606246565304,0.00015675550059977432
1355.507828982499,1355.507828982499,0.9999934911231797,0.0001567565447394493
1355.5147735602825,1355.5147735602825,1.0001129000458726,0.0001567733132140289
1355.5217181378798,1355.5217181378798,0.9999898791268007,0.00015676488755834045
1355.5286627153832,1355.5286627153832,1.0000265145167975,0.00015675372769618186
1355.5356072929803,1355.5356072929803,1.0000122048270632,0.0001567497788827991
1355.5425518703917,1355.5425518703917,0.9999523854604181,0.00015673405467305114
1355.5494964477089,1355.5494964477089,1.0000251645399887,0.00015675825507698737
1355.5564410249335,1355.5564410249335,1.0000023733877559,0.00015675768871716372
1355.563385601972,1355.563385601972,0.9998737071249761,0.0001567425129874511
1355.5703301790102,1355.5703301790102,1.0001182456062945,0.00015675442905750526
1355.5772747559554,1355.5772747559554,1.0001290961562543,0.00015676509800456037
1355.5842193328074,1355.5842193328074,1.0001428328639328,0.00015675859824317652
1355.5911639094732,1355.5911639094732,0.9998493580834091,0.0001567494371299334
1355.5981084861392,1355.5981084861392,0.9998576106503141,0.00015675605713501883
1355.6050530627112,1355.6050530627112,0.999954339006145,0.0001567551995250659
1355.6119976390978,1355.6119976390978,1.0001144567617564,0.00015676215380808903
1355.6189422153911,1355.6189422153911,1.0000540145143475,0.0001567591213327178
1355.6258867915908,1355.6258867915908,0.9999094715806413,0.00015675121377383973
1355.6328313678846,1355.6328313678846,0.9998750998971438,0.0001567576047357774
1355.6397759438983,1355.6397759438983,0.9999207834992708,0.00015674947966346606
1355.6467205198187,1355.6467205198187,1.0000873582162844,0.00015675826138643927
1355.6536650957396,1355.6536650957396,1.0002671095528277,0.00015676910785270053
1355.660609671381,1355.660609671381,0.9999114188429047,0.00015673562326199157
1355.6675542473015,1355.6675542473015,0.9999484678987687,0.0001567448853467813
1355.674498822757,1355.674498822757,0.9998869951619962,0.0001567504690297062
1355.6814433982117,1355.6814433982117,1.0000774588876722,0.00015676792485865378
1355.688387973667,1355.688387973667,0.9998569469389504,0.0001567333331997593
1355.6953325489355,1355.6953325489355,1.0000648830920107,0.00015676112176827835
1355.702277124111,1355.702277124111,1.00012149284108,0.00015676495253255765
1355.7092216991937,1355.7092216991937,1.0001290784103993,0.00015677090994050113
1355.7161662741833,1355.7161662741833,1.0000099782297114,0.00015673805652100794
1355.7231108491724,1355.7231108491724,1.0000936294169431,0.00015676570709525256
1355.7300554238827,1355.7300554238827,0.9999008998308019,0.0001567551100909561
1355.7369999987786,1355.7369999987786,1.0001365203433688,0.00015676288109268768
1355.7439445733028,1355.7439445733028,0.9995728704725997,0.0001567259196554586
1355.752278062824,1355.752278062824,0.9997117941480205,0.0001567416349409752
1355.7592226372549,1355.7592226372549,1.000049641249765,0.0001567472393302856
1355.7661672116853,1355.7661672116853,0.9999274963562341,0.00015674314946986136
1355.7731117858366,1355.7731117858366,1.0000164157331848,0.000156751300268842
1355.7800563599872,1355.7800563599872,0.9999896187026204,0.00015675664953243045
1355.7870009340456,1355.7870009340456,1.0001531639694972,0.00015675312207596965
1355.7939455080107,1355.7939455080107,1.0000810568078182,0.0001567450652974079
1355.8008900818827,1355.8008900818827,1.0000857038193676,0.00015675788852841614
1355.807834655754,1355.807834655754,0.9999506157670005,0.00015674312767621873
1355.8147792294396,1355.8147792294396,1.0000969805012845,0.00015675414839438654
1355.8217238031257,1355.8217238031257,0.9999457986933511,0.00015674393645243368
1355.8286683766246,1355.8286683766246,1.000042555576075,0.0001567624100263809
1355.8356129500305,1355.8356129500305,0.9998974750042173,0.00015673116382654593
1355.842557523437,1355.842557523437,1.0000203599643047,0.00015675978853915682
1355.8495020967498,1355.8495020967498,0.9998663554642429,0.00015674196794225847
1355.8564466698767,1355.8564466698767,0.9999790926319772,0.00015674939545935734
1355.8633912430034,1355.8633912430034,1.0000151398766741,0.00015675764953163897
1355.870335815944,1355.870335815944,0.9998905194323038,0.0001567468187389706
