time,time,flux,flux_err
1325.2990390545394,1325.2990390545394,1.000022532757912,9.211163961616892e-05
1325.30737227717,1325.30737227717,0.9999560887715647,9.211533482625171e-05
1325.3150110648523,1325.3150110648523,1.000012207651857,8.409265585194291e-05
1325.3219554175178,1325.3219554175178,0.9999612669862303,8.409336128913105e-05
1325.3288997703896,1325.3288997703896,0.9999553191284388,8.409291424274738e-05
1325.3358441234773,1325.3358441234773,1.0000894327176266,8.410352023019015e-05
1325.3427884767739,1325.3427884767739,1.000052965557516,8.410806939316403e-05
1325.3497328302778,1325.3497328302778,1.0001034854716768,8.411360912417456e-05
1325.356677183985,1325.356677183985,0.99978763022104,8.410742331573407e-05
1325.3636215378988,1325.3636215378988,0.9999425656941462,8.412254368074325e-05
1325.370565892011,1325.370565892011,1.0000350463614804,8.412899750230294e-05
1325.3775102463235,1325.3775102463235,1.000104745102867,8.414047302932387e-05
1325.3844546008372,1325.3844546008372,1.0000333173810503,8.414290403699389e-05
1325.3913989555488,1325.3913989555488,0.9999833703430353,8.414918558617742e-05
1325.3983433104518,1325.3983433104518,0.9999965790632857,8.415636783921192e-05
1325.405287665551,1325.405287665551,0.9999838835246623,8.416107111993623e-05
1325.412232020838,1325.412232020838,0.9999360824231107,8.416522045509998e-05
1325.4191763763151,1325.4191763763151,1.0000163910496256,8.417226536114593e-05
1325.426120731984,1325.426120731984,1.000004696847288,8.418338303008893e-05
1325.4330650878362,1325.4330650878362,1.0001696463951721,8.419645133303727e-05
1325.4400094438781,1325.4400094438781,0.9999572153439491,8.419088760525627e-05
1325.4469538001,1325.4469538001,1.000028860632942,8.420238820558696e-05
1325.453898156502,1325.453898156502,0.9998906972207255,8.420135963561116e-05
1325.4608425130878,1325.4608425130878,0.9999410624711846,8.42123652569888e-05
1325.4677868698477,1325.4677868698477,0.999854433028499,8.421201395512838e-05
1325.474731226789,1325.474731226789,1.000025046294316,8.422600785222156e-05
1325.4816755839015,1325.4816755839015,1.0001628547659018,8.423943276450387e-05
1325.4886199411887,1325.4886199411887,1.000076640592918,8.423963987648804e-05
1325.4955642986502,1325.4955642986502,1.000102483995737,8.424988622544742e-05
1325.5025086562748,1325.5025086562748,0.9998862880345152,8.424646219841407e-05
1325.5094530140746,1325.5094530140746,0.999963260951108,8.425697181617692e-05
1325.5163973720366,1325.5163973720366,0.999881427486527,8.426067430504536e-05
1325.5233417301677,1325.5233417301677,0.9999990712332792,8.427215542314717e-05
1325.5302860884617,1325.5302860884617,0.9999962928423531,8.428006614697414e-05
1325.537230446916,1325.537230446916,1.000005793373266,8.428929055034238e-05
1325.5441748055305,1325.5441748055305,1.000107211310013,8.430107724543191e-05
1325.5511191643075,1325.5511191643075,1.0001765395634266,8.430825837999979e-05
1325.558063523242,1325.558063523242,0.9997942941273354,8.430211877419268e-05
1325.5650078823307,1325.5650078823307,1.000029359462077,8.43200994175063e-05
1325.5719522415734,1325.5719522415734,0.9999633445732765,8.432127156957089e-05
1325.578896600971,1325.578896600971,1.0000282275939205,8.433077239155032e-05
1325.5858409605191,1325.5858409605191,1.0001442976920873,8.434331286838473e-05
1325.5927853202159,1325.5927853202159,0.999989129793802,8.43433090476419e-05
1325.5997296800672,1325.5997296800672,1.0001274235709368,8.435207274252074e-05
1325.606674040058,1325.606674040058,0.9999389033867452,8.435069971579972e-05
1325.6136184002003,1325.6136184002003,0.9999777666754788,8.435346502305794e-05
1325.620562760482,1325.620562760482,0.9999249322825847,8.435554320869771e-05
1325.6275071209097,1325.6275071209097,0.9998879418090564,8.43550918910117e-05
1325.6344514814766,1325.6344514814766,1.000217476851588,8.43670345087186e-05
1325.6413958421867,1325.6413958421867,0.9999712227536364,8.436234331428136e-05
1325.6483402030328,1325.6483402030328,0.9998929714921239,8.436069721609841e-05
1325.6552845640133,1325.6552845640133,0.9999396088902681,8.436235027569772e-05
1325.6622289251388,1325.6622289251388,1.0000064134874669,8.436594848922571e-05
1325.6691732863933,1325.6691732863933,1.0001106604865817,8.436710346362427e-05
1325.676117647778,1325.676117647778,1.0000803917195358,8.436700651586677e-05
1325.6830620093028,1325.6830620093028,0.9999992848437035,8.436450226859092e-05
1325.6900063709525,1325.6900063709525,0.9999398491120856,8.436699256654314e-05
1325.6969507327274,1325.6969507327274,1.0000162844608937,8.437365967459861e-05
1325.7038950946392,1325.7038950946392,0.9999748587338168,8.437074620885212e-05
1325.71083945667,1325.71083945667,0.9999943735718354,8.43763941518157e-05
1325.7177838188295,1325.7177838188295,1.0000428070385299,8.438241936438363e-05
1325.7247281811165,1325.7247281811165,1.0000167963762276,8.438584394260319e-05
1325.73167254352,1325.73167254352,1.000028289296499,8.43919433129649e-05
1325.7386169060487,1325.7386169060487,1.0000321998850032,8.439750791383965e-05
1325.7455612686967,1325.7455612686967,0.9998488948948484,8.43910179926861e-05
1325.752505631464,1325.752505631464,1.0000035169590298,8.440408395052488e-05
1325.759449994351,1325.759449994351,0.999982451464246,8.441012603979659e-05
1325.7663943573536,1325.7663943573536,1.000120027224414,8.441868110413855e-05
1325.7733387204735,1325.7733387204735,0.9999369227581202,8.441711377338228e-05
1325.7802830837031,1325.7802830837031,0.9999694687356191,8.4425903660744e-05
1325.7872274470503,1325.7872274470503,1.0000048287449779,8.442918081222378e-05
1325.79417181051,1325.79417181051,1.0000041007638232,8.443345891022766e-05
1325.8011161740778,1325.8011161740778,0.9999066093845522,8.443108091947478e-05
1325.8080605377595,1325.8080605377595,1.000158325122897,8.444369437782936e-05
1325.8150049015508,1325.8150049015508,1.0000084412079508,8.444387782658546e-05
1325.8219492654475,1325.8219492654475,0.9999822133137005,8.444672890590544e-05
1325.8288936294489,1325.8288936294489,0.9998600103153115,8.444657071378526e-05
1325.835837993555,1325.835837993555,1.000162199958758,8.445577002843457e-05
1325.842782357769,1325.842782357769,1.0000457179879345,8.445345617018757e-05
1325.8497267220844,1325.8497267220844,0.9999362808466451,8.44488681446796e-05
1325.856671086505,1325.856671086505,0.9999423962856355,8.444893628479823e-05
1325.8636154510273,1325.8636154510273,0.9999531367203078,8.444936096315734e-05
1325.8705598156457,1325.8705598156457,1.0000196344611647,8.444963564613615e-05
1325.877504180366,1325.877504180366,1.000082878891135,8.444808618007686e-05
1325.8844485451853,1325.8844485451853,1.0000977677830536,8.444762086003884e-05
1325.8913929101068,1325.8913929101068,0.9999456733161012,8.44372694566049e-05
1325.8983372751175,1325.8983372751175,0.9997891705123518,8.4429014008537e-05
1325.905281640219,1325.905281640219,1.0000535517861193,8.443602288331895e-05
1325.9122260054282,1325.9122260054282,1.0000211606566336,8.443369641286911e-05
1325.9191703707188,1325.9191703707188,1.0000144128693715,8.442752858741002e-05
1325.9261147361117,1325.9261147361117,1.000089577877377,8.443127094777522e-05
1325.933059101591,1325.933059101591,1.00000200327193,8.442839718942368e-05
1325.9400034671671,1325.9400034671671,0.9999757280081335,8.443087503092595e-05
1325.9469478328215,1325.9469478328215,1.000069692685973,8.443177101173283e-05
1325.953892198575,1325.953892198575,0.9998910379949534,8.441995242052787e-05
1325.9613921136847,1325.9613921136847,0.9997796465110321,8.441713770065413e-05
1325.9691698035372,1325.9691698035372,1.0002166484767638,8.443676365709995e-05
1325.976114169564,1325.976114169564,1.0000422981647594,8.443444102729845e-05
1325.983058535678,1325.983058535678,1.0000362298062666,8.443481541757142e-05
1325.990002901877,1325.990002901877,0.9999885791367309,8.443400492378137e-05
1325.99694726816,1325.99694726816,1.0000437637805557,8.443646561626652e-05
1326.0038916345247,1326.0038916345247,0.9998781911654021,8.442955735467962e-05
1326.0108360009738,1326.0108360009738,0.9998813059107812,8.443587555408114e-05
1326.0177803675015,1326.0177803675015,1.0000646683776044,8.444544740510558e-05
1326.0247247341106,1326.0247247341106,0.999855872496382,8.444516496964958e-05
1326.031669100801,1326.031669100801,0.9999733466563676,8.445203346087515e-05
1326.038613467567,1326.038613467567,1.0001707918950569,8.446043144831528e-05
1326.0455578344122,1326.0455578344122,1.0001731738087345,8.445803789172921e-05
1326.0525022013321,1326.0525022013321,1.000029048935684,8.445404293824076e-05
1326.0594465683316,1326.0594465683316,1.0000241261869518,8.445477043329736e-05
1326.0663909354034,1326.0663909354034,1.000040385086892,8.44593660160282e-05
1326.0733353025594,1326.0733353025594,0.9999005623417186,8.44546825193031e-05
1326.0802796697803,1326.0802796697803,0.9999376451013505,8.445937249156369e-05
1326.0872240370816,1326.0872240370816,0.9999499699513036,8.445895545098735e-05
1326.0941684044478,1326.0941684044478,0.9999675516759661,8.44668266364704e-05
1326.1011127718948,1326.1011127718948,1.0000217566630636,8.447188693060781e-05
1326.1080571394032,1326.1080571394032,0.9999739879350458,8.446913378241019e-05
1326.1150015069873,1326.1150015069873,1.000021446289678,8.447396495743147e-05
1326.121945874641,1326.121945874641,1.000068308868578,8.447391743204977e-05
1326.1288902423678,1326.1288902423678,1.000030279048166,8.447415814322572e-05
1326.1358346101583,1326.1358346101583,1.000022518445403,8.447608820015846e-05
1326.1427789780162,1326.1427789780162,0.9998202484610882,8.446530616690868e-05
1326.1497233459468,1326.1497233459468,0.9999888782422923,8.447440392172543e-05
1326.1566677139408,1326.1566677139408,0.9999136812458602,8.447085326621358e-05
1326.1636120820026,1326.1636120820026,1.0001781819823563,8.448472742028883e-05
1326.1705564501217,1326.1705564501217,1.0000649575425087,8.44836730915493e-05
1326.1775008183113,1326.1775008183113,0.9999905229443223,8.447558998579357e-05
1326.1844451865647,1326.1844451865647,1.000203455233073,8.448202756591383e-05
1326.1913895548876,1326.1913895548876,1.0000118734810595,8.4477255427505e-05
1326.1983339232638,1326.1983339232638,0.99983704280643,8.447243619190082e-05
1326.205278291703,1326.205278291703,0.999898090188708,8.447049882973428e-05
1326.2122226602103,1326.2122226602103,0.9997749414398858,8.446794825478871e-05
1326.219167028775,1326.219167028775,1.0000119804988008,8.447808031651845e-05
1326.2261113973977,1326.2261113973977,1.0000609362800286,8.447834817111764e-05
1326.233055766082,1326.233055766082,1.000024734948321,8.447947045198495e-05
1326.2400001348274,1326.2400001348274,1.0000717343561178,8.44796769368734e-05
1326.2469445036309,1326.2469445036309,1.000023696443054,8.447768245474405e-05
1326.2538888724898,1326.2538888724898,1.0000436505027621,8.448151468008678e-05
1326.260833241407,1326.260833241407,1.00004913314427,8.447970840789275e-05
1326.2677776103878,1326.2677776103878,1.000047928776277,8.44747507402719e-05
1326.274721979415,1326.274721979415,0.9999866135453732,8.448018137708875e-05
1326.2816663485044,1326.2816663485044,1.000057434110619,8.448079255518431e-05
1326.2886107176423,1326.2886107176423,0.9999821175012711,8.448041493598542e-05
1326.2955550868414,1326.2955550868414,0.9999389171301779,8.448521277392294e-05
1326.302499456096,1326.302499456096,1.0000430236532671,8.448936473249378e-05
1326.3094438253977,1326.3094438253977,0.9998642773832704,8.44803711801903e-05
1326.3163881947598,1326.3163881947598,1.0000373135538339,8.448966758170552e-05
1326.3233325641684,1326.3233325641684,0.9998626906213375,8.448614447307558e-05
1326.3302769336333,1326.3302769336333,1.00001731005061,8.44942270143673e-05
1326.3372213031494,1326.3372213031494,0.9998936269645204,8.449004289938741e-05
1326.3441656727152,1326.3441656727152,0.9999627106830111,8.449401870118967e-05
1326.3538877901988,1326.3538877901988,1.00023507720328,8.451409583632212e-05
1326.3608321598838,1326.3608321598838,1.0001216258965333,8.45066788002656e-05
1326.3677765296247,1326.3677765296247,1.0000212304381868,8.450571765949373e-05
1326.3747208994057,1326.3747208994057,0.9999842527251793,8.450575023374263e-05
1326.3816652692428,1326.3816652692428,0.999827839472594,8.450412438039222e-05
1326.388609639126,1326.388609639126,1.0000623466049503,8.451481793453461e-05
1326.3955540090585,1326.3955540090585,1.0001053112543805,8.452307728628263e-05
1326.4024983790382,1326.4024983790382,1.0000079992671442,8.452306945635091e-05
1326.4094427490613,1326.4094427490613,1.0000632553169615,8.452876095871436e-05
1326.4163871191308,1326.4163871191308,0.9997782421116648,8.451972927770159e-05
1326.4233314892494,1326.4233314892494,0.9999079281361836,8.452677778184321e-05
1326.4302758594122,1326.4302758594122,1.0001181911431847,8.453678709599085e-05
1326.4372202296213,1326.4372202296213,0.9999823439587061,8.453310583378681e-05
1326.4441645998745,1326.4441645998745,0.9999399410454892,8.453463035637457e-05
1326.451108970171,1326.451108970171,1.0000272993785726,8.453867586526718e-05
1326.458053340511,1326.458053340511,0.9999890324449776,8.454386603018799e-05
1326.4649977108977,1326.4649977108977,0.9999999404580231,8.454415700878332e-05
1326.4719420813224,1326.4719420813224,0.9999694222764586,8.454582399932913e-05
1326.4788864517936,1326.4788864517936,1.000240026698285,8.455906127516581e-05
1326.4858308223086,1326.4858308223086,1.0000649323981083,8.455244524653541e-05
1326.492775192861,1326.492775192861,0.999925733483354,8.455153142099232e-05
1326.4997195634546,1326.4997195634546,1.0000321268685484,8.455799122494262e-05
1326.5066639340941,1326.5066639340941,0.9998986968291257,8.455405520686733e-05
1326.5136083047664,1326.5136083047664,0.9998088126389911,8.455568687652069e-05
1326.5205526754878,1326.5205526754878,1.0000397444838556,8.456743571480654e-05
1326.5274970462447,1326.5274970462447,1.000049866625896,8.457332137349034e-05
1326.5344414170413,1326.5344414170413,1.000011933474606,8.45757076610603e-05
1326.5413857878734,1326.5413857878734,1.0001242202776035,8.458322463608915e-05
1326.548330158752,1326.548330158752,1.0000352509330686,8.458907118991253e-05
1326.5552745296627,1326.5552745296627,0.9999756800899892,8.458858577290854e-05
1326.562218900614,1326.562218900614,0.9999046181893989,8.458802275330053e-05
1326.5691632716002,1326.5691632716002,1.0000646120587724,8.459108195291836e-05
1326.5761076426277,1326.5761076426277,0.9998682845618816,8.458823719364877e-05
1326.5830520136892,1326.5830520136892,0.9999902369079532,8.459294319846985e-05
1326.5899963847892,1326.5899963847892,0.9999994631884472,8.459748566194613e-05
1326.596940755924,1326.596940755924,1.0000558984379464,8.460210196731381e-05
1326.6038851270966,1326.6038851270966,1.0000169282675566,8.460376167022932e-05
1326.6108294983042,1326.6108294983042,0.9999110920790738,8.460054184099653e-05
1326.6177738695492,1326.6177738695492,1.0000964178404845,8.461192874123929e-05
1326.6247182408265,1326.6247182408265,1.0001347543700305,8.461532592914658e-05
1326.6316626121359,1326.6316626121359,0.9999345881777021,8.460888107639338e-05
1326.638606983483,1326.638606983483,1.000081279145234,8.461305032823657e-05
1326.6455513548653,1326.6455513548653,0.9998623218022417,8.460807319007888e-05
1326.6524957262825,1326.6524957262825,0.99998381055427,8.461159978750067e-05
1326.659440097726,1326.659440097726,0.9998487398709199,8.460337687088158e-05
1326.6663844692064,1326.6663844692064,1.000110501573072,8.461520954903119e-05
1326.6733288407227,1326.6733288407227,1.000047209153817,8.46094582331711e-05
1326.6802732122649,1326.6802732122649,1.0000129461672373,8.459850726832377e-05
1326.6880509084363,1326.6880509084363,0.9999338850215989,8.459936530471632e-05
1326.6955508297792,1326.6955508297792,0.9999343856804508,8.459624116198964e-05
1326.702495201429,1326.702495201429,1.000055230568846,8.459671654098796e-05
1326.7097173479738,1326.7097173479738,1.000122621404492,8.459490097483109e-05
1326.7177728191618,1326.7177728191618,0.9998154024613172,8.458723840996189e-05
1326.724717190908,1326.724717190908,1.0000373010329813,8.458838654493511e-05
1326.7316615626858,1326.7316615626858,1.0002341428324353,8.459374008915296e-05
1326.73860593449,1326.73860593449,0.9998892641078259,8.458345429568733e-05
1326.7455503063322,1326.7455503063322,1.0002059047271348,8.458701946228422e-05
1326.7524946781937,1326.7524946781937,0.9998605544498493,8.45774719278295e-05
1326.7594390500885,1326.7594390500885,0.9997279670587979,8.457130129921727e-05
1326.7663834220116,1326.7663834220116,1.0000529541569625,8.457639711960646e-05
1326.7733277939647,1326.7733277939647,0.9999716874759222,8.457608586258245e-05
1326.780272165949,1326.780272165949,1.0001612451392234,8.45853641900216e-05
1326.787216537957,1326.787216537957,0.9999728803023749,8.457732982159857e-05
1326.794160909994,1326.794160909994,0.999878549799367,8.457261610251646e-05
1326.8011052820511,1326.8011052820511,0.999970543683793,8.457761934682675e-05
1326.8080496541493,1326.8080496541493,0.9999968890253619,8.458224631028837e-05
1326.8149940262674,1326.8149940262674,1.0001571850882043,8.4588264050193e-05
1326.8219383984153,1326.8219383984153,1.0001671014566402,8.458657649292586e-05
1326.828882770583,1326.828882770583,0.9998804340798262,8.457681442596743e-05
1326.83582714278,1326.83582714278,1.0001105421325858,8.458780031395005e-05
1326.8427715150065,1326.8427715150065,0.9999349949970769,8.458092562070752e-05
1326.8497158872588,1326.8497158872588,0.9999317762426194,8.457613110377868e-05
1326.8566602595313,1326.8566602595313,0.9998901581050579,8.457827754204736e-05
1326.8636046318334,1326.8636046318334,0.9999378312590764,8.457565500125561e-05
1326.8705490041643,1326.8705490041643,1.000154546105899,8.458478239219833e-05
1326.8774933765094,1326.8774933765094,0.9999710681359298,8.457384862980379e-05
1326.884437748887,1326.884437748887,0.9999821302919158,8.456835834389383e-05
1326.8913821212877,1326.8913821212877,0.9999832035960787,8.456318188148754e-05
1326.8983264937146,1326.8983264937146,1.0000153887926146,8.455195755177638e-05
1326.9052708661618,1326.9052708661618,0.9999582431922679,8.454683231587621e-05
1326.9122152386324,1326.9122152386324,0.9999479448817363,8.45328138251511e-05
1326.9191596111293,1326.9191596111293,1.0000684441965348,8.453848777036252e-05
1326.9261039836495,1326.9261039836495,1.00017803470063,8.453332652107279e-05
1326.9330483561903,1326.9330483561903,1.0000328985967615,8.452169103051897e-05
1326.9399927287566,1326.9399927287566,0.999959365450583,8.451177793087226e-05
1326.9469371013436,1326.9469371013436,0.9998422071377062,8.450071988457191e-05
1326.9538814739567,1326.9538814739567,0.9999450132169734,8.450303779776524e-05
1326.9608258465873,1326.9608258465873,1.0000508156162282,8.450289210636686e-05
1326.9677702192384,1326.9677702192384,0.9999723445875027,8.449516028092517e-05
1326.9747145919155,1326.9747145919155,1.0002034604923378,8.449746636761346e-05
1326.9816589646166,1326.9816589646166,1.0001318801471268,8.449028552859895e-05
1326.9886033373311,1326.9886033373311,0.999856340038672,8.448016425624643e-05
1326.9955477100757,1326.9955477100757,1.0000477800987495,8.448334098991966e-05
1327.002492082837,1327.002492082837,0.9998506911437959,8.447675288558417e-05
1327.0094364556192,1327.0094364556192,0.9998947750054121,8.447322768090525e-05
1327.0163808284215,1327.0163808284215,0.9999728330796233,8.447718998218837e-05
1327.0233252012472,1327.0233252012472,0.9999325985271966,8.447422407969618e-05
1327.0302695740907,1327.0302695740907,1.000018787564447,8.448212724611407e-05
1327.037213946954,1327.037213946954,1.000105120622004,8.44827041377132e-05
1327.0441583198378,1327.0441583198378,1.0000909341458868,8.448576818426788e-05
1327.051102692742,1327.051102692742,1.0000442628302149,8.447863848856569e-05
1327.0586026155,1327.0586026155,1.0001549271600025,8.44901822880188e-05
1327.0663803132018,1327.0663803132018,0.9999973535285862,8.448259061610052e-05
1327.0733246861614,1327.0733246861614,0.9998306246396906,8.447605411106912e-05
1327.080269059144,1327.080269059144,0.9998973341257642,8.448242833688827e-05
