time,time,flux,flux_err
1410.9055324346502,1410.9055324346502,0.9077120422557419,0.06617413231659848
1410.9124768681545,1410.9124768681545,0.8841148610907714,0.06615384229852309
1410.9194213017834,1410.9194213017834,0.9058941005859109,0.06617579404767454
1410.9263657355307,1410.9263657355307,0.9555705168829004,0.06617467421551229
1410.933310169396,1410.933310169396,1.125941235246929,0.06625797656248097
1410.9402546033796,1410.9402546033796,0.9091241597213132,0.06616508031824801
1410.9471990374786,1410.9471990374786,0.9795331741874337,0.06616427966804829
1410.9541434716957,1410.9541434716957,1.000889763384952,0.06620448252100855
1410.9621990155294,1410.9621990155294,1.1279752701786763,0.06625089621037676
1410.9766434393593,1410.9766434393593,1.0054671977569452,0.06740783908640012
1410.9860878705347,1410.9860878705347,1.1024788244186847,0.06690580167646187
1410.994698969767,1410.994698969767,0.8572452087474638,0.06568952231871865
1411.0055322883559,1411.0055322883559,1.0123246624655329,0.06500858132481957
1411.012476723493,1411.012476723493,1.0508790132543033,0.06434390894516448
1411.0194211587345,1411.0194211587345,1.0241492978899496,0.06382156594499633
1411.026365594084,1411.026365594084,1.0207423510046119,0.06335857068737605
1411.0333100295302,1411.0333100295302,0.9231528469575231,0.06299920782546425
1411.0402544650813,1411.0402544650813,0.9816180507895604,0.06285639598788886
1411.04803223302,1411.04803223302,1.0917927612956804,0.0628612331510869
1411.0555322236437,1411.0555322236437,0.9960288030606416,0.06314592729805746
1411.0624766595133,1411.0624766595133,1.0539129949703805,0.0633674959370568
1411.0694210954769,1411.0694210954769,0.9381979797353421,0.06367037988631477
1411.0763655315402,1411.0763655315402,1.0021350596927217,0.06516907574010876
1411.0833099676959,1411.0833099676959,0.9775994828302993,0.06517861714567429
1411.0902544039461,1411.0902544039461,0.9859610851234019,0.06497399257758876
1411.097198840287,1411.097198840287,1.0231769747498107,0.06555141364858759
1411.1041432767238,1411.1041432767238,1.2568867673593578,0.06572445148213477
1411.1110877132512,1411.1110877132512,1.0221161089179989,0.06609828384534527
1411.1180321498668,1411.1180321498668,0.9395132568059651,0.06645052058771606
1411.1249765865741,1411.1249765865741,1.0038524079519635,0.06627258397679817
1411.1319210233678,1411.1319210233678,0.9889505501575989,0.06558039578118582
1411.1388654602492,1411.1388654602492,0.9959542143857357,0.065117822960879
1411.145809897218,1411.145809897218,1.1175340262473377,0.06534257864197296
1411.152754334271,1411.152754334271,0.9409518342727209,0.06499637259266479
1411.1596987714097,1411.1596987714097,0.9448664074817079,0.06527474662366028
1411.166643208631,1411.166643208631,1.0148077414205496,0.06558199678701501
1411.1735876459347,1411.1735876459347,1.054696576555466,0.0655050245434151
1411.1805320833223,1411.1805320833223,1.047205296113197,0.06545688229935634
1411.1874765207906,1411.1874765207906,1.065498653196844,0.06530337448408816
1411.1944209583376,1411.1944209583376,1.0631327889713806,0.06569083301864109
1411.201365395962,1411.201365395962,0.857057829539834,0.06596112464557762
1411.20830983367,1411.20830983367,0.9599087564496293,0.06609924769747115
1411.2152542714523,1411.2152542714523,1.0463814602338337,0.06578941938515173
1411.2221987093103,1411.2221987093103,0.9179959669387946,0.0656257825781991
1411.2291431472463,1411.2291431472463,1.0429903813423425,0.0661374010532797
1411.2360875852594,1411.2360875852594,1.082358709571929,0.06681030560567686
1411.2430320233425,1411.2430320233425,1.0158408972274613,0.06699450319299925
1411.2499764615004,1411.2499764615004,0.9574572170922361,0.06689025328297996
1411.2569208997322,1411.2569208997322,1.0045758948922177,0.0668906737515863
1411.2638653380363,1411.2638653380363,1.0267387423735466,0.06671175772181832
1411.2708097764084,1411.2708097764084,1.0299133231304798,0.06675610599397068
1411.2777542148517,1411.2777542148517,0.9463944067649083,0.06712769254414977
1411.284698653367,1411.284698653367,0.9077282381661413,0.06728153561987059
1411.2916430919515,1411.2916430919515,1.0492007706538042,0.06789628296874249
1411.2985875305988,1411.2985875305988,0.9934103059712784,0.0680729858684679
1411.3055319693174,1411.3055319693174,1.0844019567126775,0.06834669603850393
1411.3124764081026,1411.3124764081026,0.9825646440469642,0.06809109789222498
1411.3194208469527,1411.3194208469527,1.0085721663910816,0.0677810022985781
1411.3263652858686,1411.3263652858686,0.999211066399236,0.06712336518781695
1411.3333097248462,1411.3333097248462,1.0018692239964633,0.06628213174800542
1411.3402541638911,1411.3402541638911,0.9544341185705655,0.0652569531130303
1411.3471986029977,1411.3471986029977,0.8916558670598546,0.06477060777003946
1411.3541430421678,1411.3541430421678,1.0511834280132828,0.064613251798422
1411.3610874813967,1411.3610874813967,0.9442578241461559,0.06414906400672273
1411.3680319206892,1411.3680319206892,1.062864632925927,0.06463360995899711
1411.3749763600404,1411.3749763600404,1.0677169453792936,0.06444049073680311
1411.3819207994516,1411.3819207994516,1.0874084039061231,0.06431388877184419
1411.3888652389212,1411.3888652389212,1.0295269378036707,0.06444551024460912
1411.3958096784502,1411.3958096784502,0.9663523789252956,0.06423784659997259
1411.4027541180378,1411.4027541180378,0.9416920597567312,0.06452167247334231
1411.4096985576787,1411.4096985576787,0.9960043971107421,0.06443886600726166
1411.416642997378,1411.416642997378,0.9709606571474048,0.06473530955952722
1411.4235874371343,1411.4235874371343,1.0113241232526593,0.06548705113966827
1411.4305318769434,1411.4305318769434,1.067895120687067,0.06567361846695406
1411.4374763168094,1411.4374763168094,1.0757632241621877,0.06667234788995947
1411.4444207567283,1411.4444207567283,1.00616970267191,0.06742758605082444
1411.4513651966995,1411.4513651966995,1.0440109586222577,0.0677036242007042
1411.4583096367255,1411.4583096367255,1.0924842198995386,0.06759915975712681
1411.4652540768025,1411.4652540768025,0.9545594417707657,0.06737323707984491
1411.4721985169322,1411.4721985169322,1.0101204055938937,0.06754255056441559
1411.4791429571094,1411.4791429571094,0.9405857765443939,0.06785304517637449
1411.4860873973403,1411.4860873973403,1.0192775819659368,0.06787792534603897
1411.4930318376187,1411.4930318376187,0.9381765143416393,0.06738302586461156
1411.4999762779478,1411.4999762779478,0.9580403809485845,0.06792026985227811
1411.5069207183274,1411.5069207183274,1.0159950886136446,0.06762188424438455
1411.5138651587527,1411.5138651587527,1.0266151779142798,0.06679164182515387
1411.5208095992275,1411.5208095992275,1.041595268719816,0.06678164600624882
1411.5277540397478,1411.5277540397478,0.9526018221676662,0.06625439936821428
1411.5346984803123,1411.5346984803123,1.0641428109368758,0.06578546972656692
1411.5416429209276,1411.5416429209276,0.9814526331461334,0.06521869768605491
1411.5485873615871,1411.5485873615871,1.0850033365912386,0.06437862351924065
1411.555531802291,1411.555531802291,0.8981348492478611,0.06442745442465236
1411.562476243038,1411.562476243038,1.0521777619703663,0.06487776959128709
1411.5694206838314,1411.5694206838314,1.0284813964292963,0.06498333303858347
1411.5763651246675,1411.5763651246675,0.9150894994515447,0.06465822464451895
1411.583309565548,1411.583309565548,0.9420632360895376,0.06479434827111274
1411.590254006469,1411.590254006469,1.1021550653634506,0.06495216341874385
1411.5971984474306,1411.5971984474306,1.0270697474275914,0.06449663640133615
1411.6041428884387,1411.6041428884387,0.9907669927901198,0.06457046701966836
1411.6110873294858,1411.6110873294858,0.9328738999386307,0.0644291875386873
1411.61803177057,1411.61803177057,0.9578530167113926,0.06433282645916774
1411.624976211699,1411.624976211699,1.0618554938917508,0.06382602860066097
1411.6319206528647,1411.6319206528647,1.025619911525051,0.06372029014383165
1411.6388650940733,1411.6388650940733,1.0154373360532432,0.0632304086891011
1411.645809535318,1411.645809535318,0.8917653159208558,0.06315005417031913
1411.6527539766,1411.6527539766,1.0878473398105597,0.06336815582612965
1411.6596984179212,1411.6596984179212,0.9961074713160446,0.06305715582255342
1411.6666428592805,1411.6666428592805,1.0165533831239424,0.06259917089129535
1411.6735873006787,1411.6735873006787,1.014096501672943,0.06239583068851669
1411.680531742111,1411.680531742111,0.8947655751447989,0.062106980184894654
1411.687476183578,1411.687476183578,1.041064468165807,0.062480035651327405
1411.6944206250841,1411.6944206250841,0.9846657188156638,0.06262209698911496
1411.7013650666233,1411.7013650666233,0.9830256360084737,0.06272356099232056
1411.7083095081994,1411.7083095081994,0.9781500673752882,0.06303301960707472
1411.7152539498102,1411.7152539498102,1.0971604247568105,0.06369711617314824
1411.7221983914553,1411.7221983914553,1.0376938148514898,0.06458957959304593
1411.729142833131,1411.729142833131,0.9573237238499939,0.06483196280622253
1411.7360872748427,1411.7360872748427,0.9815107100172966,0.06536925206431052
1411.7430317165856,1411.7430317165856,1.045556010214272,0.06631170093950975
1411.7499761583624,1411.7499761583624,0.9718823031098719,0.06719157785882027
1411.7569206001751,1411.7569206001751,0.993714170858061,0.06740769354434331
1411.7638650420133,1411.7638650420133,0.9244861816649219,0.06740627805967409
1411.7708094838868,1411.7708094838868,0.9826642729259092,0.06763049036389274
1411.7777539257909,1411.7777539257909,0.9979472806982088,0.06803688717399631
1411.7846983677236,1411.7846983677236,1.0998027684589562,0.0682938493122369
1411.7916428096892,1411.7916428096892,0.9320903168290338,0.06769918931893285
1411.798587251686,1411.798587251686,0.9575097892518691,0.06699572349089498
1411.8055316937096,1411.8055316937096,1.0935507286988042,0.06670676906066156
1411.8124761357635,1411.8124761357635,0.899597224159154,0.06612097510406822
1411.819420577846,1411.819420577846,1.1280933724216946,0.06604410698354705
1411.8263650199588,1411.8263650199588,0.934085515368204,0.06599565588020054
1411.8333094620978,1411.8333094620978,1.0193519535832478,0.06622930673672185
1411.8402539042672,1411.8402539042672,0.9644083482740626,0.06642342502041311
1411.8471983464635,1411.8471983464635,1.0018407357409693,0.06627549544752423
1411.854142788687,1411.854142788687,1.1180580094351051,0.0667718543712569
1411.8610872309382,1411.8610872309382,0.9809763191998512,0.06676612881263538
1411.8680316732139,1411.8680316732139,0.9073909464060682,0.06709526970366944
1411.8749761155173,1411.8749761155173,1.0533268082662768,0.06773738848536184
1411.8819205578443,1411.8819205578443,0.9010516988058285,0.06756624438667075
1411.8888650002013,1411.8888650002013,1.020440275363812,0.06775601671259651
1411.895809442581,1411.895809442581,1.06724173646571,0.06798901149419465
1411.9027538849855,1411.9027538849855,1.0305279855075735,0.06834769144575037
1411.909698327418,1411.909698327418,0.94628575825577,0.06822762040251992
1411.9166427698733,1411.9166427698733,0.9809870371551416,0.06830672598730425
1411.923587212351,1411.923587212351,1.0357540086044401,0.06777808097782996
1411.9305316548541,1411.9305316548541,1.013814590857179,0.06663466764140534
1411.937476097381,1411.937476097381,0.9341718099776808,0.06582792379898154
1411.9444205399325,1411.9444205399325,1.056669026311663,0.06615542209568012
1411.9513649825042,1411.9513649825042,0.938751493167546,0.06595778959087586
1411.9583094251013,1411.9583094251013,0.9174958639476489,0.06596825684879512
1411.9652538677194,1411.9652538677194,1.1412312221878294,0.06564818945872666
1411.9721983103586,1411.9721983103586,1.0120181913108093,0.06526456202676104
1411.9791427530192,1411.9791427530192,1.00988955414279,0.06495161291603478
1411.986087195706,1411.986087195706,1.0621378852431709,0.0652744245547452
1411.9930316384123,1411.9930316384123,0.9699466059321147,0.06517827760103587
1411.9999760811363,1411.9999760811363,0.909036102491098,0.06555247128713472
1412.006920523885,1412.006920523885,0.9595955417148485,0.06594618600101848
1412.0138649666528,1412.0138649666528,1.0553030454400787,0.06696144167412096
1412.0208094094419,1412.0208094094419,1.0482289589449039,0.06702852247868865
1412.0277538522496,1412.0277538522496,1.020881434304459,0.06786208400257301
1412.0346982950787,1412.0346982950787,0.991708669075224,0.06781776570215889
1412.0416427379246,1412.0416427379246,0.9733541324857858,0.06739978876572714
1412.0485871807912,1412.0485871807912,1.0032743786504046,0.06737719742307047
1412.0555316236798,1412.0555316236798,0.9469224733065008,0.06671937791089799
1412.0624760665844,1412.0624760665844,0.9117381796443734,0.06664870372972903
1412.069420509509,1412.069420509509,1.053120915084402,0.06666008680857355
1412.0763649524501,1412.0763649524501,1.001395815480024,0.06714202154076146
1412.0833093954104,1412.0833093954104,1.10184172321821,0.0667650957811434
1412.090253838389,1412.090253838389,1.0093812490951048,0.06684165652681798
1412.0971982813837,1412.0971982813837,1.0166932228606376,0.0666078014128366
1412.1041427243972,1412.1041427243972,1.0223037834809936,0.06680004387864182
1412.1110871674252,1412.1110871674252,0.9138442829573021,0.06681666682181323
1412.1180316104735,1412.1180316104735,0.9815950357300215,0.06718028800711856
1412.1249760535372,1412.1249760535372,0.980324007612459,0.06781122469928891
1412.1319204966185,1412.1319204966185,1.0531725827304925,0.06895699504308443
1412.1388649397163,1412.1388649397163,1.08126188693297,0.06922017112623213
1412.1458093828273,1412.1458093828273,1.0402486173467438,0.06964107862139643
1412.1527538259556,1412.1527538259556,0.9719113097203549,0.07011477160571848
1412.1596982690994,1412.1596982690994,1.0110903577857828,0.07005588415475253
1412.1666427122605,1412.1666427122605,0.9824079707616165,0.07026044215863651
1412.173587155435,1412.173587155435,1.004979811299465,0.06996495419751253
1412.1805315986237,1412.1805315986237,0.9447137511619385,0.0699853753657246
1412.1874760418302,1412.1874760418302,1.0007810947042117,0.06966053569951626
1412.1944204850495,1412.1944204850495,1.043063675566737,0.06954011373690876
1412.2013649282826,1412.2013649282826,1.052356198851858,0.06896343808697872
1412.2083093715323,1412.2083093715323,0.9265466267944985,0.06823834049500856
1412.2152538147914,1412.2152538147914,0.9850031515592935,0.06773882610154204
1412.2221982580677,1412.2221982580677,1.0078000139734182,0.06732091210601437
1412.2291427013565,1412.2291427013565,0.9978017104520379,0.06678728444018227
1412.2360871446595,1412.2360871446595,1.0304676573966298,0.0662446433057263
1412.2430315879728,1412.2430315879728,0.9953360706167466,0.0661549237330144
1412.250531586771,1412.250531586771,1.017127420459953,0.06676438164009185
1412.2591426965164,1412.2591426965164,1.0320516877489152,0.06722713982220543
1412.2688649172226,1412.2688649172226,0.9996115495628357,0.06711985563184866
1412.2796982488933,1412.2796982488933,0.9632652377416131,0.06677997599944403
1412.2888649141762,1412.2888649141762,1.0110644747646833,0.06701137274242973
1412.2958093575878,1412.2958093575878,1.072730128868272,0.06748823097870581
1412.3027538010083,1412.3027538010083,0.912279110177877,0.06789774477259948
1412.30969824444,1412.30969824444,0.9932771262887039,0.06889442431729673
1412.3166426878856,1412.3166426878856,0.8833315396583663,0.06853091804355113
1412.3235871313402,1412.3235871313402,1.0195458916038762,0.0690242814700467
1412.3305315748078,1412.3305315748078,1.1798878722119555,0.06912131000993131
1412.3374760182828,1412.3374760182828,1.0019280497047538,0.06905186033389699
1412.344420461772,1412.344420461772,0.897784961930752,0.06873325179575634
1412.351364905272,1412.351364905272,1.0691709526354085,0.06869514289057323
1412.3583093487798,1412.3583093487798,0.9277521609841699,0.06880472511943872
1412.3652537922976,1412.3652537922976,0.982686490055638,0.06907231165035141
1412.3721982358252,1412.3721982358252,1.0392599925309656,0.06864992757188915
1412.3791426793628,1412.3791426793628,1.1549815096624176,0.06925781792236564
1412.386087122912,1412.386087122912,0.8764194264018021,0.06940359957108908
1412.3930315664695,1412.3930315664695,1.1018581919024288,0.07024764555276329
1412.3999760100348,1412.3999760100348,1.0306568661268631,0.07021698431144424
1412.4069204536095,1412.4069204536095,0.9656043252637023,0.06944103996386095
1412.413864897196,1412.413864897196,0.971891053421938,0.06896570364100296
1412.4208093407904,1412.4208093407904,0.9865321177472612,0.06968095272621389
1412.427753784392,1412.427753784392,0.995280392923193,0.0699342117854204
1412.4346982280038,1412.4346982280038,1.0450664165189882,0.07005866122759427
1412.4416426716223,1412.4416426716223,0.9114841164086405,0.07024877979329165
1412.4485871152492,1412.4485871152492,1.0575357595795385,0.06948493273797932
1412.4555315588864,1412.4555315588864,1.0044408877612276,0.06893651984228091
1412.4624760025292,1412.4624760025292,1.0488355520710133,0.06909010218770753
1412.4694204461823,1412.4694204461823,0.9781281302584748,0.06885612479340533
1412.4763648898384,1412.4763648898384,0.9842497039916118,0.06836952713572901
1412.4833093335044,1412.4833093335044,0.8891728026288128,0.06841627744387292
1412.4902537771784,1412.4902537771784,1.1063696113033212,0.06845988366358352
1412.4971982208604,1412.4971982208604,1.0428071296419719,0.06817175540187298
1412.5041426645503,1412.5041426645503,0.9631518213317045,0.06789643498307664
1412.5110871082427,1412.5110871082427,1.0755727146796168,0.06748578922069062
1412.5180315519451,1412.5180315519451,0.8705900726591171,0.0675176311394148
1412.5249759956537,1412.5249759956537,1.0253936115109334,0.0675863949839614
1412.5319204393688,1412.5319204393688,0.9444141641837052,0.0676456306255536
1412.5388648830926,1412.5388648830926,1.0785160023254516,0.0678163077765638
1412.5458093268178,1412.5458093268178,1.007791321036137,0.06788521581761794
1412.5527537705543,1412.5527537705543,1.0710600729304056,0.06830422010024134
1412.5596982142933,1412.5596982142933,0.9722887965802007,0.06856260135493455
1412.5666426580397,1412.5666426580397,0.9612366905511461,0.06811706701993817
1412.5735871017919,1412.5735871017919,1.0297528549426689,0.06833292319418746
1412.5805315455495,1412.5805315455495,0.9028127547532746,0.06824556968403014
1412.5874759893122,1412.5874759893122,1.0386372252749492,0.06856042952095619
1412.59442043308,1412.59442043308,0.9243098546634002,0.06932189585984859
1412.6013648768558,1412.6013648768558,1.103325421117788,0.070313587810344
1412.6083093206332,1412.6083093206332,1.0111135507976152,0.07111871672749531
1412.6152537644195,1412.6152537644195,1.0447097644015026,0.07111572448806766
1412.6221982082063,1412.6221982082063,1.0016725944367184,0.07099584240914476
1412.6291426520022,1412.6291426520022,0.9944538367033855,0.07050140893804666
1412.636087095801,1412.636087095801,0.9320841187109143,0.07068780948987083
1412.6430315396021,1412.6430315396021,0.97676367394787,0.07108259897018329
1412.6499759834103,1412.6499759834103,0.948948144929725,0.07105613479966225
1412.6569204272225,1412.6569204272225,0.9537187073611448,0.0711406766824347
1412.6638648710396,1412.6638648710396,1.0557158257512769,0.07130941955571968
1412.6708093148595,1412.6708093148595,1.1021665396254037,0.07146168669892793
1412.6777537586831,1412.6777537586831,1.0396085973674225,0.07073261906929208
1412.6846982025122,1412.6846982025122,0.9802493702172466,0.07079857261488538
1412.691642646343,1412.691642646343,1.0125258859176274,0.07084367397201694
1412.6985870901783,1412.6985870901783,0.9272743138153409,0.07054292358732667
1412.7055315340203,1412.7055315340203,1.035511878601636,0.07056335129425345
1412.712475977863,1412.712475977863,1.0044819317258007,0.07062802834921336
1412.719420421709,1412.719420421709,0.951187818554971,0.07047530583365348
1412.7263648655583,1412.7263648655583,0.9691129709039394,0.07110745822768719
1412.7333093094098,1412.7333093094098,1.0146259959425918,0.0714813211843203
1412.7402537532673,1412.7402537532673,1.0457083929270568,0.07104454101159104
1412.7471981971253,1412.7471981971253,0.9134124610950181,0.07021923727842196
