time,time,flux,flux_err
1325.2984192587685,1325.2984192587685,0.9998531382539668,0.00018311074867890167
1325.3067527022072,1325.3067527022072,1.0001361878495942,0.0001832476069714336
1325.315086145889,1325.315086145889,1.000081483413456,0.00018331166529241303
1325.3234195898515,1325.3234195898515,1.0001657350679436,0.00018339707988054588
1325.3310585803642,1325.3310585803642,1.0000536777091054,0.00016746430296521393
1325.3380031174142,1325.3380031174142,0.9998725982708523,0.0001675024308182084
1325.3449476545925,1325.3449476545925,0.9997680720003981,0.00016753959611696416
1325.351892191968,1325.351892191968,0.9998999797877349,0.00016759059541652984
1325.3588367295183,1325.3588367295183,0.9998753870352391,0.0001676439530579329
1325.3657812672204,1325.3657812672204,0.9997714671782155,0.00016766099132606817
1325.372725805108,1325.372725805108,1.0000251768945045,0.00016769892925647492
1325.3796703431594,1325.3796703431594,1.0003115301505372,0.00016773366749052194
1325.3866148813618,1325.3866148813618,1.0000663655159163,0.0001677550769369564
1325.3935594197385,1325.3935594197385,1.000036006584985,0.00016777246480431364
1325.4005039582785,1325.4005039582785,0.9998887475025618,0.00016777556464077706
1325.407448496958,1325.407448496958,0.9999722863513767,0.00016778038374659897
1325.414393035801,1325.414393035801,1.0001062642974001,0.000167799344347181
1325.4213375748063,1325.4213375748063,1.0000205479534603,0.00016779661967862705
1325.4282821139518,1325.4282821139518,0.9999892877282534,0.0001678066905305018
1325.4352266532483,1325.4352266532483,0.9997693177538064,0.00016781559615175833
1325.4421711926964,1325.4421711926964,0.999935879734641,0.00016782205303219832
1325.4491157322839,1325.4491157322839,1.0002056530413066,0.00016785040836597324
1325.4560602720346,1325.4560602720346,1.0002005485209424,0.000167863507368177
1325.4630048119016,1325.4630048119016,1.0000275801102176,0.00016785386099511557
1325.4699493519317,1325.4699493519317,0.9997170411646803,0.00016784404057849437
1325.4768938920784,1325.4768938920784,1.0000330523925525,0.00016788522425041137
1325.4838384323762,1325.4838384323762,1.000130598399393,0.00016790718956416142
1325.4907829728022,1325.4907829728022,1.0001400451244813,0.00016792528918557764
1325.4977275133674,1325.4977275133674,0.999702882197728,0.00016791752895469015
1325.5046720540613,1325.5046720540613,0.9997930129128736,0.00016793972844898964
1325.511616594883,1325.511616594883,1.0001859580262031,0.00016797469078321767
1325.5185611358327,1325.5185611358327,1.000150163373114,0.00016800301050361673
1325.5255056769336,1325.5255056769336,0.9999087522982528,0.00016801671354128053
1325.532450218128,1325.532450218128,1.0001238142257711,0.00016805407184382104
1325.5393947594616,1325.5393947594616,0.9998485412997894,0.00016805468982445244
1325.546339300889,1325.546339300889,0.9999926653087515,0.0001680914896757805
1325.5532838424556,1325.5532838424556,1.000286149951058,0.00016813032049148977
1325.5602283841272,1325.5602283841272,0.9999769904812961,0.00016814445951819835
1325.5671729259618,1325.5671729259618,0.9998340790123865,0.00016817182157943534
1325.5741174678776,1325.5741174678776,1.0000070841983553,0.0001682029093770035
1325.5810620099103,1325.5810620099103,1.000140037789246,0.0001682428063738646
1325.5880065520469,1325.5880065520469,0.9999175598049075,0.00016825984565186985
1325.5949510942894,1325.5949510942894,1.0000009458849548,0.00016828386459251211
1325.6018956366593,1325.6018956366593,0.9999362935386061,0.00016830146936406537
1325.608840179134,1325.608840179134,0.9999943013673782,0.00016832769192671988
1325.6157847217019,1325.6157847217019,0.9999542743050336,0.00016834346345929118
1325.6227292643864,1325.6227292643864,1.0000996440113255,0.00016836206295119084
1325.6296738071871,1325.6296738071871,0.9999659267383665,0.00016835403975850788
1325.6366183500577,1325.6366183500577,0.9998473490898518,0.00016837271239386546
1325.6435628930678,1325.6435628930678,0.9998478773142769,0.00016838468651742978
1325.650507436148,1325.650507436148,1.0001780293015765,0.00016841430484020864
1325.6574519793212,1325.6574519793212,1.0000457394837587,0.000168418981294287
1325.664396522611,1325.664396522611,0.9998153761861037,0.00016841143591656598
1325.6713410659936,1325.6713410659936,1.0001702834792252,0.00016843860643071958
1325.6782856094699,1325.6782856094699,1.0004918413405866,0.00016847731644368218
1325.6852301530275,1325.6852301530275,1.0000535643893878,0.0001684742635523232
1325.6921746967012,1325.6921746967012,0.9997336716927661,0.00016847800424585566
1325.6991192404337,1325.6991192404337,0.999829234318957,0.000168494848279106
1325.706063784282,1325.706063784282,0.9999720228803547,0.00016853256866707013
1325.7130083282118,1325.7130083282118,0.9999638734291096,0.00016855017523178438
1325.7199528722115,1325.7199528722115,0.9998066204516883,0.00016856553859417165
1325.7268974163046,1325.7268974163046,0.9999584246129715,0.00016860988903376063
1325.733841960479,1325.733841960479,0.9999974561628647,0.00016863067076276365
1325.740786504758,1325.740786504758,1.0002395712875922,0.00016867304082376184
1325.7477310491188,1325.7477310491188,1.0003331485422415,0.0001687129330980162
1325.7546755935261,1325.7546755935261,0.9998803427808802,0.00016870891104662838
1325.7616201380383,1325.7616201380383,0.9999594199325579,0.00016873042323918694
1325.7685646826317,1325.7685646826317,0.9998914918208559,0.00016876321319603938
1325.775509227295,1325.775509227295,0.9999834417595178,0.00016880050107245158
1325.7824537720285,1325.7824537720285,0.9998354671993223,0.00016882416461750388
1325.7893983168433,1325.7893983168433,1.000202449192829,0.00016887302101854822
1325.7963428617393,1325.7963428617393,1.000154305495791,0.00016888789422232775
1325.8032874067057,1325.8032874067057,0.9995571046164144,0.00016887504275154213
1325.8102319517413,1325.8102319517413,1.0001881524706049,0.00016893792248897534
1325.8171764968472,1325.8171764968472,1.0000673553530572,0.00016894759166326736
1325.824121042046,1325.824121042046,1.0000789224816669,0.00016896328060582268
1325.8310655872915,1325.8310655872915,0.9999701740032876,0.0001689764451692167
1325.8380101325954,1325.8380101325954,0.9999163231063658,0.00016898448128346133
1325.8449546779805,1325.8449546779805,1.0000246908653663,0.00016900554761353418
1325.8518992234353,1325.8518992234353,1.0002599406870332,0.00016902289109810777
1325.8588437689718,1325.8588437689718,1.0000452842401888,0.00016901296497331462
1325.865788314532,1325.865788314532,0.999949258441849,0.00016901692544774136
1325.872732860173,1325.872732860173,0.9997397284026277,0.00016899923314870238
1325.879677405896,1325.879677405896,0.9997042611010686,0.00016898080929895418
1325.8866219516653,1325.8866219516653,1.0000521149066186,0.00016900273526711907
1325.8935664975045,1325.8935664975045,1.0001132456825563,0.00016899551322074126
1325.9005110433902,1325.9005110433902,1.0000230623952484,0.00016897961309121553
1325.9074555893458,1325.9074555893458,1.0000003811858693,0.00016896934324977747
1325.9144001353711,1325.9144001353711,1.0003623255886671,0.00016898515144907325
1325.9213446814315,1325.9213446814315,0.999787365499531,0.00016896208790240556
1325.9282892275737,1325.9282892275737,0.9996616627332701,0.00016894998523847582
1325.9352337737503,1325.9352337737503,1.0001196049993326,0.00016898821061286218
1325.9421783199966,1325.9421783199966,1.000359558076323,0.00016899514105963125
1325.949122866302,1325.949122866302,1.000103650356172,0.00016899242833600455
1325.9560674126533,1325.9560674126533,0.9998015723476203,0.00016898787719341665
1325.9641230864886,1325.9641230864886,0.9999446419444282,0.0001690155128826924
1325.9713454148246,1325.9713454148246,1.0001052586797434,0.00016902189335538993
1325.978289961327,1325.978289961327,0.9998088175780182,0.0001690148175128259
1325.9852345079112,1325.9852345079112,1.0000766086946777,0.00016904912674598561
1325.9921790545302,1325.9921790545302,0.9998529876146719,0.00016904750672438917
1325.9991236012079,1325.9991236012079,0.999841754710908,0.00016907026760619115
1326.0060681479201,1326.0060681479201,1.0001477497293774,0.00016912101347277454
1326.0130126946908,1326.0130126946908,0.9999358381760871,0.0001691432284442848
1326.0199572415313,1326.0199572415313,1.0001182802338164,0.00016917353403189735
1326.0269017883832,1326.0269017883832,1.0001218729796135,0.00016922060273312422
1326.0338463352932,1326.0338463352932,1.0003299651776278,0.00016924516214088947
1326.040790882238,1326.040790882238,0.999920773426696,0.0001692324986196839
1326.0477354292652,1326.0477354292652,0.9998717398404559,0.00016924154790754696
1326.0546799763029,1326.0546799763029,1.0000287120881548,0.00016927145190950702
1326.0616245234,1326.0616245234,0.9996995209946338,0.0001692682329433683
1326.068569070531,1326.068569070531,0.9998934934417576,0.0001693120036337173
1326.075513617709,1326.075513617709,1.0000459519351632,0.00016932848168606094
1326.0824581649338,1326.0824581649338,1.0001701191128447,0.0001693479635998096
1326.0894027122165,1326.0894027122165,0.9998750361249009,0.00016936291838817833
1326.0963472594995,1326.0963472594995,1.0001373557665383,0.00016938148009906537
1326.1032918068406,1326.1032918068406,0.9999739876606066,0.00016939385031760037
1326.1102363542275,1326.1102363542275,0.9998828166123808,0.0001693933010599966
1326.11718090165,1326.11718090165,1.0002253648405337,0.00016943472261494877
1326.1241254491074,1326.1241254491074,0.9999906650731644,0.000169418182596312
1326.1310699966118,1326.1310699966118,0.9997687656244599,0.0001694190768075302
1326.1380145441267,1326.1380145441267,1.0002475265630717,0.00016945350850948093
1326.1449590917011,1326.1449590917011,1.0001218095658533,0.00016947427913394756
1326.1519036393329,1326.1519036393329,0.9997094005424824,0.00016944015575843054
1326.158848186988,1326.158848186988,0.9999447370459281,0.00016947454279719548
1326.1657927346669,1326.1657927346669,1.000128414501468,0.00016949419388618528
1326.1727372823916,1326.1727372823916,1.0001151641123955,0.00016949036888516791
1326.1796818301286,1326.1796818301286,0.9997799000369525,0.00016947898619965588
1326.1866263779234,1326.1866263779234,0.9997435494327135,0.00016948283388064242
1326.1935709257534,1326.1935709257534,1.000270551020937,0.00016952431195054284
1326.2005154735834,1326.2005154735834,1.000245428696023,0.0001695392552331654
1326.2074600214949,1326.2074600214949,1.000016469183865,0.0001695279133208831
1326.2144045694063,1326.2144045694063,0.9997385777727861,0.00016953224357955075
1326.221349117364,1326.221349117364,1.0000885968728768,0.00016955290736591508
1326.2282936653337,1326.2282936653337,0.9998893011556869,0.0001695612681039048
1326.2352382133497,1326.2352382133497,0.9998066023621421,0.00016956956864654484
1326.2421827614005,1326.2421827614005,1.0001366399662692,0.00016958219010345586
1326.2491273094756,1326.2491273094756,1.0001876941743422,0.00016961129903241977
1326.2560718575846,1326.2560718575846,1.0002944994678011,0.00016963963195592514
1326.263016405694,1326.263016405694,0.9999933877395352,0.00016963420197576797
1326.2699609538734,1326.2699609538734,0.9997304258066961,0.00016963370401362494
1326.276905502064,1326.276905502064,0.9999682053299145,0.00016966045562462413
1326.2838500502899,1326.2838500502899,0.9999627014176424,0.00016967413918764993
1326.2907945985269,1326.2907945985269,1.0001107383363894,0.00016971159083276115
1326.297739146811,1326.297739146811,1.0000003216261446,0.0001697265426210051
1326.3046836951062,1326.3046836951062,0.9998362793864682,0.0001697183616389349
1326.311628243437,1326.311628243437,1.0000019340800228,0.0001697644858487344
1326.3185727917908,1326.3185727917908,0.9999272573223559,0.00016978797923620202
1326.3255173401676,1326.3255173401676,0.999939242663076,0.0001698082712614686
1326.3324618885913,1326.3324618885913,1.0001349916581612,0.00016984948603603295
1326.33940643698,1326.33940643698,1.000199964649131,0.00016988272825975507
1326.3474621132136,1326.3474621132136,1.0001478961400254,0.0001699054204341136
1326.3560733533338,1326.3560733533338,0.9999388604792949,0.0001699277099410459
1326.363017901851,1326.363017901851,0.9997967737304998,0.00016995667294598423
1326.3699624503793,1326.3699624503793,0.9998099417155656,0.00016996523468889815
1326.3769069989426,1326.3769069989426,1.0000876190922796,0.00017002877054445395
1326.3838515475175,1326.3838515475175,0.9997996111709473,0.0001700251127740617
1326.3907960961274,1326.3907960961274,1.000004285496818,0.00017007090729814352
1326.397740644749,1326.397740644749,1.0001407275132759,0.0001701126471461586
1326.4046851934052,1326.4046851934052,1.0003458311049802,0.0001701344851877967
1326.411629742074,1326.411629742074,0.9999109652236244,0.0001701364454534736
1326.4185742907648,1326.4185742907648,0.9999619277736184,0.00017017496837363054
1326.425518839468,1326.425518839468,1.0001713767337441,0.00017020059922989402
1326.4324633882056,1326.4324633882056,0.9997174943995104,0.00017019315457915434
1326.4394079369438,1326.4394079369438,1.0001880385771762,0.00017025889723232686
1326.44635248574,1326.44635248574,1.0000098203475596,0.0001702649483620133
1326.4532970345244,1326.4532970345244,0.9999264467108665,0.00017029780537988821
1326.460241583344,1326.460241583344,0.9998190227726538,0.00017031847327886473
1326.4671861321633,1326.4671861321633,1.0000160038050683,0.00017034720718520232
1326.4741306810174,1326.4741306810174,0.9999192532256316,0.0001703673357239442
1326.481075229884,1326.481075229884,1.000109293360875,0.0001704035882399445
1326.488019778761,1326.488019778761,1.0002167372921242,0.00017043911949755187
1326.494964327674,1326.494964327674,0.9997162309834888,0.00017042888251434624
1326.5019088765978,1326.5019088765978,1.0000305622202648,0.00017046993877628476
1326.5088534255342,1326.5088534255342,1.000004821804636,0.0001704929707595578
1326.5157979744931,1326.5157979744931,1.0000425281928391,0.0001705197013975029
1326.5227425234639,1326.5227425234639,1.0000794400478266,0.0001705568019722702
1326.529687072458,1326.529687072458,0.9999661106968507,0.00017058805171515007
1326.5366316214634,1326.5366316214634,0.999949415984959,0.00017061540956845366
1326.543576170458,1326.543576170458,0.9999926255111757,0.00017065735920653946
1326.5505207195333,1326.5505207195333,0.9998641230234533,0.00017069065255103337
1326.557465268574,1326.557465268574,1.000256799869217,0.00017073140079676533
1326.5644098176494,1326.5644098176494,1.0000699105037651,0.0001707314529283644
1326.5713543667248,1326.5713543667248,0.9999671138015959,0.00017073753627096813
1326.578298915824,1326.578298915824,0.9998163393250632,0.00017074833031262664
1326.5852434649457,1326.5852434649457,1.000098759786734,0.00017078901776821997
1326.5921880140681,1326.5921880140681,0.9999522847874797,0.00017080163355154163
1326.5991325632135,1326.5991325632135,1.000000894333183,0.0001708221984777952
1326.6060771123705,1326.6060771123705,1.0000583923877187,0.00017084919745564148
1326.613021661551,1326.613021661551,0.9999849887295437,0.0001708659258458555
1326.6199662107192,1326.6199662107192,1.000191019347465,0.00017089442653897682
1326.6269107599232,1326.6269107599232,0.9999093069845308,0.00017088350905560988
1326.633855309138,1326.633855309138,0.9999447599551214,0.0001708960973961059
1326.6407998583538,1326.6407998583538,0.9999493972336625,0.00017089466806810138
1326.647744407604,1326.647744407604,1.0001064733080542,0.00017091420242043885
1326.654688956854,1326.654688956854,0.9998772263387291,0.00017089314190843076
1326.6616335061042,1326.6616335061042,0.9997607316070127,0.00017086568499556816
1326.6685780553773,1326.6685780553773,1.0002078871490117,0.00017088290818667126
1326.6755226046746,1326.6755226046746,0.9997680610599236,0.0001708520559076215
1326.6824671539475,1326.6824671539475,1.0001527725221735,0.00017085195178493585
1326.6908006131318,1326.6908006131318,1.0001670089526187,0.0001708394280142888
1326.6977451624518,1326.6977451624518,1.000021097994243,0.00017080946532145743
1326.7046897117718,1326.7046897117718,1.0000867861397018,0.00017078541236756608
1326.7124676070684,1326.7124676070684,1.0000157072774374,0.00017077944146204913
1326.7199677203578,1326.7199677203578,0.9999895174441494,0.00017076167774465447
1326.726912269724,1326.726912269724,0.9998773802366292,0.00017074079936323154
1326.733856819114,1326.733856819114,0.9999202626164472,0.00017072819830446728
1326.7408013684924,1326.7408013684924,0.9999927615173989,0.00017070214253921763
1326.7477459178936,1326.7477459178936,0.9999910077203804,0.00017071307816811992
1326.7546904673068,1326.7546904673068,0.9999898272538308,0.00017072190210063232
1326.7616350167198,1326.7616350167198,1.0001128359714766,0.00017071997634892632
1326.7685795661448,1326.7685795661448,1.0000268533609793,0.0001707127783656147
1326.775524115581,1326.775524115581,1.0000259671394143,0.00017069748707958612
1326.7824686650292,1326.7824686650292,0.9998614344862865,0.0001706944017194053
1326.7894132144775,1326.7894132144775,1.0000310614696097,0.000170715681485953
1326.7963577639487,1326.7963577639487,1.0001237073048619,0.0001707363878435203
1326.803302313409,1326.803302313409,0.9998776013480049,0.00017073672677813914
1326.8102468629029,1326.8102468629029,0.9999367569431387,0.00017075107430809485
1326.8171914123861,1326.8171914123861,1.0000745444446086,0.00017075702210964035
1326.8241359618805,1326.8241359618805,0.9999141283322004,0.00017075994681068252
1326.8310805113986,1326.8310805113986,1.0000109342703059,0.00017074981739498963
1326.8380250609048,1326.8380250609048,0.9998131609670636,0.00017074913473730415
1326.8449696104228,1326.8449696104228,1.0003757736408037,0.00017076854981960718
1326.8519141599522,1326.8519141599522,0.9999112932863886,0.00017074376112313536
1326.8588587094935,1326.8588587094935,0.9998289031162789,0.00017070891136713326
1326.8658032590351,1326.8658032590351,1.0001887246311305,0.00017072192244693558
1326.8727478085762,1326.8727478085762,1.0000344987698013,0.00017069140132898295
1326.8796923581406,1326.8796923581406,1.0000840068914145,0.00017064616988857542
1326.8866369077052,1326.8866369077052,0.9999783385870977,0.00017060962445564353
1326.893581457281,1326.893581457281,1.0000845777238436,0.00017058816106334438
1326.9005260068461,1326.9005260068461,1.0000488510796108,0.0001705245056580875
1326.907470556445,1326.907470556445,0.999728604487375,0.00017047681901636934
1326.9144151060095,1326.9144151060095,1.0003453085376648,0.00017046089387936575
1326.9213596556208,1326.9213596556208,1.0001672567192093,0.00017039634975575443
1326.9283042052318,1326.9283042052318,0.9996718673477785,0.000170318839083157
1326.9352487548429,1326.9352487548429,1.0000165978614093,0.00017031188273884836
1326.9421933044537,1326.9421933044537,1.0000403857388653,0.0001702479831951157
1326.9491378540652,1326.9491378540652,0.9998082662879739,0.00017019938126679022
1326.9560824036757,1326.9560824036757,1.000192443730988,0.00017019435195037605
1326.963026953334,1326.963026953334,0.9999647881706858,0.0001701264960957471
1326.9699715029565,1326.9699715029565,0.9999746764030389,0.00017009308538881883
1326.9769160526023,1326.9769160526023,0.9999506861215547,0.00017005506948287788
1326.983860602237,1326.983860602237,1.0003269772249,0.0001700416482567874
1326.9908051519062,1326.9908051519062,0.9997577132287487,0.00016998574955669386
1326.997749701552,1326.997749701552,1.0000770377621346,0.00016998954099792062
1327.0046942512097,1327.0046942512097,1.0001189887363497,0.0001699883905988667
1327.0116388008787,1327.0116388008787,1.0000294180435148,0.00016998772189207552
1327.0185833505482,1327.0185833505482,0.9999940442797733,0.00016996280554174625
1327.025527900229,1327.025527900229,0.9997497765480761,0.00016995739247553757
1327.0324724498985,1327.0324724498985,0.9999744628865732,0.00016998136171256738
1327.039416999579,1327.039416999579,1.0000279196133295,0.00016996060308337792
1327.046361549272,1327.046361549272,1.000005408948268,0.00016996403563071928
1327.0533060989642,1327.0533060989642,1.0002483800147792,0.00016998380909709413
