time,time,flux,flux_err
1570.7315900013975,1570.7315900013975,0.9996463408136219,0.0005433512990909182
1570.7399234480508,1570.7399234480508,1.0002553266023828,0.0005418941041938875
1570.7482568948587,1570.7482568948587,1.0004728040874216,0.0005403332189163418
1570.75589588774,1570.75589588774,1.0006847322696786,0.0004920926824272862
1570.7628404266325,1570.7628404266325,0.9999276364626966,0.0004908797026054494
1570.7697849658045,1570.7697849658045,0.9993127300338112,0.0004895599659459631
1570.7767295046983,1570.7767295046983,1.0004471640551427,0.0004887976963297233
1570.7836740438702,1570.7836740438702,0.999140330009789,0.0004876001789183618
1570.7906185831355,1570.7906185831355,0.998845680713439,0.00048675585499131013
1570.797563121935,1570.797563121935,1.0002477277038508,0.00048612617291830703
1570.8045076611993,1570.8045076611993,1.000561050572473,0.0004852154969489173
1570.8114522004657,1570.8114522004657,1.000224666624477,0.0004842875749423824
1570.8183967397313,1570.8183967397313,0.9996428606564741,0.0004836586261807694
1570.825341278996,1570.825341278996,1.0006109561982985,0.00048287584246649193
1570.8322858182612,1570.8322858182612,1.0002722019520274,0.0004819977467884604
1570.8392303575263,1570.8392303575263,0.9998462558214853,0.0004813650570775212
1570.8461748967923,1570.8461748967923,1.0006162935184082,0.0004806607385850031
1570.8531194360578,1570.8531194360578,1.0001393977333812,0.0004798983229091146
1570.8600639753226,1570.8600639753226,1.0002356684610216,0.0004794338350355908
1570.8670085145877,1570.8670085145877,0.9994365498939877,0.0004789252004129754
1570.8739530538526,1570.8739530538526,0.9999701373893173,0.0004785706417183958
1570.881730938017,1570.881730938017,0.9992858115542192,0.00047802858390636496
1570.8892310407027,1570.8892310407027,1.0002445921320038,0.00047759512803216087
1570.8961755799678,1570.8961755799678,0.9999111491421825,0.00047707851768760375
1570.903120119233,1570.903120119233,1.0001044392398146,0.0004766053529833455
1570.9100646589634,1570.9100646589634,1.0002318755650894,0.00047606840966254803
1570.9170091982298,1570.9170091982298,1.0001207934343608,0.00047559949191342205
1570.9239537376816,1570.9239537376816,0.999446925237384,0.0004747838685434963
1570.9308982772257,1570.9308982772257,1.0002310765820819,0.0004740146458102663
1570.937842816584,1570.937842816584,1.0000989447281887,0.0004736381092666624
1570.9447873562215,1570.9447873562215,1.0002576508853696,0.0004730484941055851
1570.9517318955805,1570.9517318955805,0.9996158667016865,0.00047208308275536407
1570.9586764352184,1570.9586764352184,1.0004187952352488,0.000471732622977797
1570.9656209746695,1570.9656209746695,0.9997944643356318,0.0004709945653106541
1570.972565514214,1570.972565514214,0.9993782369003827,0.0004704872928906354
1570.9795100537585,1570.9795100537585,1.0008233362761116,0.00046991038149814403
1570.986454593211,1570.986454593211,0.9997006041833167,0.0004695126878990994
1570.993399132942,1570.993399132942,0.9998457479903724,0.00046882400014571553
1571.0003436723932,1571.0003436723932,1.0002318719096324,0.00046824327607622224
1571.0072882119377,1571.0072882119377,1.000731801575744,0.00046754370623236887
1571.0142327515755,1571.0142327515755,0.9998795963791707,0.0004667210854577522
1571.0211772911202,1571.0211772911202,0.9998483309834614,0.000466043674179337
1571.0281218306654,1571.0281218306654,0.9996924985923817,0.0004654465740106706
1571.0350663703032,1571.0350663703032,0.9995971280251353,0.00046481779664191874
1571.0420109098472,1571.0420109098472,1.0001780512900502,0.0004641270960597177
1571.0489554493918,1571.0489554493918,0.9991438468266576,0.0004631402756538476
1571.0558999891232,1571.0558999891232,1.0005002416714528,0.00046299116764083047
1571.0628445286682,1571.0628445286682,1.0003555585646497,0.00046218532359675144
1571.0697890682127,1571.0697890682127,0.9998402755420164,0.0004613595134708174
1571.0767336078504,1571.0767336078504,1.0007978183219246,0.0004606408961025586
1571.0836781474877,1571.0836781474877,0.9999868132197939,0.0004598800314517137
1571.0906226870325,1571.0906226870325,0.999721274127291,0.00045919612349278125
1571.0975672265781,1571.0975672265781,0.999767002756396,0.00045862059427154405
1571.1045117663089,1571.1045117663089,0.9994196861613389,0.00045799713684663144
1571.1114563058534,1571.1114563058534,0.9995071416856135,0.0004574242456831368
1571.1184008453047,1571.1184008453047,1.000878787858146,0.0004571083409676474
1571.1253453850354,1571.1253453850354,1.0002812210452734,0.00045634707224512445
1571.1322899245806,1571.1322899245806,1.0000907686875986,0.00045587345975304556
1571.1392344641256,1571.1392344641256,0.9999987451982125,0.00045547754594106577
1571.146179003763,1571.146179003763,1.0002130936938889,0.0004549516735401586
1571.1531235434006,1571.1531235434006,0.9998623670747486,0.00045444531048956574
1571.160068082852,1571.160068082852,0.9998604381788742,0.00045401933380190154
1571.1670126224901,1571.1670126224901,0.9993343723791177,0.00045357896585271123
1571.173957162035,1571.173957162035,1.0005183472183343,0.0004532832080200379
1571.1809017014866,1571.1809017014866,0.9997839940209559,0.00045292944393151083
1571.187846241217,1571.187846241217,0.9997584556669896,0.00045251249420584624
1571.1947907806684,1571.1947907806684,1.0001622147882077,0.0004522972876522946
1571.2017353202136,1571.2017353202136,1.0001095003127405,0.0004518580661145009
1571.2086798598516,1571.2086798598516,0.9997888646650079,0.0004515279745923924
1571.21562439921,1571.21562439921,1.0003440898653113,0.00045138059384786734
1571.2225689389409,1571.2225689389409,1.0002583202642756,0.0004509876531750663
1571.2295134782053,1571.2295134782053,0.9998404510313614,0.0004507121340365135
1571.236458017937,1571.236458017937,0.9998229982018529,0.00045027223741048823
1571.2434025572031,1571.2434025572031,0.9999109573658916,0.00045017444291912034
1571.2503470969332,1571.2503470969332,1.000846273401446,0.00044996304027241317
1571.2572916361987,1571.2572916361987,0.9992513481237619,0.00044939178057201175
1571.264236175743,1571.264236175743,1.0000221584773628,0.00044926182031001757
1571.271180715194,1571.271180715194,1.000015991870943,0.00044886227035599856
1571.2781252544603,1571.2781252544603,1.0000765607205249,0.00044849150254990986
1571.2850697941915,1571.2850697941915,1.0000885609642574,0.00044819127916837637
1571.2920143334563,1571.2920143334563,0.99987741895206,0.00044775172653511617
1571.2989588727212,1571.2989588727212,1.000238051206344,0.00044764456329624794
1571.3059034123587,1571.3059034123587,1.0000588810852258,0.0004471874605637402
1571.3128479517175,1571.3128479517175,1.0002243283250256,0.00044691612524609534
1571.3197924909832,1571.3197924909832,1.0000254050924204,0.00044643661991576155
1571.3267370302485,1571.3267370302485,1.0002337584243595,0.0004459629003240433
1571.3336815695134,1571.3336815695134,0.9998041792003962,0.00044558104527123556
1571.3406261090577,1571.3406261090577,1.0001035613740017,0.00044529479404149835
1571.3475706485092,1571.3475706485092,1.0000249582655938,0.00044500798437238913
1571.3545151877754,1571.3545151877754,1.0000522142207011,0.0004447612354574417
1571.3614597270405,1571.3614597270405,1.0010396929132834,0.00044439003798409484
1571.3684042663058,1571.3684042663058,0.999969691524103,0.0004439410140281004
1571.3753488055706,1571.3753488055706,0.9993173568220695,0.00044343674062997636
1571.382293344836,1571.382293344836,0.9991333572469168,0.00044325571210982443
1571.3892378837286,1571.3892378837286,1.0000460990445057,0.00044298063317482685
1571.3961824229013,1571.3961824229013,0.999517802903255,0.00044254245554048715
1571.4031269621667,1571.4031269621667,1.0001777451523313,0.0004424039718541172
1571.4100715014315,1571.4100715014315,1.0000579688704474,0.00044218248987209054
1571.4170160406964,1571.4170160406964,0.9998254151028927,0.00044187479386390515
1571.423960579496,1571.423960579496,1.0001944534146208,0.0004415690648815332
1571.4309051187622,1571.4309051187622,0.9994828135405542,0.00044120059876375255
1571.4378496579343,1571.4378496579343,1.0008351048044006,0.00044133182387015205
1571.444794196827,1571.444794196827,0.999943710890664,0.00044081563123707444
1571.4517387360916,1571.4517387360916,1.0001208532362054,0.00044070706091642943
1571.4586832748912,1571.4586832748912,0.9981410177900445,0.0004402236941506192
1571.4656278141567,1571.4656278141567,1.000126182713917,0.00044058518636708367
1571.4725723529568,1571.4725723529568,0.999842447416173,0.00044016618445749813
1571.4795168920357,1571.4795168920357,1.0007371975008943,0.00044037064335860786
1571.4864614310213,1571.4864614310213,1.0001419713363844,0.0004403141235947906
1571.4934059698205,1571.4934059698205,1.0005801533588972,0.00044004393524690123
1571.5003505087134,1571.5003505087134,0.999585193366008,0.00043991123196689797
1571.5072950477,1571.5072950477,1.0004238030439296,0.0004401044574365908
1571.5142395864993,1571.5142395864993,1.0002185292322079,0.00043991162816272385
1571.521184125392,1571.521184125392,0.9994471498338828,0.00043979877026813
1571.5281286641914,1571.5281286641914,0.9999682907165862,0.00043965221317974763
1571.5350732029906,1571.5350732029906,1.0001173360269657,0.0004396070807144853
1571.5420177416975,1571.5420177416975,0.9995618341830055,0.0004396712454761909
1571.5489622804976,1571.5489622804976,0.9997949961227436,0.0004394951840598083
1571.5559068192038,1571.5559068192038,0.9998739950613462,0.00043945161839718864
1571.56285135791,1571.56285135791,1.000137693139484,0.00043946511699930553
1571.5697958965234,1571.5697958965234,1.0006831606908624,0.000439473548562286
1571.5767404352293,1571.5767404352293,0.9996062653225604,0.00043922075218627945
1571.5836849739367,1571.5836849739367,0.9998947596874593,0.00043927140154197635
1571.5906295124569,1571.5906295124569,0.9999746413462802,0.0004391869602461781
1571.59757405107,1571.59757405107,1.0002098642002288,0.0004391031609059885
1571.6045185895903,1571.6045185895903,1.0002378924326674,0.00043907700549275497
1571.611463128203,1571.611463128203,1.0003017378507018,0.0004390240768924656
1571.61840766663,1571.61840766663,0.9995432806765974,0.00043894725838593404
1571.6253522051516,1571.6253522051516,0.9999034533121298,0.00043891338775035665
1571.632296743485,1571.632296743485,0.9995290463499721,0.0004390422421691311
1571.639241282005,1571.639241282005,1.0005980875018057,0.0004389623076392757
1571.6461858203388,1571.6461858203388,1.0001068614068886,0.0004390293754234837
1571.6531303586726,1571.6531303586726,1.0000433861905942,0.00043894398858363473
1571.6600748970066,1571.6600748970066,0.9999016891287269,0.0004386863077194264
1571.6670194353414,1571.6670194353414,0.9997411264671484,0.00043866564582852865
1571.6739639735817,1571.6739639735817,1.0001301525272999,0.00043862677133479867
1571.6809085119157,1571.6809085119157,0.9998747443451318,0.0004384902872919927
1571.6878530500628,1571.6878530500628,0.9999892600906612,0.0004383998400711235
1571.6947975883966,1571.6947975883966,0.9999380418593283,0.00043826493071937007
1571.701742126452,1571.701742126452,1.000078891496003,0.00043815628596672316
1571.7086866645998,1571.7086866645998,0.9999552652720147,0.00043809011245752444
1571.715631202654,1571.715631202654,1.0004835508641516,0.00043789092552965847
1571.7225757408014,1571.7225757408014,1.0002361367087578,0.00043785373671431936
1571.729520278856,1571.729520278856,0.9996897604510512,0.00043760226163148095
1571.7364648168173,1571.7364648168173,0.9996917884295152,0.00043757838365099595
1571.7434093548727,1571.7434093548727,1.0001552141420729,0.00043747240557527156
1571.7503538928336,1571.7503538928336,1.0000595825230387,0.0004373016695766338
1571.7572984307021,1571.7572984307021,0.9998044083450675,0.0004369569801157869
1571.7642429686632,1571.7642429686632,0.9990360832791332,0.00043668466027992
1571.771187506438,1571.771187506438,1.0002898944370213,0.0004366636038711612
1571.7781320443062,1571.7781320443062,1.0003357135802016,0.0004365582110987565
1571.7850765821756,1571.7850765821756,1.0000701963504748,0.0004361138720773636
1571.7920211198575,1571.7920211198575,1.0006415551262473,0.0004361873139611912
1571.7989656576324,1571.7989656576324,0.9996622579544299,0.0004357760684996598
1571.805910195314,1571.805910195314,1.0004053690725392,0.0004357122890007231
1571.8128547329954,1571.8128547329954,1.000126515818342,0.00043560165516094457
1571.819799270678,1571.819799270678,0.9999486757944831,0.0004353942667248255
1571.8267438082678,1571.8267438082678,0.9996317430843525,0.0004353183262082356
1571.8336883457628,1571.8336883457628,0.9992132869000032,0.00043501958631300973
1571.8406328833516,1571.8406328833516,1.0002657674842683,0.0004352683919704361
1571.8475774208473,1571.8475774208473,1.0003607196997488,0.0004352018610037496
1571.8545219583425,1571.8545219583425,1.000117063208671,0.00043516956944481363
1571.8614664957458,1571.8614664957458,0.9997717662406199,0.000434775583590515
1571.8684110331492,1571.8684110331492,1.0004323670342479,0.00043486945158729176
1571.875355570551,1571.875355570551,0.9991137629756311,0.00043456213563563254
1571.8823001078606,1571.8823001078606,1.0004525472662833,0.0004346858321942573
1571.8892446450768,1571.8892446450768,0.9996841895925292,0.00043451666030563783
1571.8961891824788,1571.8961891824788,1.0005573148688163,0.0004347856762329635
1571.9031337196957,1571.9031337196957,0.9993397979032139,0.0004346232921821413
1571.9100782568196,1571.9100782568196,1.0007998513619865,0.00043483863709483945
1571.9170227940356,1571.9170227940356,1.0000354437993153,0.00043471029341606785
1571.9239673311588,1571.9239673311588,1.0000642795993988,0.00043468185116410634
1571.930911868095,1571.930911868095,0.9998029102008525,0.0004345655320003609
1571.9378564053113,1571.9378564053113,1.0002100589045742,0.00043474293618514444
1571.9448009424348,1571.9448009424348,1.0000177270726818,0.0004346830089425482
1571.9517454793724,1571.9517454793724,0.9995794567573061,0.0004345187609756917
1571.9586900163092,1571.9586900163092,1.000432419880137,0.0004345540695133552
1571.965634553246,1571.965634553246,0.9997424151690835,0.0004343878187099093
1571.9725790900895,1571.9725790900895,0.9992076319306065,0.00043436792577067525
1571.9795236266534,1571.9795236266534,0.9999901665453944,0.00043421962085873927
1571.986468163591,1571.986468163591,0.9998645702485274,0.00043428619234562986
1571.9934127004356,1571.9934127004356,1.0003431529607156,0.0004342580732094852
1572.0003572369994,1572.0003572369994,1.000692178971924,0.000434222466035391
1572.00730177375,1572.00730177375,0.9991293620977663,0.0004338819210489256
1572.014246310407,1572.014246310407,1.0009004026980646,0.0004340925881848013
1572.0211908469714,1572.0211908469714,1.0006552949284762,0.0004341121266317298
1572.0281353835364,1572.0281353835364,1.000549914442766,0.0004339949134606621
1572.0350799201012,1572.0350799201012,0.9997067212694745,0.0004335947592884584
1572.042024456572,1572.042024456572,0.9997986980161068,0.00043360696951115957
1572.0489689930437,1572.0489689930437,0.9999017182919687,0.000433631812681228
1572.055913529421,1572.055913529421,0.999815094869246,0.00043350343470956117
1572.0628580657994,1572.0628580657994,0.9995317715209833,0.0004333671052241978
1572.0698026020848,1572.0698026020848,1.0002411558547055,0.0004334213719727539
1572.0767471383701,1572.0767471383701,1.000034399078003,0.0004332135695368478
1572.083691674655,1572.083691674655,0.9998349300094134,0.00043316321374811965
1572.0906362108467,1572.0906362108467,1.00015119220987,0.00043302960353940306
1572.0975807469451,1572.0975807469451,1.0009256483983013,0.00043304736089761815
1572.1045252831368,1572.1045252831368,0.999771075331204,0.00043294535864875334
1572.1114698192357,1572.1114698192357,0.9999214333187043,0.0004327487655160094
1572.118414355335,1572.118414355335,1.0002312220936225,0.00043268054874798917
1572.125358891341,1572.125358891341,0.9993166010974331,0.00043261145234620575
1572.132303427253,1572.132303427253,1.0000700579627433,0.000432573896998406
1572.1392479632582,1572.1392479632582,0.9996517341854496,0.00043250277686580457
1572.1461924990776,1572.1461924990776,1.0004742037856358,0.00043262909894075177
1572.1531370348966,1572.1531370348966,0.9997928081096885,0.0004324336046750473
1572.1600815708102,1572.1600815708102,0.9996248549681626,0.0004323015372025972
1572.1670261065362,1572.1670261065362,0.9997555327037257,0.00043230079398851967
1572.1739706421693,1572.1739706421693,1.001459639061661,0.0004324120064276426
1572.1809151778953,1572.1809151778953,0.9996359398859445,0.000432061738182173
1572.1878597135278,1572.1878597135278,1.000184892056073,0.0004322083562717462
1572.1948042491608,1572.1948042491608,0.9993644683861914,0.0004320126698996086
1572.2017487847015,1572.2017487847015,1.000447978529746,0.000432155040061983
1572.2086933201485,1572.2086933201485,0.9994320142671175,0.00043204441126496054
1572.2156378556883,1572.2156378556883,1.000171895655543,0.0004320553630921627
1572.2225823910417,1572.2225823910417,0.9994769198477614,0.00043174376551290627
1572.2295269263955,1572.2295269263955,1.000517689789285,0.00043220447906722496
1572.236471461842,1572.236471461842,1.0000980133903032,0.00043195512660201666
1572.2434159970094,1572.2434159970094,0.9997445418798367,0.0004318115425524853
1572.2503605323639,1572.2503605323639,1.0003399421962618,0.0004318684257756707
1572.2573050675314,1572.2573050675314,0.9999663517923759,0.0004319149056163841
1572.2642496026983,1572.2642496026983,1.0000167647772975,0.0004316725675444267
1572.2711941377725,1572.2711941377725,1.0005631236717571,0.00043157843229972104
1572.2781386729398,1572.2781386729398,0.9996291272633233,0.00043153097840777625
1572.285083207921,1572.285083207921,0.9995087455138044,0.0004314351060971548
1572.2920277429027,1572.2920277429027,0.9997931898770197,0.00043137604109365086
1572.2989722777907,1572.2989722777907,1.0002720158209815,0.0004315101788539614
1572.3059168128646,1572.3059168128646,1.0000001701315175,0.0004312137834323163
1572.3128613474732,1572.3128613474732,0.9999614573535991,0.00043115312685279946
1572.319805882547,1572.319805882547,1.0001106707930632,0.0004312726576050418
1572.3267504171558,1572.3267504171558,1.0004632548229833,0.00043103432643417944
1572.3336949517652,1572.3336949517652,0.9996388522184105,0.0004308711613286118
1572.3406394863737,1572.3406394863737,0.99953326360945,0.00043066960877299263
1572.3475840209826,1572.3475840209826,1.0001386104621117,0.00043064530193169363
1572.3545285555906,1572.3545285555906,1.000365905115522,0.00043063175067476487
1572.361473090199,1572.361473090199,1.0002196925350155,0.00043061345368659447
1572.3684176248073,1572.3684176248073,1.0000346544764627,0.0004303508378834473
1572.3753621593235,1572.3753621593235,0.9999784516322776,0.00043037819470264987
1572.3823066935602,1572.3823066935602,0.999598866541751,0.00043030845089371447
1572.3892512280752,1572.3892512280752,1.0004181327718462,0.0004301592712859772
1572.3961957623112,1572.3961957623112,0.9997500984570289,0.0004300261529084047
1572.403140296547,1572.403140296547,0.9996642836391609,0.00043006695588532564
1572.410084830783,1572.410084830783,1.0004563661953632,0.00043016869424983934
1572.4170293649258,1572.4170293649258,0.9994832705582468,0.0004298239856184181
1572.4239738990696,1572.4239738990696,1.0001270694742947,0.00042984102004352904
1572.4309184331196,1572.4309184331196,0.9997906081263844,0.0004297547723565577
1572.4378629671694,1572.4378629671694,1.000720324155641,0.0004297590727560557
1572.4448075011255,1572.4448075011255,1.0000483523415753,0.0004295518411744561
1572.451752035082,1572.451752035082,1.0000710170335367,0.0004296023421722883
1572.4586965689457,1572.4586965689457,0.9995562295770448,0.0004295569844950258
1572.4656411028095,1572.4656411028095,0.9999304596788404,0.00042947415691646604
1572.4725856366736,1572.4725856366736,0.9996870902931043,0.0004294162850817106
1572.4795301703502,1572.4795301703502,0.999895235491369,0.0004293123254692985
1572.4864747040278,1572.4864747040278,1.0004634736161115,0.0004294350718629921
