time,time,flux,flux_err
1544.0992679857836,1544.0992679857836,0.9998491824020904,0.00025974177911248716
1544.1076014636571,1544.1076014636571,1.0000850359734694,0.0002595807486678241
1544.1159349415504,1544.1159349415504,0.9998773622661301,0.00025937148960604987
1544.1242684195404,1544.1242684195404,1.0003198914446387,0.000259328903934352
1544.1319074411247,1544.1319074411247,0.9999412630326452,0.00023645178740996255
1544.1388520061862,1544.1388520061862,1.0000732245590207,0.000236405180307563
1544.1457965713175,1544.1457965713175,1.0002108902798965,0.00023630721166465022
1544.1538522668945,1544.1538522668945,0.9998334825313959,0.0002361784506809441
1544.1610746147421,1544.1610746147421,0.9998593479016424,0.00023610291196764013
1544.1680191800133,1544.1680191800133,0.9998814073197512,0.00023598509778779576
1544.1749637452842,1544.1749637452842,0.9999934999944152,0.00023593109076274968
1544.1819083106252,1544.1819083106252,0.9999961211329461,0.00023583858159638462
1544.1888528759898,1544.1888528759898,1.0001248987592213,0.00023579653086198876
1544.1957974413772,1544.1957974413772,0.999796296951805,0.00023575756150490877
1544.202742006835,1544.202742006835,1.0001190876674342,0.0002356646156531842
1544.2096865723154,1544.2096865723154,1.0000220449830264,0.00023558360276719394
1544.2166311377964,1544.2166311377964,1.000100502845251,0.0002356256219467095
1544.223575703347,1544.223575703347,0.9999733359215673,0.00023553335564134443
1544.2305202689206,1544.2305202689206,0.9997463781408611,0.0002355326483541397
1544.2374648344944,1544.2374648344944,0.9997908717272018,0.00023546083369764716
1544.2444094001846,1544.2444094001846,1.0001663723634455,0.00023541014102819712
1544.2513539658282,1544.2513539658282,1.0002216410370175,0.00023540009555557133
1544.2582985315191,1544.2582985315191,1.000194831532645,0.00023543634139899165
1544.2652430972557,1544.2652430972557,0.9998705556300955,0.00023529838333107277
1544.2721876629926,1544.2721876629926,1.0001519643100407,0.00023527546270095135
1544.279132228799,1544.279132228799,1.0002999491751166,0.0002352469146313239
1544.2860767945826,1544.2860767945826,1.0000578901029034,0.00023506337691401756
1544.2930213604127,1544.2930213604127,1.0001784549928545,0.0002351151398900182
1544.299965926266,1544.299965926266,0.9999487961540691,0.00023505649601885978
1544.306910492189,1544.306910492189,0.9997619573863735,0.00023498660312955695
1544.3138550580888,1544.3138550580888,0.9998691159644298,0.0002349589095895878
1544.3207996240121,1544.3207996240121,1.0002796866151846,0.00023490054042976283
1544.3277441899813,1544.3277441899813,1.0000070808667716,0.00023486169809195273
1544.3346887559514,1544.3346887559514,0.9999303735328944,0.00023475918536373632
1544.3416333219675,1544.3416333219675,1.0001254340074106,0.00023467881997721513
1544.3485778879835,1544.3485778879835,0.9999719853598725,0.0002346736312878637
1544.3555224540232,1544.3555224540232,0.9999961492431376,0.00023456228184464217
1544.362467020086,1544.362467020086,1.0005210947460697,0.00023454201253248286
1544.3694115861952,1544.3694115861952,1.0004331695733644,0.00023445513680829202
1544.3763561522583,1544.3763561522583,0.9993458375153977,0.00023420034923680788
1544.3833007184141,1544.3833007184141,0.999957284370257,0.00023417742467080256
1544.39024528457,1544.39024528457,0.9999041144886907,0.00023414763737848718
1544.397189850726,1544.397189850726,0.999872246489419,0.00023404292954397484
1544.4041344168822,1544.4041344168822,0.9997577764122788,0.00023398179864152097
1544.4110789830843,1544.4110789830843,1.0002462208913345,0.00023395163271307858
1544.4180235493102,1544.4180235493102,1.0002788141788532,0.00023384577152458247
1544.4249681155359,1544.4249681155359,1.000294346805534,0.00023377830083877303
1544.431912681785,1544.431912681785,1.0000115658097455,0.0002337046140977063
1544.4388572480343,1544.4388572480343,1.000489271881754,0.00023370505087852984
1544.4458018143296,1544.4458018143296,0.9997496838409198,0.0002335615188267403
1544.452746380602,1544.452746380602,0.9998323949254335,0.00023353943246063038
1544.4596909468978,1544.4596909468978,1.0000972100134418,0.0002334897370389601
1544.4666355132401,1544.4666355132401,0.99986662916351,0.00023339356150154917
1544.4735800795588,1544.4735800795588,1.0000366503758515,0.0002333913742716534
1544.4805246459243,1544.4805246459243,1.0000912450052333,0.00023332782846153627
1544.4874692122664,1544.4874692122664,1.000143980359226,0.000233326923683228
1544.4944137786083,1544.4944137786083,1.0002343672279486,0.00023333270337761014
1544.5013583449975,1544.5013583449975,0.999731618154977,0.00023323262184500544
1544.5083029113862,1544.5083029113862,1.0001216138544173,0.00023327510574133706
1544.5152474777983,1544.5152474777983,0.9998534449021648,0.00023326401657334443
1544.522192044187,1544.522192044187,1.0000425746052701,0.00023324470941697793
1544.5291366106223,1544.5291366106223,0.9999848936875111,0.0002332289295614891
1544.536081177011,1544.536081177011,0.9996941213089354,0.00023321046907537048
1544.5430257434698,1544.5430257434698,1.0000718097862566,0.00023322323804180752
1544.5499703099051,1544.5499703099051,1.0003855802093446,0.00023318106862053688
1544.5569148763636,1544.5569148763636,0.9996595783940865,0.0002331726522615174
1544.5638594428224,1544.5638594428224,1.0001459675625677,0.00023316345271473085
1544.5708040093039,1544.5708040093039,0.999967142717141,0.00023313558975366372
1544.577748575763,1544.577748575763,1.0000596617403106,0.00023309311754525394
1544.584693142268,1544.584693142268,0.9997557923532453,0.0002330406334848887
1544.5916377087265,1544.5916377087265,1.0001021943210362,0.00023304930007772665
1544.5985822752316,1544.5985822752316,0.9999647926332511,0.00023307717413330914
1544.6055268417135,1544.6055268417135,1.0002304341304347,0.00023309954008351097
1544.6124714082187,1544.6124714082187,1.0000692499383388,0.0002329719913546922
1544.6194159747477,1544.6194159747477,0.9998633700363486,0.0002330271986023215
1544.6263605412526,1544.6263605412526,1.0000499554276185,0.00023295888421713914
1544.6333051077577,1544.6333051077577,0.9999400522793968,0.00023293607574364434
1544.641638587587,1544.641638587587,0.9999114872973607,0.0002329662061354595
1544.6485831541154,1544.6485831541154,0.9999516523375463,0.00023295678900606712
1544.655527720644,1544.655527720644,1.0001371858276145,0.0002329969028764392
1544.662472287149,1544.662472287149,0.9998830000232207,0.00023295486302896817
1544.669416853701,1544.669416853701,1.0000188522648008,0.00023291905692652374
1544.6763614202523,1544.6763614202523,1.0000635036814276,0.00023291128428113965
1544.6833059867813,1544.6833059867813,1.0001023628888213,0.00023297195409817444
1544.6902505532862,1544.6902505532862,0.999800420826771,0.0002328468488552101
1544.6971951198382,1544.6971951198382,1.0001200710559908,0.00023297195600494925
1544.7041396863897,1544.7041396863897,1.0004025900148907,0.00023285597426148688
1544.7110842529182,1544.7110842529182,1.0002866123725835,0.0002329246317970381
1544.71802881947,1544.71802881947,0.9995637718099291,0.00023279571577634834
1544.7249733860217,1544.7249733860217,0.9999711138954476,0.00023281327821586076
1544.7319179525498,1544.7319179525498,0.9999911923745485,0.00023280824135489794
1544.7388625190786,1544.7388625190786,0.9997666040395459,0.00023283301381965318
1544.745807085607,1544.745807085607,1.0002702604717695,0.0002327992112884806
1544.7527516521588,1544.7527516521588,1.0003997974046421,0.00023292620131764794
1544.7596962186874,1544.7596962186874,0.9997436558332952,0.0002327954905527258
1544.766640785239,1544.766640785239,0.9998203416812673,0.00023281225482931663
1544.773585351744,1544.773585351744,0.9999589838356178,0.00023277474496866674
1544.780529918296,1544.780529918296,1.0001269902160104,0.00023274394189922915
1544.787474484824,1544.787474484824,0.9998957662961792,0.00023276025078115175
1544.7944190513294,1544.7944190513294,0.999965583560876,0.0002327629716863691
1544.801363617858,1544.801363617858,1.000305925091121,0.00023280231583762195
1544.8083081843859,1544.8083081843859,1.0000443461310462,0.00023270449980100803
1544.8152527508914,1544.8152527508914,0.9999582055204265,0.0002327569596744914
1544.8221973173963,1544.8221973173963,0.999946666533759,0.00023269040447364397
1544.8291418839017,1544.8291418839017,0.9997798047048958,0.00023264751758266794
1544.8360864504066,1544.8360864504066,1.0000406204192553,0.00023268874997614677
1544.8430310169122,1544.8430310169122,0.9997814318943516,0.00023267752864693093
1544.8499755833939,1544.8499755833939,1.0001953270020514,0.00023269805281545355
1544.8569201498995,1544.8569201498995,0.9999255481047917,0.00023265846055545904
1544.8638647163812,1544.8638647163812,0.9999341655923063,0.00023261868656862102
1544.87080928284,1544.87080928284,1.0003636270309868,0.00023260588896815033
1544.8777538493216,1544.8777538493216,0.9995196007127198,0.00023253685232011036
1544.8846984158035,1544.8846984158035,1.0004246714903045,0.0002326475759517358
1544.8916429822389,1544.8916429822389,1.0005812885602654,0.00023263296903173873
1544.8985875486974,1544.8985875486974,0.9996443869236972,0.00023257805539180903
1544.9055321151327,1544.9055321151327,0.9997751700126447,0.00023253201708707994
1544.9124766815912,1544.9124766815912,0.999926651312346,0.0002324981878412238
1544.9194212480263,1544.9194212480263,0.9999648074874955,0.00023249102867391424
1544.9263658144387,1544.9263658144387,1.0000078908025773,0.00023244940120833356
1544.933310380874,1544.933310380874,0.9999366409695798,0.00023241043021926972
1544.9402549472625,1544.9402549472625,1.0000006220014108,0.000232483021178039
1544.9471995136748,1544.9471995136748,0.9997957566443446,0.00023240267730082454
1544.9541440800635,1544.9541440800635,1.000036125388902,0.00023236768041654858
1544.9610886464523,1544.9610886464523,1.000235164326201,0.00023239538831169496
1544.968033212841,1544.968033212841,1.0002806784507634,0.00023245467514555106
1544.9749777791833,1544.9749777791833,1.0000589290114426,0.00023232058662711104
1544.9819223455718,1544.9819223455718,0.9995698113777787,0.000232234560568398
1544.9888669119373,1544.9888669119373,1.0000975101413574,0.00023229822614477029
1544.9958114782328,1544.9958114782328,0.9999209535250552,0.00023227001826636273
1545.0027560445985,1545.0027560445985,0.9999884210977656,0.00023224699842201184
1545.009700610894,1545.009700610894,1.0000389525485005,0.00023230291986192278
1545.0166451772363,1545.0166451772363,0.9999541169707568,0.0002322082498332251
1545.0235897435316,1545.0235897435316,1.0002138721082785,0.00023224818722031578
1545.0305343098275,1545.0305343098275,0.9999565501882837,0.000232207401224744
1545.0374788760996,1545.0374788760996,1.0001590514684175,0.00023218993178931684
1545.0444234423721,1545.0444234423721,0.9997785498425091,0.00023212246485871906
1545.0513680086442,1545.0513680086442,0.9998874917937283,0.0002321497182047962
1545.0583125748933,1545.0583125748933,0.9999326388441088,0.00023211504702204768
1545.0652571411194,1545.0652571411194,1.0001093675703228,0.0002321519400069711
1545.0722017073683,1545.0722017073683,1.0002307884655182,0.00023213894594516856
1545.0791462735474,1545.0791462735474,0.999867134927871,0.00023207367362777846
1545.0860908397967,1545.0860908397967,0.9999876630604545,0.00023208142603296536
1545.0930354059756,1545.0930354059756,1.0001401009853237,0.00023203565670871555
1545.0999799721317,1545.0999799721317,0.9999197201303032,0.0002320180975279227
1545.1069245382873,1545.1069245382873,1.0000516271249924,0.00023209679059427824
1545.113869104443,1545.113869104443,0.9999024967409624,0.00023201917425114287
1545.1208136705995,1545.1208136705995,1.000283829089528,0.00023205255761930298
1545.1277582367552,1545.1277582367552,0.9998799227521922,0.000231999255379909
1545.134702802911,1545.134702802911,0.9998571666600371,0.00023195247020667682
1545.1416473689508,1545.1416473689508,0.999619730545502,0.00023200172617910447
1545.148591935083,1545.148591935083,0.9999933249187247,0.00023191539856404382
1545.1555365011461,1545.1555365011461,0.9998685105134438,0.00023191483417930514
1545.1624810672088,1545.1624810672088,1.0001435393414084,0.00023194240199282448
1545.1694256332714,1545.1694256332714,1.000461227552187,0.00023194654736804444
1545.1763701993111,1545.1763701993111,1.0002292258365988,0.0002318590404990954
1545.1833147653504,1545.1833147653504,0.9997601046302771,0.00023182483978343072
1545.1902593313669,1545.1902593313669,0.9997647263547297,0.000231801780655716
1545.1972038973365,1545.1972038973365,1.000436944308173,0.00023188947699272263
1545.2041484633526,1545.2041484633526,0.9998125849563589,0.0002318215671954698
1545.2110930292988,1545.2110930292988,0.999829137035553,0.00023184671830742964
1545.2180375952455,1545.2180375952455,1.0000348551099703,0.00023186214688723254
1545.2249821611917,1545.2249821611917,1.0000267069956823,0.00023177092482480426
1545.2319267271148,1545.2319267271148,1.0001851946692466,0.00023184626379493088
1545.2388712930147,1545.2388712930147,0.9998219171307013,0.00023173231109196502
1545.2458158589372,1545.2458158589372,0.9999925021569428,0.00023181552842965617
1545.252760424791,1545.252760424791,0.9995001983024092,0.00023177674287517056
1545.2597049906672,1545.2597049906672,1.0002792263567986,0.00023185345015801006
1545.2666495565204,1545.2666495565204,1.000055542272249,0.00023177415078893247
1545.2735941223273,1545.2735941223273,1.0001998627426167,0.00023183590210080937
1545.2805386881573,1545.2805386881573,0.9998690030133627,0.0002317652322283315
1545.287483253964,1545.287483253964,1.0001118964426954,0.00023179931699581036
1545.2944278197706,1545.2944278197706,1.0000506097555248,0.0002317516088193625
1545.3013723855304,1545.3013723855304,1.0000851474673584,0.00023175097183166632
1545.3083169512677,1545.3083169512677,0.9998039401125144,0.00023166309954199212
1545.315261517004,1545.315261517004,1.0001537639868714,0.00023175902131190694
1545.3222060827409,1545.3222060827409,0.9996660311657859,0.00023164962385482983
1545.3291506484313,1545.3291506484313,1.0000917082101244,0.00023167898913713136
1545.3360952141215,1545.3360952141215,1.0000570061845737,0.00023171299792375217
1545.3430397797881,1545.3430397797881,0.9998621190505862,0.00023166673537876087
1545.3499843454558,1545.3499843454558,1.0005763612619722,0.00023172211519192893
1545.3569289110524,1545.3569289110524,1.0001315232870804,0.00023173209879204297
1545.3638734767196,1545.3638734767196,0.9996396704677742,0.00023156886753213096
1545.3708180423166,1545.3708180423166,0.99982130810497,0.00023161891034965813
1545.3777626078902,1545.3777626078902,0.9997480185232244,0.0002316088116456473
1545.3847071734642,1545.3847071734642,1.0000559212863027,0.00023164638402075358
1545.3916517390146,1545.3916517390146,1.0000506786656298,0.0002316987327529294
1545.3985963044954,1545.3985963044954,0.9997733824919699,0.00023157167135059786
1545.4055408700463,1545.4055408700463,1.0006370475417676,0.0002316027761799283
1545.4124854355268,1545.4124854355268,0.9999571589186642,0.00023160687191867358
1545.4194300010076,1545.4194300010076,1.0003378419617004,0.00023160870056015991
1545.4263745664646,1545.4263745664646,0.9999970215112383,0.0002315883861189187
1545.4333191319222,1545.4333191319222,0.9998771638482242,0.00023149658563783012
1545.4402636973095,1545.4402636973095,0.9998362752630159,0.00023152333883710467
1545.447208262744,1545.447208262744,0.9999598143846142,0.00023155308850464378
1545.4541528281084,1545.4541528281084,1.000347510725779,0.00023155753434111722
1545.4610973934723,1545.4610973934723,1.000270152946828,0.00023164880082529477
1545.4680419588135,1545.4680419588135,0.9991943994871624,0.00023150712866720633
1545.4749865241545,1545.4749865241545,1.0002236231337214,0.00023154016266038242
1545.4819310894488,1545.4819310894488,1.0001605135323264,0.00023152075383887065
1545.4888756547662,1545.4888756547662,0.9999523955797989,0.00023153613050157462
1545.4958202199912,1545.4958202199912,0.9999577794032014,0.0002315236798666078
1545.5027647852621,1545.5027647852621,0.9999984718506161,0.00023151907485287367
1545.509709350487,1545.509709350487,0.9999108692082501,0.00023151869443188466
1545.5166539157115,1545.5166539157115,0.999892553030217,0.00023159956902215115
1545.5235984809128,1545.5235984809128,1.0003121803136061,0.00023159520658990216
1545.5305430460674,1545.5305430460674,1.0000862181921975,0.0002315843029365349
1545.5374876112223,1545.5374876112223,0.9997339118978805,0.00023156352871869361
1545.5444321763534,1545.5444321763534,0.9999178116583552,0.0002316135224956023
1545.5513767414618,1545.5513767414618,0.999764141213858,0.0002315456135506092
1545.5583213065465,1545.5583213065465,1.0002382848923663,0.00023156793958147029
1545.5652658716313,1545.5652658716313,0.9999206518335398,0.00023156902417926514
1545.5722104366698,1545.5722104366698,1.0001104278454855,0.00023159108956413412
1545.5791550017311,1545.5791550017311,0.9999054325911576,0.00023153176458446997
1545.5860995667233,1545.5860995667233,1.0003657841599618,0.00023163748268604858
1545.5930441317148,1545.5930441317148,0.9999497200158874,0.000231573405310137
1545.5999886967065,1545.5999886967065,1.0000974398059048,0.000231589087983806
1545.6069332615818,1545.6069332615818,0.9994694369347533,0.00023151350846266024
1545.6138778265504,1545.6138778265504,1.000294670997667,0.00023160883114991686
1545.6208223914487,1545.6208223914487,1.0001106550747265,0.00023160151523081673
1545.6277669563246,1545.6277669563246,0.9997827735610013,0.00023155580632052986
1545.634711521176,1545.634711521176,1.0000952194777706,0.00023158113341562985
1545.6416560860284,1545.6416560860284,0.999986838955016,0.0002315603359141401
1545.6486006508574,1545.6486006508574,0.9998441731384069,0.0002315478227110139
1545.6555452156394,1545.6555452156394,1.0000945959020064,0.00023155339604065877
1545.6624897804215,1545.6624897804215,1.0002507380025614,0.00023159724430332082
1545.6694343451807,1545.6694343451807,0.999918243051178,0.00023154523721582722
1545.6763789098927,1545.6763789098927,1.0002858257118228,0.00023160874225269101
1545.6833234746052,1545.6833234746052,0.9999821642661871,0.00023156290770077326
1545.6902680392943,1545.6902680392943,0.9998026328209605,0.00023157650163236075
1545.6972126039832,1545.6972126039832,0.9994575451961876,0.00023147955018978412
1545.704157168626,1545.704157168626,1.0001126070342399,0.0002315589833699958
1545.7111017332447,1545.7111017332447,0.9998371737348195,0.00023155936101882575
1545.7180462978645,1545.7180462978645,0.9999154902934073,0.00023160098202460038
1545.7249908624367,1545.7249908624367,1.000274386875166,0.0002316010350498435
1545.7319354269862,1545.7319354269862,1.0003964118242965,0.00023162362146687495
1545.7388799915357,1545.7388799915357,1.0001364373643589,0.00023156834488336146
1545.7458245560383,1545.7458245560383,1.0000420537385004,0.00023165048372915013
1545.7527691205178,1545.7527691205178,0.9995755824966661,0.00023152681001783543
1545.7597136849975,1545.7597136849975,1.0002711638543729,0.0002315478758854211
1545.7666582494066,1545.7666582494066,0.9999868988110883,0.00023157989978162528
1545.7736028138168,1545.7736028138168,0.9997529248688244,0.00023150851176473647
1545.7805473782264,1545.7805473782264,0.9999927781350231,0.00023153475225613858
1545.7874919426358,1545.7874919426358,0.9997356529646195,0.00023156286823725752
1545.794436506999,1545.794436506999,1.0000831543305098,0.00023158061945015795
1545.8013810713155,1545.8013810713155,1.000093872110369,0.00023156293346615107
1545.8083256356317,1545.8083256356317,1.0001053737693963,0.0002315576725073697
1545.815270199902,1545.815270199902,1.0002064984253487,0.00023158263923366056
1545.822214764172,1545.822214764172,1.0002519615733854,0.0002316136291969911
1545.8291593283952,1545.8291593283952,0.9998275836314182,0.0002315906524310176
1545.836103892619,1545.836103892619,0.9999731045421738,0.0002315968573784498
1545.8430484567955,1545.8430484567955,0.9998309176912621,0.00023160088234176236
1545.8499930209723,1545.8499930209723,0.9999898684788155,0.00023155581240906037
