time,time,flux,flux_err
1325.2983891368676,1325.2983891368676,1.000129028818576,0.0001854352317951456
1325.3067223554212,1325.3067223554212,0.9998731644495465,0.00018544933300219778
1325.315055574324,1325.315055574324,1.0000027387249824,0.000185491168340729
1325.3226943586171,1325.3226943586171,1.0002591896710515,0.00016938370516962582
1325.3296387082264,1325.3296387082264,0.9997770302360053,0.00016936531423377392
1325.3365830580804,1325.3365830580804,0.9998687269811904,0.00016940693021484616
1325.3435274081673,1325.3435274081673,0.9998811030268133,0.0001694124656017789
1325.350471758487,1325.350471758487,1.0000263191489427,0.0001694641852966033
1325.3574161090278,1325.3574161090278,1.0000020868272181,0.0001695037859404624
1325.364360459802,1325.364360459802,0.9999889100730537,0.00016952748408449324
1325.371304810808,1325.371304810808,1.0001707168013438,0.00016955485734407956
1325.3782491620357,1325.3782491620357,0.9999572909530489,0.00016957131351300902
1325.3851935134849,1325.3851935134849,1.000051819589899,0.0001696222901878983
1325.3921378651662,1325.3921378651662,1.0000703413486807,0.00016965281318799406
1325.3990822170458,1325.3990822170458,0.9998239446650246,0.0001696566073276275
1325.4060265691587,1325.4060265691587,1.000107014465722,0.00016968758740810785
1325.4129709214685,1325.4129709214685,0.9999649626027061,0.00016970523236194878
1325.419915274012,1325.419915274012,0.9997476228694413,0.00016972228765944243
1325.4268596267532,1325.4268596267532,1.0000636604909103,0.00016975971992409388
1325.4338039797035,1325.4338039797035,0.9999952542120161,0.00016977649078364802
1325.440748332864,1325.440748332864,0.999805360375188,0.00016977734251855597
1325.4476926862335,1325.4476926862335,1.0001711992881535,0.00016982632183860097
1325.4546370398014,1325.4546370398014,1.0000113406247078,0.00016983380220619886
1325.4615813935666,1325.4615813935666,0.9999544117722088,0.00016984392582914748
1325.4685257475185,1325.4685257475185,0.9998993307256239,0.00016986884582956648
1325.47547010168,1325.47547010168,1.0001777293207883,0.00016991217789784227
1325.4824144560394,1325.4824144560394,0.9997352107886884,0.00016991343779322653
1325.489358810585,1325.489358810585,1.0001241840659314,0.0001699608403102779
1325.4963031653167,1325.4963031653167,0.9999200533845928,0.00016996561827277212
1325.503247520246,1325.503247520246,1.0003746792714137,0.00017004164182799167
1325.5101918753858,1325.5101918753858,0.9999861658483267,0.0001700412329908783
1325.5171362306646,1325.5171362306646,0.9998633877437685,0.00017006721742151388
1325.5240805861529,1325.5240805861529,0.9997821263723108,0.0001700745938697014
1325.5310249418276,1325.5310249418276,1.0000337510353496,0.0001701251780692727
1325.537969297677,1325.537969297677,1.000036052627264,0.0001701588326880336
1325.5449136537013,1325.5449136537013,0.9999857729097525,0.00017017984065767963
1325.5518580098994,1325.5518580098994,0.9999161593659688,0.00017020406946632484
1325.5588023662735,1325.5588023662735,0.9998275199187614,0.00017021227054282427
1325.5657467228443,1325.5657467228443,1.0000461317557245,0.0001702505940842498
1325.5726910795433,1325.5726910795433,1.000095796304961,0.00017028677517169974
1325.5796354364406,1325.5796354364406,1.0000555503525361,0.00017029666331646584
1325.5865797935007,1325.5865797935007,1.0000622044360412,0.0001703169349514018
1325.593524150712,1325.593524150712,0.9999457982776618,0.0001703220898788415
1325.6004685081098,1325.6004685081098,0.99986406400822,0.0001703345934068407
1325.6074128656587,1325.6074128656587,0.9998794733669515,0.00017034422346159526
1325.614357223371,1325.614357223371,1.0000495291938254,0.00017036213211862357
1325.621301581234,1325.621301581234,0.9999130908751903,0.00017036322956951307
1325.6282459392955,1325.6282459392955,1.0003546872949225,0.00017039839425556007
1325.6351902974616,1325.6351902974616,0.9998519877130239,0.0001703728162912348
1325.6421346558022,1325.6421346558022,1.000022494832642,0.00017038352063124737
1325.6490790143062,1325.6490790143062,1.0000634158488138,0.00017039175958400574
1325.6560233729492,1325.6560233729492,0.9998578557770319,0.0001703640992272528
1325.6629677317437,1325.6629677317437,1.0000479927039074,0.0001703799426978635
1325.6699120906899,1325.6699120906899,0.9998957720445334,0.00017036809685474553
1325.6768564497875,1325.6768564497875,1.0000248674114516,0.00017037935754960542
1325.6838008090128,1325.6838008090128,0.9998641889154467,0.00017036858916213445
1325.6907451684012,1325.6907451684012,1.0001965370599657,0.00017039899111006396
1325.697689527941,1325.697689527941,1.0002294207347604,0.00017041717406881938
1325.7046338875855,1325.7046338875855,0.9999167582398861,0.00017039422359393705
1325.7115782474164,1325.7115782474164,1.0001392353573713,0.00017041627272488966
1325.7185226073402,1325.7185226073402,1.000051673339085,0.00017041932218593662
1325.7254669674155,1325.7254669674155,1.0000231594298097,0.0001704231176908587
1325.732411327642,1325.732411327642,0.9999333229519249,0.00017043552410277212
1325.7393556879965,1325.7393556879965,0.9998846913802911,0.0001704383022768209
1325.7463000484793,1325.7463000484793,1.000130262881297,0.0001704663677531293
1325.753244409102,1325.753244409102,0.9999380094971583,0.000170469123653968
1325.7601887698406,1325.7601887698406,1.000118870241069,0.00017050229272864078
1325.7671331307074,1325.7671331307074,0.9998054757665628,0.00017048692046236653
1325.7740774917024,1325.7740774917024,0.9998860542379069,0.00017052237275738642
1325.781021852837,1325.781021852837,1.0002298007901382,0.0001705522473527715
1325.7879662140765,1325.7879662140765,0.9999233800256289,0.00017054162732638468
1325.7949105754674,1325.7949105754674,1.0001849489449497,0.0001705728833265009
1325.8018549369629,1325.8018549369629,0.9998464007169895,0.0001705578122156742
1325.8087992985868,1325.8087992985868,0.9998443593777191,0.00017055697622339597
1325.8157436603262,1325.8157436603262,1.0003759716557306,0.00017060716535263824
1325.8226880221946,1325.8226880221946,1.0000945297873316,0.0001705932327331349
1325.8296323841557,1325.8296323841557,0.9995728292660353,0.00017056738482166227
1325.836576746245,1325.836576746245,1.0000101360628586,0.0001706126352648654
1325.8435211084623,1325.8435211084623,1.0001063962634764,0.00017061744156370414
1325.8504654707724,1325.8504654707724,0.9999757914762805,0.00017059183006701146
1325.8574098332228,1325.8574098332228,0.9997946428967716,0.00017058073323639357
1325.8643541957542,1325.8643541957542,1.0001568688219122,0.0001706016451615402
1325.8712985584143,1325.8712985584143,1.0001823509606989,0.0001705730882671262
1325.8782429211788,1325.8782429211788,1.0000005001315238,0.00017055267207787908
1325.885187284048,1325.885187284048,0.9999935237143054,0.00017053409934970087
1325.892131647045,1325.892131647045,0.9998010347454755,0.00017049970225352856
1325.899076010124,1325.899076010124,1.0002139925981632,0.00017053619511492012
1325.9060203733075,1325.9060203733075,1.0001554078000068,0.00017050609215717491
1325.9129647366192,1325.9129647366192,0.9998286588869029,0.00017047251708095348
1325.9199091000005,1325.9199091000005,1.0000150632029474,0.00017048736142870807
1325.9268534635103,1325.9268534635103,0.9999823151003918,0.00017048554731048099
1325.9337978271242,1325.9337978271242,0.9997382599832904,0.00017046685247077412
1325.9407421908086,1325.9407421908086,1.0000801268052515,0.0001704727815207996
1325.9476865546092,1325.9476865546092,0.9999914742274276,0.0001704680929890764
1325.9546309185027,1325.9546309185027,1.0000495949751005,0.00017045043411135114
1325.9624086062079,1325.9624086062079,1.0000936116387071,0.0001704657663223992
1325.9699085194366,1325.9699085194366,1.0000203313158016,0.00017045716568865653
1325.9768528836564,1325.9768528836564,0.9998100873137125,0.00017043354420374297
1325.9837972479459,1325.9837972479459,1.0002336606889133,0.0001704551549140531
1325.9907416123401,1325.9907416123401,0.9999311203811819,0.00017044610703290287
1325.9976859768394,1325.9976859768394,0.9999293441750472,0.00017045674875246062
1326.0046303413963,1326.0046303413963,1.0001533221505827,0.00017047714491217665
1326.0115747060704,1326.0115747060704,0.999765274919808,0.00017045265913881764
1326.0185190708369,1326.0185190708369,0.999997459572306,0.00017047910006870473
1326.0254634356738,1326.0254634356738,1.000164495994079,0.0001705040175215482
1326.0324078006036,1326.0324078006036,0.9999585114136845,0.00017050789728819128
1326.0393521656379,1326.0393521656379,1.0000792858083751,0.00017049943525751746
1326.0462965307427,1326.0462965307427,1.000100878583914,0.00017049886552290776
1326.0532408959398,1326.0532408959398,0.9998511675796886,0.0001704947561099207
1326.0601852611958,1326.0601852611958,1.0001549510267624,0.0001705314294519184
1326.0671296265564,1326.0671296265564,0.9999877907093104,0.00017051334820199926
1326.0740739920097,1326.0740739920097,0.9997683191113467,0.00017050040293096086
1326.0810183575336,1326.0810183575336,0.9998131419577382,0.00017050997232278596
1326.0879627231384,1326.0879627231384,0.9999653023219333,0.00017052636474195517
1326.094907088825,1326.094907088825,1.0001163759974228,0.00017053918099722945
1326.1018514545929,1326.1018514545929,1.0001924475225037,0.00017054251548366097
1326.108795820442,1326.108795820442,1.000098501626344,0.00017054434756116248
1326.1157401863616,1326.1157401863616,1.0000349235281651,0.00017052186626152294
1326.1226845523622,1326.1226845523622,0.9999173830375667,0.0001705157840151017
1326.1296289184334,1326.1296289184334,0.9999952054613814,0.00017053141173143277
1326.1365732845852,1326.1365732845852,0.9997708156844238,0.00017050374643865033
1326.1435176508305,1326.1435176508305,1.0001587719304603,0.00017054256635627493
1326.1504620171108,1326.1504620171108,0.9998816360115015,0.00017052473516619346
1326.1574063835074,1326.1574063835074,1.0001307573455456,0.0001705437583460409
1326.164350749939,1326.164350749939,1.0001706487461952,0.00017054113537338827
1326.171295116452,1326.171295116452,0.9999339573155936,0.0001705233670404372
1326.1782394830582,1326.1782394830582,0.999891287664826,0.0001705037118396302
1326.1851838497223,1326.1851838497223,1.000001247999122,0.00017051999876770038
1326.1921282164562,1326.1921282164562,0.9999614671313639,0.00017050026469463017
1326.1990725832725,1326.1990725832725,0.9996978207052196,0.00017046702715321592
1326.2060169501347,1326.2060169501347,1.0000416572493722,0.00017051954977920317
1326.2129613170787,1326.2129613170787,1.0004008892187581,0.00017052955205195877
1326.219905684092,1326.219905684092,0.9998343452917023,0.00017047386643968552
1326.2268500511523,1326.2268500511523,1.000187857527346,0.00017051043446563444
1326.233794418294,1326.233794418294,0.9996535202477359,0.00017047221022767055
1326.240738785517,1326.240738785517,1.0003750304506718,0.0001705288287116573
1326.2476831527872,1326.2476831527872,0.9998576923648063,0.00017048053235977256
1326.2546275201262,1326.2546275201262,1.0000335609307733,0.00017049987033854503
1326.2615718875127,1326.2615718875127,1.0000403167142822,0.00017049818061106302
1326.268516254992,1326.268516254992,0.9997297404644134,0.0001704608811695885
1326.2754606225294,1326.2754606225294,1.0002145004941476,0.00017050412035968097
1326.2824049901137,1326.2824049901137,0.9997769961983438,0.0001704756245061474
1326.2893493577674,1326.2893493577674,1.000229009920717,0.0001704991344437169
1326.2962937254792,1326.2962937254792,1.0000540592536995,0.00017048790762518197
1326.3032380932495,1326.3032380932495,0.99977025425644,0.00017048351453414205
1326.3101824610899,1326.3101824610899,1.0001380226000307,0.00017052084470577683
1326.3171268289884,1326.3171268289884,1.0000898508067217,0.00017050277060996362
1326.3240711969215,1326.3240711969215,0.9997962782715973,0.00017049353499813926
1326.3310155649485,1326.3310155649485,0.9999274328948233,0.0001704983097103779
1326.3379599330094,1326.3379599330094,1.0002251938381952,0.00017052548754144725
1326.3454598505925,1326.3454598505925,0.9998743272104452,0.0001704907363703038
1326.3546264166127,1326.3546264166127,1.000009871135738,0.00017052235011629882
1326.361570784884,1326.361570784884,1.000073117591333,0.00017054185330311666
1326.3685151531895,1326.3685151531895,0.9999837278350101,0.00017053658707796032
1326.375459521565,1326.375459521565,1.0000842967448205,0.00017054209361224044
1326.3824038899875,1326.3824038899875,0.9997737252169541,0.00017051928132675827
1326.3893482584797,1326.3893482584797,1.0002283587723455,0.0001705547456965064
1326.3962926269949,1326.3962926269949,1.0000324760149528,0.0001705472929556431
1326.403236995592,1326.403236995592,0.9997824079413226,0.00017052379965344308
1326.4101813642471,1326.4101813642471,1.0001307772392176,0.00017056186152983161
1326.4171257329372,1326.4171257329372,0.9999104013889839,0.0001705520556455954
1326.4240701016736,1326.4240701016736,1.0000192522564881,0.0001705657177938709
1326.4310144704682,1326.4310144704682,0.9998355169418826,0.00017056761923311476
1326.4379588393213,1326.4379588393213,0.9995953252464844,0.0001705487014302904
1326.4449032082096,1326.4449032082096,1.0000573016444512,0.00017058742376927527
1326.4518475771551,1326.4518475771551,0.9999401810180994,0.00017058501661038983
1326.4587919461715,1326.4587919461715,1.0000990614098453,0.0001706013664635348
1326.4657363151987,1326.4657363151987,0.9999467389027636,0.00017057630519846817
1326.4726806842964,1326.4726806842964,1.0000909425974331,0.00017059745600908483
1326.4796250534523,1326.4796250534523,0.9999021785326473,0.00017059165750689007
1326.486569422631,1326.486569422631,1.0000145437202803,0.0001706175035910738
1326.4935137918685,1326.4935137918685,1.000120503285263,0.00017064531396339654
1326.5004581611518,1326.5004581611518,1.0000458869468223,0.00017064227405440624
1326.5074025304937,1326.5074025304937,0.999859848532143,0.0001706299255986226
1326.514346899859,1326.514346899859,1.0001028985951443,0.00017064925081725088
1326.521291269271,1326.521291269271,0.9999986659872407,0.00017065281240197372
1326.5282356387524,1326.5282356387524,1.0001714781478361,0.0001706768925102838
1326.535180008269,1326.535180008269,0.9997648084538978,0.00017064897710442363
1326.5421243778205,1326.5421243778205,0.9997736780925617,0.00017068090770901514
1326.5490687474303,1326.5490687474303,0.9999493654999704,0.00017069964783919653
1326.556013117063,1326.556013117063,0.9999211240472187,0.00017069699194475894
1326.562957486766,1326.562957486766,1.0003688432026054,0.00017072223295762568
1326.569901856469,1326.569901856469,1.0001390195895967,0.00017071901203392058
1326.5768462262768,1326.5768462262768,0.9999457668861524,0.00017070082554733855
1326.5837905960839,1326.5837905960839,1.0000233680191046,0.0001707125772179451
1326.5907349659383,1326.5907349659383,1.000170903723944,0.00017073052925518938
1326.5976793358507,1326.5976793358507,0.9999428063670319,0.00017070802176992228
1326.6046237057865,1326.6046237057865,1.0001079552086163,0.00017071329950675855
1326.6115680757805,1326.6115680757805,0.999929871601205,0.00017072541993482356
1326.6185124458202,1326.6185124458202,1.0001789296948573,0.0001707516680636058
1326.625456815861,1326.625456815861,0.9999823082798749,0.00017071593154568737
1326.632401185971,1326.632401185971,1.0000410793345949,0.0001707338265706251
1326.639345556105,1326.639345556105,0.9998667004106176,0.00017071614303729903
1326.6462899262847,1326.6462899262847,1.0002921451802322,0.00017076005599771726
1326.6532342965118,1326.6532342965118,0.9999533662861175,0.0001707226795020101
1326.6601786667734,1326.6601786667734,1.0000019913026583,0.00017072386448918725
1326.6671230370696,1326.6671230370696,0.999916925956928,0.00017071079081903273
1326.674067407413,1326.674067407413,1.0000701876184899,0.00017070846803425926
1326.6810117777793,1326.6810117777793,0.999699563912894,0.00017066766096797498
1326.689067247457,1326.689067247457,1.000048121317417,0.00017068035798243074
1326.6962893927296,1326.6962893927296,1.0000128983190073,0.00017066242717934287
1326.703233763224,1326.703233763224,1.0000195931141498,0.00017064597219515777
1326.7107336834033,1326.7107336834033,1.0001311382611546,0.0001706588434424574
1326.7185113784192,1326.7185113784192,1.0001963079243161,0.00017065720553967632
1326.7254557490417,1326.7254557490417,0.9997355039172557,0.00017060357052024053
1326.7324001196757,1326.7324001196757,0.9999484402540864,0.00017062778687751258
1326.7393444903569,1326.7393444903569,1.0001154333273896,0.00017062518510400053
1326.7462888610603,1326.7462888610603,0.9998734818573791,0.00017060848464455974
1326.7532332318106,1326.7532332318106,1.0000431103881149,0.00017061071678905584
1326.7601776025965,1326.7601776025965,1.0002157714840312,0.00017061653817620123
1326.7671219734052,1326.7671219734052,1.0001237684418824,0.00017061743857145294
1326.7740663442605,1326.7740663442605,0.9999221187712903,0.0001705900657052338
1326.7810107151276,1326.7810107151276,0.9999459121992427,0.00017059392330703619
1326.7879550860412,1326.7879550860412,0.999811680557471,0.00017058025123332268
1326.794899457001,1326.794899457001,0.9998020036799616,0.00017059039000720015
1326.8018438279846,1326.8018438279846,1.0000294400227845,0.0001706011905379189
1326.8087881989911,1326.8087881989911,1.0002086389840135,0.0001706119039638514
1326.8157325700327,1326.8157325700327,1.0000135025835624,0.00017061521795696453
1326.8226769411092,1326.8226769411092,0.9999147340974558,0.00017059330307133306
1326.8296213122208,1326.8296213122208,1.0003363302390393,0.00017062307337888092
1326.836565683367,1326.836565683367,0.9998620027134244,0.0001705859425336114
1326.8435100545134,1326.8435100545134,0.9999166826575522,0.0001705861791997002
1326.850454425718,1326.850454425718,0.9999850195616393,0.00017058615139166095
1326.8573987969578,1326.8573987969578,0.9999822323163521,0.00017058128509168312
1326.8643431682208,1326.8643431682208,1.0002402325718212,0.0001705791322012058
1326.8712875395065,1326.8712875395065,0.9997394459635183,0.00017054387394953502
1326.878231910839,1326.878231910839,1.0001353829208008,0.00017054891656764887
1326.885176282195,1326.885176282195,1.0000133827354154,0.00017053413640089355
1326.8921206535624,1326.8921206535624,0.999840028666247,0.0001705179693612834
1326.899065024977,1326.899065024977,1.000142440777687,0.00017050667150625933
1326.9060093964024,1326.9060093964024,1.000052603622672,0.00017048507058545808
1326.912953767898,1326.912953767898,1.0002284827247128,0.0001704908265491313
1326.9198981393938,1326.9198981393938,0.9998524346625572,0.00017043233125845647
1326.9268425108894,1326.9268425108894,0.9999767372467492,0.00017044068817659704
1326.933786882455,1326.933786882455,1.000055380659957,0.00017041746747971452
1326.9407312540202,1326.9407312540202,0.9999727094847766,0.0001703991236553286
1326.9476756256324,1326.9476756256324,0.999912430335117,0.00017036671651998582
1326.9546199972679,1326.9546199972679,1.0000769610165094,0.00017037633261057057
1326.9615643689265,1326.9615643689265,1.000053640578262,0.00017035212008351114
1326.9685087406199,1326.9685087406199,1.0000016922023527,0.00017034289076122441
1326.9754531123249,1326.9754531123249,1.0000486477806312,0.00017033691674731444
1326.982397484077,1326.982397484077,0.999937910056607,0.00017030866468438656
1326.98934185584,1326.98934185584,1.000005123226168,0.00017029732771141633
1326.9962862276502,1326.9962862276502,1.0001454929255664,0.0001703034814366714
1327.0032305994368,1327.0032305994368,0.9997475104224485,0.0001702682860593079
1327.0101749712935,1327.0101749712935,1.0001433930188588,0.0001703058553012502
1327.0171193431615,1327.0171193431615,0.9998494891148914,0.00017029009935109937
1327.0240637150528,1327.0240637150528,1.0001008495204897,0.00017030353165482494
1327.0310080869795,1327.0310080869795,1.000053129832469,0.00017029749702180379
1327.0379524589168,1327.0379524589168,0.9999304710962397,0.00017029578619852842
1327.0448968308904,1327.0448968308904,0.9999988322387681,0.00017029000511960472
1327.0518412028864,1327.0518412028864,0.9999394113129363,0.00017027298484176428
