time,time,flux,flux_err
1468.279907160487,1468.279907160487,0.9997990132064092,0.000151924544848318
1468.288240540055,1468.288240540055,0.9998805346183136,0.0001518975712475379
1468.2958794712195,1468.2958794712195,0.9997159418444429,0.00013863261001049873
1468.3028239540117,1468.3028239540117,0.9999202491079737,0.00013865142102908014
1468.3097684367108,1468.3097684367108,0.9999769295894648,0.00013863761130337055
1468.3167129192236,1468.3167129192236,0.9998605998759802,0.00013865720382883942
1468.3236574015496,1468.3236574015496,1.00029735195801,0.0001386754872936233
1468.3306018838764,1468.3306018838764,1.0003959526273263,0.00013869675404898067
1468.3375463662028,1468.3375463662028,1.0000172759818426,0.00013865353263544294
1468.3444908485294,1468.3444908485294,1.000106636564252,0.00013865192013093615
1468.3514353303901,1468.3514353303901,1.0001766346935814,0.00013864658757933195
1468.358379812344,1468.358379812344,1.000270585512712,0.00013863634396984827
1468.365324294205,1468.365324294205,0.9998918611764573,0.00013862822671163966
1468.3722687758793,1468.3722687758793,1.000025776861797,0.0001386765808894219
1468.3811577123258,1468.3811577123258,1.0005067365596463,0.00013869239478070432
1468.3958800129953,1468.3958800129953,1.0001925120620128,0.00013865930555390088
1468.4028244941114,1468.4028244941114,1.0000710375353954,0.00013865405653538053
1468.4097689753203,1468.4097689753203,0.999772581447696,0.0001386147067529704
1468.4167134563424,1468.4167134563424,0.9997879757835385,0.00013864630974518125
1468.4236579372719,1468.4236579372719,0.9999176610936248,0.00013867539077147667
1468.4306024180155,1468.4306024180155,1.0001353954422194,0.00013866249357308665
1468.4375468988517,1468.4375468988517,0.9999867180771069,0.0001386318910746712
1468.4444913794084,1468.4444913794084,1.0001560462515715,0.00013865236403531832
1468.4514358599656,1468.4514358599656,0.999984034681604,0.00013866126995698457
1468.4583803404294,1468.4583803404294,0.9999390139107925,0.00013864535768818968
1468.4653248207064,1468.4653248207064,1.000225466841926,0.00013866376013789306
1468.4722693009846,1468.4722693009846,1.0000010264039954,0.0001386314743809078
1468.4792137809823,1468.4792137809823,1.0000837142462544,0.0001386634743636078
1468.4861582609806,1468.4861582609806,0.9997956631487256,0.00013863477075476635
1468.4931027409789,1468.4931027409789,0.9999045353884528,0.00013866410479688364
1468.5000472206048,1468.5000472206048,1.0002103185466553,0.00013867345720010286
1468.5069917003234,1468.5069917003234,1.0000282364375426,0.0001386844131133802
1468.5139361799488,1468.5139361799488,0.9997675814218724,0.00013865643295940202
1468.5208806593885,1468.5208806593885,0.9998190004843732,0.0001386387499822056
1468.5278251388277,1468.5278251388277,1.0000401735640563,0.0001386768382491849
1468.5347696179876,1468.5347696179876,1.000059261580748,0.00013864251587650963
1468.5417140971479,1468.5417140971479,1.000174911644979,0.0001386466597515536
1468.5486585762142,1468.5486585762142,0.999987898355849,0.00013864372885035752
1468.5556030552812,1468.5556030552812,0.9998820746023138,0.00013863694203653835
1468.562547534069,1468.562547534069,1.000068477550426,0.00013865753717090767
1468.5694920127632,1468.5694920127632,1.000113179039954,0.00013866837168826298
1468.5764364914571,1468.5764364914571,1.000023475847673,0.00013865148834479158
1468.5833809699652,1468.5833809699652,1.000099431414705,0.00013866474920557864
1468.59032544838,1468.59032544838,0.9998351775767095,0.00013865805613493605
1468.5972699267018,1468.5972699267018,0.9998987415317181,0.00013865539683682296
1468.6042144049309,1468.6042144049309,0.9999734086445423,0.00013863866697898738
1468.611158883066,1468.611158883066,0.9999973046933526,0.00013864537927152823
1468.618103361015,1468.618103361015,1.0001801533753025,0.00013865552003743687
1468.625047839058,1468.625047839058,1.000026770216269,0.00013868178548180306
1468.631992316728,1468.631992316728,0.9998229649930799,0.00013866735172624864
1468.6389367943973,1468.6389367943973,0.9999993454457007,0.00013865999217633985
1468.6458812720673,1468.6458812720673,1.0001125329269125,0.0001386485099075548
1468.652825749644,1468.652825749644,0.9999171863351402,0.00013864434842760797
1468.6597702269414,1468.6597702269414,1.0001176329906016,0.00013865357926485153
1468.666714704239,1468.666714704239,0.999993919848514,0.00013863960316050768
1468.6736591814429,1468.6736591814429,0.99980551677078,0.00013864017261617308
1468.6806036584608,1468.6806036584608,0.9999400214098815,0.00013864315177327343
1468.6875481354787,1468.6875481354787,0.9999772999525429,0.00013863319509134096
1468.6944926123103,1468.6944926123103,1.000095276849145,0.00013864954671300423
1468.7014370891425,1468.7014370891425,1.0000969707851814,0.00013865903025483956
1468.7083815658805,1468.7083815658805,0.9999949700884079,0.0001386304529465106
1468.7153260423397,1468.7153260423397,1.000111956524204,0.00013867819472460047
1468.722270518892,1468.722270518892,0.9999458211142471,0.0001386183682142731
1468.729214995165,1468.729214995165,0.9998783739889916,0.00013864170226073836
1468.736159471438,1468.736159471438,1.0001511597943715,0.00013863973077635292
1468.7431039476173,1468.7431039476173,0.9999818540720451,0.00013864545454067193
1468.750048423704,1468.750048423704,1.0000214969397307,0.0001386223965919173
1468.7569928996045,1468.7569928996045,1.0000560539383954,0.00013866204004342014
1468.7639373754118,1468.7639373754118,0.9994848786538044,0.00013860903013994614
1468.770881851126,1468.770881851126,1.0001556106997826,0.0001386634099897077
1468.7778263268397,1468.7778263268397,0.9998610431742236,0.00013863451850750497
1468.7847708021811,1468.7847708021811,0.9999967325371365,0.00013865546181127732
1468.791715277896,1468.791715277896,1.0003733873108263,0.00013867170527878794
1468.798659753144,1468.798659753144,0.9997610591945023,0.00013864411298951664
1468.805604228206,1468.805604228206,0.9999719166597035,0.00013864242166470531
1468.8125487035472,1468.8125487035472,0.9998615163308637,0.00013864189018459883
1468.8194931784233,1468.8194931784233,1.0000546373820502,0.00013864860237290357
1468.8264376533925,1468.8264376533925,0.9999793090841665,0.0001386290553386853
1468.8333821282686,1468.8333821282686,1.000042174842498,0.0001386206910106905
1468.840326602865,1468.840326602865,0.9999905893570892,0.00013865570168987608
1468.8472710774615,1468.8472710774615,0.9999235055546606,0.00013860535412206693
1468.854215552058,1468.854215552058,1.0001660747128833,0.00013867756312400028
1468.861160026375,1468.861160026375,1.000044009217802,0.00013865246219698412
1468.8681045007856,1468.8681045007856,1.0001710390706926,0.0001386340012900017
1468.875048975009,1468.875048975009,0.9998612844493339,0.00013861499201076063
1468.8819934489536,1468.8819934489536,0.9999823536014111,0.00013865933741812194
1468.8889379229915,1468.8889379229915,0.999830230310274,0.0001386255584960206
1468.895882396936,1468.895882396936,0.999867585508186,0.00013861929342341505
1468.9028268706945,1468.9028268706945,1.000015151266973,0.00013861383955259788
1468.9097713442666,1468.9097713442666,1.0002212832290758,0.0001386602240505166
1468.9167158179312,1468.9167158179312,0.9998549448260985,0.0001386123161004835
1468.923660291411,1468.923660291411,0.9999438825555085,0.00013863599457709615
1468.9306047647963,1468.9306047647963,1.000145443900745,0.00013860617338652055
1468.9375492380889,1468.9375492380889,0.9999537806606117,0.00013859284134814636
1468.9444937112883,1468.9444937112883,1.0002200545967552,0.00013861015908630303
1468.9514381843014,1468.9514381843014,1.0000840803851403,0.00013864828862365176
1468.9586604362353,1468.9586604362353,0.999953805209245,0.00013860186186467283
1468.9667160246513,1468.9667160246513,1.0001260096191937,0.00013864126423910643
1468.9736604974782,1468.9736604974782,0.9996368455612383,0.00013861858397707754
1468.980604970026,1468.980604970026,0.9998657303971659,0.00013860523353666885
1468.987549442573,1468.987549442573,1.000053334548024,0.0001386126533387241
1468.9944939150278,1468.9944939150278,0.9999967444961856,0.0001386033157538396
1469.0014383873893,1469.0014383873893,0.9999320740388864,0.00013861204729541748
1469.008382859564,1469.008382859564,1.0000418314266397,0.00013858701225292902
1469.0153273317392,1469.0153273317392,1.0000094181999568,0.00013861059629273606
1469.0222718038212,1469.0222718038212,1.0000796409491992,0.0001386255141443492
1469.0292162756239,1469.0292162756239,1.0003524660842356,0.00013863074548455757
1469.0361607475195,1469.0361607475195,0.9999460957721832,0.0001386004233656847
1469.043105219229,1469.043105219229,0.9999901887749246,0.0001385952869928059
1469.050049690845,1469.050049690845,0.9998414312154813,0.0001385796977663361
1469.056994162275,1469.056994162275,0.9999570544950286,0.00013859270263643457
1469.0639386337982,1469.0639386337982,0.9998366931498891,0.00013857693902976249
1469.070883105042,1469.070883105042,0.9997439781223193,0.00013858215417432272
1469.077827576286,1469.077827576286,1.000120977989099,0.0001386136608879489
1469.0847720474362,1469.0847720474362,1.0002375782944806,0.00013860354826986866
1469.0917165184007,1469.0917165184007,0.9999788552440734,0.00013859694667247847
1469.098660989365,1469.098660989365,1.000049866750457,0.0001385608299521687
1469.1056054600497,1469.1056054600497,1.000178550790761,0.00013857720056968228
1469.1125499307352,1469.1125499307352,0.9997920492719002,0.00013856904586851237
1469.1194944014198,1469.1194944014198,1.0001235260264738,0.0001385952395588196
1469.1264388719185,1469.1264388719185,1.0001971682767383,0.00013859441886659142
1469.1333833423244,1469.1333833423244,1.000046149491539,0.000138600941407295
1469.1403278126365,1469.1403278126365,0.9998892490651553,0.00013858291796065115
1469.1472722828562,1469.1472722828562,1.0001787666076156,0.00013859869638716585
1469.154216752889,1469.154216752889,1.0000608605358035,0.00013859343390276052
1469.1611612229215,1469.1611612229215,1.0000257202151095,0.0001386012331680666
1469.1681056927687,1469.1681056927687,0.9996579231885271,0.00013856609635674747
1469.1750501625224,1469.1750501625224,0.9998161550673206,0.00013858090565357507
1469.1819946322762,1469.1819946322762,0.9998746327596534,0.00013858580913034404
1469.1889391018435,1469.1889391018435,1.0000392735125467,0.00013860005288869473
1469.1958835714106,1469.1958835714106,1.0001043028793373,0.00013859384421562523
1469.2028280406985,1469.2028280406985,1.0001118251329701,0.0001385866189611891
1469.2097725099866,1469.2097725099866,1.0002552361579646,0.0001386050457432544
1469.2167169791815,1469.2167169791815,1.0000129071102906,0.00013862087381108965
1469.223661448283,1469.223661448283,1.0000622628622466,0.0001385846796089277
1469.2306059171983,1469.2306059171983,0.9999237682187472,0.0001385834951167377
1469.2375503861138,1469.2375503861138,1.00007619266855,0.00013858991773346442
1469.2444948548432,1469.2444948548432,0.9997877012589296,0.0001385856245892866
1469.251439323479,1469.251439323479,0.9999353445712099,0.00013858980235018602
1469.2583837922082,1469.2583837922082,0.9999333283934799,0.00013857963730723086
1469.2653282606577,1469.2653282606577,0.9999810141398667,0.0001385744454855662
1469.2722727290143,1469.2722727290143,1.00007594509226,0.00013859672118626349
1469.2792171973715,1469.2792171973715,1.0000170194246016,0.00013856556015925974
1469.2861616652622,1469.2861616652622,0.9998765388267399,0.0001385659937890035
1469.2931061334327,1469.2931061334327,1.000286481652599,0.00013857917476648994
1469.3000506014166,1469.3000506014166,1.0002543432662105,0.0001385926532015976
1469.3069950692145,1469.3069950692145,0.9997204435865653,0.0001385534725955653
1469.3139395370126,1469.3139395370126,0.9998776122776988,0.00013858574252487016
1469.320884004717,1469.320884004717,0.9998414181078307,0.00013857345965523736
1469.3278284723287,1469.3278284723287,0.9999121816299887,0.00013857550910116093
1469.3347729396605,1469.3347729396605,1.0003526669075082,0.0001385841705960862
1469.341717407086,1469.341717407086,0.999965402958118,0.00013857656461064563
1469.3486618743254,1469.3486618743254,1.0001455623848752,0.00013857390671397828
1469.3556063414712,1469.3556063414712,1.0000643683776305,0.00013857855683839645
1469.3625508085238,1469.3625508085238,0.9999905488272921,0.0001385861744833003
1469.3694952754836,1469.3694952754836,1.0000385315544653,0.0001385832288068617
1469.3764397424432,1469.3764397424432,0.9997338911858227,0.00013856139472870512
1469.3833842090303,1469.3833842090303,0.9998643678766556,0.00013856736142987608
1469.3903286758039,1469.3903286758039,0.9999731337238569,0.00013856808886859745
1469.3972731422978,1469.3972731422978,0.9999367839285632,0.00013857905867204948
1469.4042176086987,1469.4042176086987,1.000195701724378,0.00013857535359233672
1469.4111620751924,1469.4111620751924,1.000151146604755,0.0001385921829076213
1469.4181065412208,1469.4181065412208,1.0001181684143523,0.00013857397939112372
1469.4250510076222,1469.4250510076222,0.999750351627408,0.00013856333202943636
1469.4319954737434,1469.4319954737434,1.0000431169406259,0.00013856475223479503
1469.438939939399,1469.438939939399,1.000090595335164,0.0001385919248672189
1469.4458844053345,1469.4458844053345,1.0000842059991784,0.0001385665202889201
1469.4528288710833,1469.4528288710833,1.000256550355619,0.0001385933275971921
1469.4597733367389,1469.4597733367389,1.0000385603265531,0.0001385777635019101
1469.4667178023017,1469.4667178023017,0.9996259394850691,0.0001385571754230793
1469.4736622677715,1469.4736622677715,1.0001576870142546,0.0001385841018136945
1469.4806067330544,1469.4806067330544,1.000020069042378,0.00013858008898075006
1469.4875511983378,1469.4875511983378,0.9997524979611245,0.00013855052866604142
1469.4944956634347,1469.4944956634347,1.0000084377124216,0.000138595093459493
1469.501440128532,1469.501440128532,1.0002372349863504,0.000138585302152728
1469.5083845934428,1469.5083845934428,1.0001638359242804,0.00013858248559503008
1469.5153290582602,1469.5153290582602,1.0000675470599707,0.00013856281255308765
1469.5222735230777,1469.5222735230777,0.9999900853364558,0.00013856899633775128
1469.529217987709,1469.529217987709,0.999868999708901,0.00013855228112571598
1469.5361624522477,1469.5361624522477,0.9999384971647626,0.00013855406551641634
1469.5431069166928,1469.5431069166928,1.0000650066527046,0.00013855716884380193
1469.5500513810443,1469.5500513810443,0.9999813861927974,0.0001385510165311562
1469.5569958452102,1469.5569958452102,1.0001213524777641,0.000138558998143269
1469.5639403093755,1469.5639403093755,1.0000477682776547,0.00013855008650568074
1469.5708847733554,1469.5708847733554,0.9998448217363489,0.00013858480431443735
1469.5778292374277,1469.5778292374277,1.0003259700848137,0.00013861059553077533
1469.584773701221,1469.584773701221,0.9999570680958939,0.00013858106281402986
1469.591718164921,1469.591718164921,0.9999675457104932,0.0001385733872843952
1469.5986626286208,1469.5986626286208,0.9997506045605995,0.00013857705956094594
1469.6056070921347,1469.6056070921347,0.9998977848146927,0.00013859026902948978
1469.6125515555552,1469.6125515555552,1.0000205002920066,0.00013859576471104038
1469.619496018883,1469.619496018883,0.9997936552575851,0.00013860245869091954
1469.6264404821172,1469.6264404821172,1.0001419941781975,0.0001385921987695689
1469.633384945258,1469.633384945258,1.0004764791943916,0.00013861090490060527
1469.6403294083063,1469.6403294083063,1.0000491885710592,0.00013858608472434395
1469.6472738712616,1469.6472738712616,1.0000179501927529,0.00013856608181099292
1469.6542183340302,1469.6542183340302,1.0001619170960203,0.0001386039164630103
1469.661162796799,1469.661162796799,1.0000551487297602,0.00013858163503433703
1469.6681072594747,1469.6681072594747,0.9996066042454727,0.00013856680804524076
1469.6750517219637,1469.6750517219637,0.9999624421944372,0.00013859526975637372
1469.6819961844533,1469.6819961844533,0.9999734786441348,0.00013859099395490185
1469.6889406467562,1469.6889406467562,1.0001807782914247,0.0001386269300620148
1469.6958851089664,1469.6958851089664,1.0001784917312215,0.00013860830680256748
1469.702829571083,1469.702829571083,0.9998322153675187,0.00013858964251521358
1469.7097740331997,1469.7097740331997,0.9998088655716375,0.00013857134329391588
1469.71671849513,1469.71671849513,0.9999963045325128,0.0001386022527609819
1469.7236629569677,1469.7236629569677,0.999980678719308,0.0001386039620470915
1469.7306074187115,1469.7306074187115,1.000107889211857,0.0001385910913833547
1469.7375518802698,1469.7375518802698,0.9999847788201384,0.00013859278962192507
1469.744496341828,1469.744496341828,1.000005830003861,0.00013859331731458732
1469.751440803479,1469.751440803479,1.000116015032771,0.0001386050256647167
1469.7583852647574,1469.7583852647574,1.0000351835260775,0.00013858443840688274
1469.7653297257568,1469.7653297257568,0.9999644837241217,0.00013858148932042043
1469.7722741870352,1469.7722741870352,0.9998538327831703,0.00013857952545372052
1469.7792186480344,1469.7792186480344,1.0000756223894205,0.00013857620102672438
1469.7861631090336,1469.7861631090336,1.0000653968122555,0.00013859732347196147
1469.7931075697536,1469.7931075697536,1.000091139974966,0.00013858648282917763
1469.8000520305663,1469.8000520305663,0.9999208495289885,0.00013858968723200952
1469.806996491193,1469.806996491193,1.0001872564651932,0.00013859996643060025
1469.813940951727,1469.813940951727,0.9996726131822129,0.00013855123476010537
1469.820885412167,1469.820885412167,0.9997981573623814,0.0001385689085372951
1469.827829872514,1469.827829872514,1.0001022792423815,0.00013859394921430024
1469.8347743328616,1469.8347743328616,0.9998934071440523,0.0001385558510510148
1469.8417187929294,1469.8417187929294,1.0003391093056497,0.0001386195689336039
1469.8486632529975,1469.8486632529975,1.0001374617917524,0.00013860816782333883
1469.8556077128792,1469.8556077128792,0.9999230093947918,0.00013858839605681268
1469.862552172667,1469.862552172667,0.9998931766258512,0.00013858912944539754
1469.8694966325488,1469.8694966325488,1.0001777619303056,0.0001386046210841455
1469.8764410921513,1469.8764410921513,0.9998756411460171,0.00013860208542379658
1469.8833855516605,1469.8833855516605,0.999951731161598,0.00013859771109435106
1469.8903300110765,1469.8903300110765,0.9999594153093698,0.00013859759725840597
1469.897274470399,1469.897274470399,1.0000865597605293,0.00013861352427184783
1469.9042189297218,1469.9042189297218,0.9998942807296285,0.00013862422132130775
1469.9111633889518,1469.9111633889518,0.9999728717043161,0.00013860792043094683
1469.9181078479949,1469.9181078479949,0.9998724102690277,0.00013859162316574392
1469.9250523069454,1469.9250523069454,1.0001825507892463,0.0001386262254196397
1469.9319967656163,1469.9319967656163,1.0000439952467748,0.00013860642060263987
1469.9389412244734,1469.9389412244734,0.9999784138632869,0.00013861755532152762
1469.9458856830513,1469.9458856830513,0.999964146152754,0.00013861182174231088
1469.9528301416287,1469.9528301416287,0.9998226503531079,0.00013858055842966453
1469.9597746001134,1469.9597746001134,1.0001469885986332,0.0001386133988940893
1469.966719058412,1469.966719058412,1.000050550120466,0.00013859840143285888
1469.9736635167105,1469.9736635167105,1.000192628548862,0.00013860845708324804
1469.9806079748225,1469.9806079748225,0.9998865648776789,0.00013858475372941842
1469.987552432934,1469.987552432934,0.9999810121782332,0.0001385907344519923
1469.9944968908599,1469.9944968908599,1.0000410258355812,0.0001385995436671502
1470.0014413486929,1470.0014413486929,0.9996858377266491,0.00013857734930627406
1470.0083858064327,1470.0083858064327,1.0001681569493384,0.00013861030469824057
1470.0153302640792,1470.0153302640792,1.0000390489365028,0.00013861030741902516
1470.0222747217251,1470.0222747217251,0.9998854525397979,0.000138596583731535
1470.0292191790923,1470.0292191790923,0.9999624656936321,0.00013860398572291088
1470.0361636364596,1470.0361636364596,1.0001809524414438,0.00013861154274015408
