time,time,flux,flux_err
1325.298984830987,1325.298984830987,1.0000504297974149,0.00021318842812351855
1325.3073179963071,1325.3073179963071,0.9998372975671108,0.00021322792404311627
1325.3149567314672,1325.3149567314672,0.9999595050688816,0.00019467512437473623
1325.321901036408,1325.321901036408,1.0000624173631627,0.00019470745975931492
1325.328845341573,1325.328845341573,0.9999039174977821,0.0001947089628946828
1325.3357896469652,1325.3357896469652,1.0001294400721181,0.00019475669444745904
1325.3427339525783,1325.3427339525783,0.9998278271357421,0.0001947684243579004
1325.3496782584157,1325.3496782584157,0.9998857814122412,0.00019479774150981503
1325.3566225644713,1325.3566225644713,1.0004271114661794,0.00019488056458882193
1325.363566870751,1325.363566870751,0.9999702671230883,0.00019486495026201206
1325.3705111772433,1325.3705111772433,0.9996439246312387,0.0001948705248500079
1325.3774554839506,1325.3774554839506,1.000027300716635,0.00019495192734073245
1325.3843997908682,1325.3843997908682,1.000281394062972,0.00019498829325762153
1325.3913440980007,1325.3913440980007,0.9998390668785877,0.00019499911671295447
1325.3982884053423,1325.3982884053423,0.9998934034479209,0.00019504379400913331
1325.4052327128973,1325.4052327128973,0.9999323603164871,0.00019507478122359834
1325.412177020655,1325.412177020655,1.0000652519012645,0.00019511264357239828
1325.4191213286172,1325.4191213286172,0.9998825265599874,0.0001951304985085674
1325.4260656367828,1325.4260656367828,1.000079383261454,0.00019519386291504468
1325.4330099451522,1325.4330099451522,1.0003548213598665,0.00019524516586402808
1325.4399542537226,1325.4399542537226,1.0000236774820135,0.00019523819081541325
1325.4468985624876,1325.4468985624876,0.9996790215938542,0.00019524585676007305
1325.4538428714477,1325.4538428714477,0.9998550981399023,0.000195291422638704
1325.4607871806058,1325.4607871806058,1.0003720050348246,0.00019536254019077384
1325.467731489953,1325.467731489953,0.9999019097544798,0.00019534670433717202
1325.4746757994926,1325.4746757994926,0.9999552522215188,0.00019539100714543388
1325.481620109224,1325.481620109224,0.9998654787021855,0.00019541979968658272
1325.488564419145,1325.488564419145,0.9997216656734877,0.00019543466022104876
1325.4955087292487,1325.4955087292487,1.0001766831686378,0.00019552370968089263
1325.5024530395358,1325.5024530395358,0.9999546148437348,0.00019551914979835488
1325.509397350013,1325.509397350013,1.0003641607171758,0.000195597345618663
1325.5163416606695,1325.5163416606695,0.9999362133996854,0.00019559529406774245
1325.523285971501,1325.523285971501,0.9999312036643294,0.00019564046400713815
1325.5302302825157,1325.5302302825157,0.9999593112926641,0.0001956777314164179
1325.5371745936995,1325.5371745936995,1.0003980489347648,0.00019576186091548845
1325.5441189050669,1325.5441189050669,0.9997975971958544,0.0001957262017125314
1325.5510632166026,1325.5510632166026,0.9999129171802581,0.00019577573135435303
1325.5580075283103,1325.5580075283103,1.0000333650375213,0.0001958266569776368
1325.5649518401929,1325.5649518401929,1.0000669623575509,0.00019587029966106856
1325.5718961522405,1325.5718961522405,0.9998504221832096,0.00019589376784855318
1325.5788404644577,1325.5788404644577,0.9997516740389063,0.0001959197336133063
1325.5857847768434,1325.5857847768434,0.9999608982258831,0.0001959535013701364
1325.592729089386,1325.592729089386,1.0002202522291281,0.00019599922972187702
1325.599673402092,1325.599673402092,0.9998962081920183,0.00019600410688216051
1325.6066177149607,1325.6066177149607,1.0003518989388838,0.0001960581393602771
1325.613562027987,1325.613562027987,0.9999052510976911,0.00019602644265473128
1325.62050634117,1325.62050634117,1.000010309979165,0.00019606173992838186
1325.6274506545165,1325.6274506545165,0.9998737071149669,0.0001960554189720634
1325.6343949680195,1325.6343949680195,1.0000012403108176,0.0001960655188090711
1325.641339281657,1325.641339281657,1.0000185408888045,0.0001961019667811746
1325.6482835954685,1325.6482835954685,1.0000793730461262,0.0001961049209757584
1325.655227909426,1325.655227909426,1.0001637840289928,0.00019612159188831636
1325.6621722235284,1325.6621722235284,1.0000569688455188,0.00019612200795428989
1325.669116537783,1325.669116537783,0.9999855333919028,0.00019610826790991592
1325.6760608521768,1325.6760608521768,0.9999621463630618,0.00019611620892907104
1325.6830051667164,1325.6830051667164,0.999817523987149,0.00019610983096718517
1325.689949481401,1325.689949481401,1.0002957654136524,0.0001961517934189388
1325.6968937962315,1325.6968937962315,0.9997408662534063,0.0001961238457168862
1325.7038381112075,1325.7038381112075,0.9997473367999911,0.00019613021262416852
1325.7107824263232,1325.7107824263232,1.000314227129947,0.00019618837990360076
1325.717726741567,1325.717726741567,1.0005580936755116,0.00019623221408977096
1325.7246710569502,1325.7246710569502,0.9998504028089021,0.00019618636402320898
1325.7316153724794,1325.7316153724794,0.9999912115321619,0.0001962184010777048
1325.7385596881306,1325.7385596881306,1.0000876443127038,0.00019624148304771142
1325.7455040039213,1325.7455040039213,0.9999881408055284,0.00019623562611958983
1325.7524483198401,1325.7524483198401,0.9997700011296601,0.00019624119470184245
1325.7593926358932,1325.7593926358932,1.00023947650499,0.00019630212809206444
1325.7663369520794,1325.7663369520794,1.0002464315234698,0.00019632662516150625
1325.7732812683887,1325.7732812683887,0.9996651617512473,0.00019630881505592856
1325.7802255848196,1325.7802255848196,1.0001304266878206,0.00019637361585635808
1325.7871699013908,1325.7871699013908,0.9997292546885974,0.0001963703547637806
1325.794114218078,1325.794114218078,1.0001806862934448,0.00019641108642845935
1325.8010585348875,1325.8010585348875,1.0001354602690895,0.00019643155556000116
1325.8080028518195,1325.8080028518195,1.000078552342229,0.00019644657093308986
1325.814947168873,1325.814947168873,0.999920713134068,0.00019644201131900066
1325.8218914860495,1325.8218914860495,0.9998943393693625,0.00019646320591280102
1325.8288358033421,1325.8288358033421,1.000113935481452,0.00019649509045019663
1325.8357801207512,1325.8357801207512,0.9998515515906992,0.00019648347801213268
1325.842724438277,1325.842724438277,0.9999149422592201,0.00019649222069001277
1325.8496687559184,1325.8496687559184,0.9999957910705823,0.00019648250851747655
1325.8566130736767,1325.8566130736767,0.9998490609768458,0.00019648043906544927
1325.8635573915458,1325.8635573915458,1.000208436794248,0.00019650325854994897
1325.870501709531,1325.870501709531,1.0002432085579367,0.00019648057496910687
1325.8774460276213,1325.8774460276213,0.9999125587277916,0.0001964286216650266
1325.8843903458335,1325.8843903458335,0.9998240572669393,0.0001964062308214162
1325.8913346641393,1325.8913346641393,0.9999628517295085,0.00019640803014316297
1325.8982789825607,1325.8982789825607,1.0002522594872247,0.0001964270524099451
1325.9052233010875,1325.9052233010875,0.9999254409774136,0.00019638051491392667
1325.9121676197187,1325.9121676197187,1.000122830254233,0.00019637789565654353
1325.9191119384664,1325.9191119384664,0.9996609581035972,0.00019631331163927996
1325.926056257302,1325.926056257302,1.0001604273213813,0.00019637535218710228
1325.933000576253,1325.933000576253,1.000087896306484,0.00019637516272683699
1325.939944895298,1325.939944895298,1.0000233795234181,0.00019637025044931387
1325.9468892144473,1325.9468892144473,0.9999983087475963,0.00019634683466797378
1325.9538335336958,1325.9538335336958,0.9998407206106803,0.0001963397136193282
1325.9613333985899,1325.9613333985899,0.9999472111630132,0.00019634657949570153
1325.9691110363813,1325.9691110363813,0.9999018378295915,0.00019633017641888274
1325.976055355944,1325.976055355944,1.0000992193152685,0.00019634580241362698
1325.9829996756055,1325.9829996756055,0.9996706644307242,0.00019630856555452524
1325.9899439953604,1325.9899439953604,1.0000063415484115,0.00019633973727454626
1325.9968883152026,1325.9968883152026,1.0002842909487892,0.00019637144275063854
1326.0038326351437,1326.0038326351437,1.0002372253531664,0.00019639614055660072
1326.0107769551837,1326.0107769551837,1.0001603940981074,0.00019640732003779548
1326.0177212753053,1326.0177212753053,1.000101344983706,0.00019640739290276344
1326.0246655955257,1326.0246655955257,0.999844297689809,0.00019643330145422035
1326.0316099158276,1326.0316099158276,0.9999829064242999,0.0001964493496684509
1326.0385542362226,1326.0385542362226,1.0000538677384454,0.0001964576438745546
1326.0454985567053,1326.0454985567053,0.9995284450237099,0.00019641319509918243
1326.0524428772803,1326.0524428772803,0.9998487275032716,0.0001964515050285485
1326.0593871979377,1326.0593871979377,1.0003154185978733,0.00019649149115990422
1326.066331518682,1326.066331518682,1.000066200096756,0.00019649024477181145
1326.0732758395075,1326.0732758395075,0.9998616003809284,0.00019648134306746761
1326.0802201604272,1326.0802201604272,0.9998979481389003,0.00019648233022703739
1326.0871644814215,1326.0871644814215,1.0002840773640145,0.00019651103959561592
1326.0941088025038,1326.0941088025038,0.9999925119377711,0.00019649926999790648
1326.1010531236611,1326.1010531236611,1.0000362380884547,0.00019650629254105637
1326.107997444912,1326.107997444912,0.9997738160757752,0.00019648492753787674
1326.1149417662268,1326.1149417662268,1.0003508283748328,0.00019652883116423118
1326.1218860876402,1326.1218860876402,0.9997658279155246,0.0001965012137837274
1326.128830409118,1326.128830409118,1.0000642989102873,0.00019652639564218333
1326.1357747306834,1326.1357747306834,1.0001672539007087,0.0001965392944823712
1326.1427190523125,1326.1427190523125,0.9997938630545118,0.0001964949305479536
1326.1496633740348,1326.1496633740348,0.999709235793145,0.00019649994182271204
1326.1566076958266,1326.1566076958266,1.000365644218432,0.00019656828423716727
1326.1635520176949,1326.1635520176949,0.9999079056633547,0.00019651445196766393
1326.1704963396319,1326.1704963396319,0.999951355650837,0.0001965206991682563
1326.1774406616455,1326.1774406616455,1.0000635547981638,0.00019651741916927367
1326.1843849837344,1326.1843849837344,0.9997505949144878,0.00019647921314857063
1326.1913293058929,1326.1913293058929,1.0000406713576955,0.00019650837539395374
1326.1982736281393,1326.1982736281393,1.0001484764183723,0.00019652829641993584
1326.2052179504376,1326.2052179504376,0.9999606995252439,0.00019651971436113365
1326.212162272818,1326.212162272818,1.0003566353180304,0.00019655063851762772
1326.2191065952618,1326.2191065952618,1.0000796291405618,0.00019653311899313954
1326.2260509177754,1326.2260509177754,1.0000958557868356,0.00019652727694477473
1326.2329952403593,1326.2329952403593,0.9997925987201691,0.00019651981404680163
1326.2399395630127,1326.2399395630127,0.9997647267398367,0.00019649852061078446
1326.2468838857305,1326.2468838857305,0.9997394932908085,0.00019649991596663833
1326.2538282085238,1326.2538282085238,1.0001517907580744,0.00019655621585483855
1326.2607725313696,1326.2607725313696,1.0000205890973295,0.00019652395439933527
1326.2677168542907,1326.2677168542907,0.9999444374917923,0.00019651867029958446
1326.274661177276,1326.274661177276,1.0000186829784314,0.0001965255061776075
1326.2816055003257,1326.2816055003257,0.9998200469993892,0.00019649207694264807
1326.2885498234386,1326.2885498234386,1.0002844165328084,0.000196537846090701
1326.2954941466162,1326.2954941466162,1.0002359469458164,0.00019653269668711714
1326.3024384698574,1326.3024384698574,0.9998802049008209,0.00019650079881774479
1326.3093827931575,1326.3093827931575,0.9998865482332688,0.00019649911764583789
1326.3163271165213,1326.3163271165213,0.9999861385789146,0.0001965163284128306
1326.3232714399487,1326.3232714399487,1.0000262587220798,0.00019653120104744394
1326.3302157634412,1326.3302157634412,1.000219568994511,0.00019655084651013427
1326.3371600869789,1326.3371600869789,0.9998475826583798,0.00019653225824692736
1326.344104410587,1326.344104410587,0.9998731733379731,0.0001965495967771457
1326.3538264637307,1326.3538264637307,1.0000394880330503,0.00019657153395247293
1326.3607707874783,1326.3607707874783,1.0000447468168843,0.00019659052272761086
1326.3677151112847,1326.3677151112847,0.9999579854804594,0.00019658521912728873
1326.3746594351542,1326.3746594351542,0.9999314559871081,0.00019658800409397655
1326.3816037590714,1326.3816037590714,0.9999520518015009,0.00019661451599215486
1326.388548083046,1326.388548083046,0.9998901798859432,0.00019660346634357587
1326.3954924070615,1326.3954924070615,1.0002999340705128,0.00019667485851142204
1326.402436731159,1326.402436731159,0.999862150178102,0.00019662590137490432
1326.409381055297,1326.409381055297,1.0001695946439624,0.0001966669044399532
1326.416325379493,1326.416325379493,1.0001106058523255,0.00019668838077243738
1326.423269703747,1326.423269703747,1.0000759825754915,0.0001967038531822609
1326.430214028042,1326.430214028042,0.9999019056069759,0.0001966850533502447
1326.4371583524012,1326.4371583524012,1.0000248172504742,0.0001967134009003625
1326.444102676807,1326.444102676807,0.999723350540431,0.00019671296917658015
1326.451047001265,1326.451047001265,0.9998063302575462,0.00019672515348998458
1326.4579913257867,1326.4579913257867,1.0000585700246751,0.00019676396292780184
1326.4649356503437,1326.4649356503437,0.999863240609342,0.00019673539798725743
1326.4718799749705,1326.4718799749705,1.0004137332551275,0.00019680911980407084
1326.4788242996206,1326.4788242996206,0.9999644265947168,0.00019677081317682828
1326.4857686243408,1326.4857686243408,1.0003306223653063,0.0001968134705706882
1326.4927129490954,1326.4927129490954,0.9998373312240865,0.00019676929401673155
1326.4996572739146,1326.4996572739146,0.9998469344854438,0.0001967882013683586
1326.5066015987736,1326.5066015987736,0.9998833163069829,0.0001967859318012517
1326.5135459236744,1326.5135459236744,0.999988044526089,0.00019681219884882007
1326.5204902486446,1326.5204902486446,1.000112367668121,0.000196841554943709
1326.5274345736384,1326.5274345736384,0.9998887785492332,0.0001968429895690045
1326.5343788986956,1326.5343788986956,1.0001680907547503,0.0001968617175293696
1326.5413232237881,1326.5413232237881,0.9999380060351222,0.0001968767323645741
1326.548267548933,1326.548267548933,1.00006678360617,0.00019690955471270496
1326.5552118741246,1326.5552118741246,0.9999654585510793,0.00019691077006957864
1326.5621561993567,1326.5621561993567,0.9999663873303701,0.00019691875051898873
1326.5691005246354,1326.5691005246354,0.9999243518588307,0.00019690710457976224
1326.576044849961,1326.576044849961,1.0000893248236586,0.00019691925115367868
1326.5829891753265,1326.5829891753265,0.9999671724156378,0.00019693170013836917
1326.589933500745,1326.589933500745,1.0001478254068532,0.00019696975040835803
1326.5968778261927,1326.5968778261927,0.9999654946749985,0.00019695174178768472
1326.603822151687,1326.603822151687,0.9998428836920954,0.00019695115683976742
1326.6107664772335,1326.6107664772335,1.0000043974995805,0.00019697236897591
1326.6177108028146,1326.6177108028146,1.0001546302462754,0.00019700283400303888
1326.6246551284369,1326.6246551284369,0.9999298813480039,0.00019697739655175376
1326.6315994541055,1326.6315994541055,1.0000547170987666,0.0001969968187658957
1326.6385437798208,1326.6385437798208,0.9998615484634408,0.00019698787965425672
1326.6454881055595,1326.6454881055595,1.0000736635014624,0.0001970270006217148
1326.6524324313448,1326.6524324313448,1.000141570412924,0.00019701256814721514
1326.6593767571826,1326.6593767571826,0.9999008072749943,0.0001969935938989924
1326.6663210830486,1326.6663210830486,1.0000938165492461,0.00019700670443482607
1326.6732654089562,1326.6732654089562,0.9997343631553521,0.00019695937839664398
1326.6802097349043,1326.6802097349043,1.0002959393987634,0.00019698203630367662
1326.6879873800187,1326.6879873800187,0.9997489173538912,0.00019692281738133317
1326.6954872521242,1326.6954872521242,0.9999410228155963,0.00019694155192014577
1326.7024315782,1326.7024315782,1.0001246856856183,0.00019692092981492688
1326.7096536773493,1326.7096536773493,0.9997957357019436,0.00019686848711941886
1326.7177090956877,1326.7177090956877,0.9999904157293538,0.00019689391651137093
1326.7246534218805,1326.7246534218805,0.9999634404896016,0.00019687307142650384
1326.7315977481137,1326.7315977481137,1.0002560356219725,0.00019688211535945832
1326.7385420743703,1326.7385420743703,1.0000969735799503,0.0001968500066757526
1326.7454864006738,1326.7454864006738,0.9999947913301632,0.00019681791704983547
1326.7524307270053,1326.7524307270053,0.9998489281689574,0.00019681512732596892
1326.7593750533906,1326.7593750533906,0.9998439330072454,0.0001968135003139994
1326.7663193797866,1326.7663193797866,1.0005677870442835,0.00019685358456614889
1326.773263706224,1326.773263706224,1.000015689166436,0.0001968072176967704
1326.7802080327017,1326.7802080327017,0.9995709007213499,0.00019677333553066225
1326.7871523592203,1326.7871523592203,0.9999014432971689,0.00019679623945255496
1326.794096685762,1326.794096685762,0.9999664929898149,0.00019681501167138318
1326.8010410123388,1326.8010410123388,1.000183686102158,0.00019684242045311197
1326.8079853389565,1326.8079853389565,0.9999379905942101,0.00019681902491487468
1326.8149296656027,1326.8149296656027,0.9999501108298154,0.00019683463836124977
1326.8218739922788,1326.8218739922788,1.0001308104386117,0.00019684242278521599
1326.828818318995,1326.828818318995,0.9998961694573903,0.0001968329842783676
1326.835762645735,1326.835762645735,0.9999901531798449,0.0001968361625181928
1326.8427069725099,1326.8427069725099,1.0008375135333325,0.00019688778953565905
1326.849651299331,1326.849651299331,0.999847938632232,0.00019681521559836238
1326.8565956261577,1326.8565956261577,0.9999710183056438,0.00019682464088136464
1326.8635399530317,1326.8635399530317,0.9999127173222362,0.00019680520663597204
1326.8704842799286,1326.8704842799286,1.0000557884654873,0.00019681616347637615
1326.877428606866,1326.877428606866,0.9998779121398839,0.0001967960278530228
1326.8843729338328,1326.8843729338328,0.9999137987992739,0.00019675411486765209
1326.891317260823,1326.891317260823,1.0001899575074753,0.0001967780908453003
1326.8982615878538,1326.8982615878538,1.0000931946843648,0.0001967169496393675
1326.905205914902,1326.905205914902,0.9998195387966569,0.00019668566849142356
1326.9121502419907,1326.9121502419907,0.9999252884801635,0.0001966187878081652
1326.9190945691032,1326.9190945691032,0.9997906123892817,0.00019660074211034313
1326.9260388962446,1326.9260388962446,1.0001571359234904,0.0001965957390991728
1326.9329832234212,1326.9329832234212,0.9999485896015881,0.00019654516725710515
1326.9399275506148,1326.9399275506148,0.999845928321532,0.00019650483672165167
1326.946871877855,1326.946871877855,1.0001981916842975,0.00019650399866777535
1326.9538162051128,1326.9538162051128,1.0002444149159768,0.00019648895099751758
1326.9607605323881,1326.9607605323881,1.000470971647896,0.00019646904084350157
1326.9677048596982,1326.9677048596982,0.9997113759973308,0.00019639590441168178
1326.9746491870433,1326.9746491870433,0.9997605920451644,0.00019637510685822484
1326.9815935144063,1326.9815935144063,1.0000787625701433,0.00019637197255630766
1326.9885378418091,1326.9885378418091,1.00005538016075,0.0001963654941803408
1326.9954821692245,1326.9954821692245,0.999913995259028,0.00019633634251904866
1327.0024264966742,1327.0024264966742,0.9999402565089955,0.00019635189678807462
1327.0093708241473,1327.0093708241473,0.9998591779638206,0.00019633633077970145
1327.0163151516438,1327.0163151516438,1.0000233285265936,0.00019635631974465072
1327.0232594791753,1327.0232594791753,1.0000553988877092,0.00019634447060096197
1327.0302038067243,1327.0302038067243,0.9999460083979521,0.0001963466933286049
1327.0371481343077,1327.0371481343077,1.000066326079987,0.00019635284173020814
1327.0440924619033,1327.0440924619033,0.9999197501484056,0.00019634657593064526
1327.0510367895336,1327.0510367895336,1.0001823435980144,0.00019635123798072352
