time,time,flux,flux_err
1325.29841511416,1325.29841511416,1.000171617365978,0.0003624668827972785
1325.306748549692,1325.306748549692,0.999598330833066,0.0003623809818922988
1325.3143875324772,1325.3143875324772,1.0002822175925494,0.000330938483345708
1325.3213320624607,1325.3213320624607,0.9996120083058209,0.0003309116275694294
1325.3282765926535,1325.3282765926535,1.0003624342618846,0.0003310647756513621
1325.3352211230329,1325.3352211230329,1.0003980930452019,0.00033119714001696756
1325.3421656535636,1325.3421656535636,1.0003009450259739,0.0003312741002240822
1325.349110184292,1325.349110184292,1.0001403583478399,0.00033132609872634476
1325.356054715172,1325.356054715172,0.999931077656828,0.000331447632204349
1325.362999246261,1325.362999246261,0.9997440551429305,0.00033161552489233777
1325.369943777502,1325.369943777502,1.0004393118697255,0.000331811217148374
1325.3768883089056,1325.3768883089056,0.9997325072938302,0.00033191378185590747
1325.383832840484,1325.383832840484,0.999742655115511,0.00033209765734458637
1325.390777372237,1325.390777372237,1.000296531839147,0.00033236032133216007
1325.3977219041292,1325.3977219041292,0.9995736800867402,0.00033244187238603103
1325.404666436197,1325.404666436197,1.000528407058607,0.00033271656750546004
1325.411610968415,1325.411610968415,0.9995797518953997,0.00033269919828946004
1325.4185555007855,1325.4185555007855,1.0003613221999366,0.000332955090114975
1325.4255000333299,1325.4255000333299,0.9997932492546528,0.0003330914852413845
1325.4324445660138,1325.4324445660138,0.9998228729014359,0.0003332357046750335
1325.43938909885,1325.43938909885,0.9998851097358887,0.00033337942105157264
1325.4463336318365,1325.4463336318365,1.0000528812972445,0.0003335845282332219
1325.4532781649632,1325.4532781649632,0.999979500752349,0.0003336868450556599
1325.460222698241,1325.460222698241,1.0000741430152467,0.00033387393524185666
1325.4671672316701,1325.4671672316701,1.0003594222576784,0.0003341026895011083
1325.4741117652397,1325.4741117652397,0.9999060304583416,0.0003341856552839987
1325.4810562989364,1325.4810562989364,0.9998946781213732,0.00033440832357223597
1325.4880008327618,1325.4880008327618,0.9998063985031823,0.0003345720596951956
1325.49494536675,1325.49494536675,1.0000835600293745,0.0003348080795995252
1325.5018899008542,1325.5018899008542,0.9999911864043319,0.00033499322630027605
1325.5088344350986,1325.5088344350986,1.0004431353331225,0.0003352861344742955
1325.515778969494,1325.515778969494,0.9999972739693815,0.00033543509884846026
1325.522723503983,1325.522723503983,0.9995681781921013,0.00033561429402327586
1325.529668038611,1325.529668038611,0.9997257454093974,0.0003358710919425268
1325.5366125733676,1325.5366125733676,0.9997794730160784,0.0003360551862386553
1325.5435571082521,1325.5435571082521,1.000248101800622,0.00033638395500119975
1325.5505016432762,1325.5505016432762,1.0001232023003108,0.00033656844443201764
1325.5574461783822,1325.5574461783822,1.0000421850947976,0.00033676828397618847
1325.5643907136275,1325.5643907136275,0.9999902580936786,0.0003369921006787699
1325.5713352489893,1325.5713352489893,1.0001501296744038,0.00033723766833104166
1325.578279784468,1325.578279784468,1.0001862059277054,0.0003374522182531454
1325.5852243200854,1325.5852243200854,0.9998721199034148,0.00033756790890053214
1325.592168855773,1325.592168855773,1.000033410925671,0.00033779628107355366
1325.5991133916007,1325.5991133916007,1.0000518657858746,0.0003379729166472892
1325.6060579275327,1325.6060579275327,0.9998069832741964,0.0003381476880057587
1325.61300246357,1325.61300246357,1.0000845287689573,0.0003383208861178769
1325.6199469997118,1325.6199469997118,1.0000367755872623,0.0003385163100381692
1325.62689153597,1325.62689153597,1.0000291197060047,0.0003386199059261795
1325.6338360723328,1325.6338360723328,0.9999204689012391,0.0003387634736090894
1325.640780608766,1325.640780608766,0.9999906651324432,0.0003388710090039413
1325.6477251453614,1325.6477251453614,1.000267429287235,0.0003390511084288603
1325.6546696820155,1325.6546696820155,1.0001587731305919,0.00033910864357660045
1325.661614218774,1325.661614218774,1.0000055488694908,0.0003392230222427662
1325.668558755638,1325.668558755638,1.0001922309056535,0.00033933841774379237
1325.6755032925944,1325.6755032925944,1.0004042479831052,0.0003394934890404066
1325.6824478296562,1325.6824478296562,0.9992724324083326,0.00033950451649134765
1325.6893923668108,1325.6893923668108,0.9997646198880549,0.0003397419809094416
1325.6963369040468,1325.6963369040468,1.0001251457058666,0.0003399486751956785
1325.7032814413647,1325.7032814413647,0.9998856792339403,0.00034012403817660844
1325.7102259788103,1325.7102259788103,1.0006142312544353,0.00034040994448656194
1325.7171705163141,1325.7171705163141,0.9999958305337305,0.00034057482232023145
1325.7241150539226,1325.7241150539226,1.0000344136444705,0.00034079463213863555
1325.731059591601,1325.731059591601,1.000104468333634,0.00034103003683761426
1325.7380041293843,1325.7380041293843,1.0000469267012657,0.00034126719445528913
1325.7449486672256,1325.7449486672256,0.9998126827078636,0.00034148105528622306
1325.7518932051603,1325.7518932051603,1.0000237836580623,0.00034174499736614475
1325.7588377431998,1325.7588377431998,0.999492548245507,0.00034195589430123773
1325.7657822812969,1325.7657822812969,1.0002399882265505,0.000342304892191694
1325.7727268194765,1325.7727268194765,1.0001180026183418,0.0003425578944334444
1325.7796713577366,1325.7796713577366,1.0002213675462426,0.0003428539367360603
1325.7866158960794,1325.7866158960794,0.9997867454505907,0.000343077070723287
1325.7935604345143,1325.7935604345143,1.0005935181410188,0.0003434205757515623
1325.8005049729843,1325.8005049729843,0.999589209629724,0.0003434947806040681
1325.8074495115593,1325.8074495115593,1.0000176908332747,0.00034379496680722333
1325.8143940502152,1325.8143940502152,1.0001020739698994,0.0003439827133629191
1325.8213385889303,1325.8213385889303,0.9997358397463938,0.00034411707134414285
1325.8282831277143,1325.8282831277143,0.9999649007209863,0.00034431423975094
1325.8352276665687,1325.8352276665687,1.0004671209547362,0.00034455767383695585
1325.842172205505,1325.842172205505,0.9991563619753153,0.00034447642096864685
1325.8491167444984,1325.8491167444984,1.0003559641961401,0.00034475570502505535
1325.8560612835506,1325.8560612835506,1.0003013514302022,0.0003447890680733154
1325.8630058226843,1325.8630058226843,1.000209597378336,0.0003448360796617199
1325.8699503618996,1325.8699503618996,1.0000610824616667,0.00034473682335417396
1325.8768949011496,1325.8768949011496,1.0005139440446709,0.0003447183477248928
1325.883839440481,1325.883839440481,0.9996678095590624,0.0003445927303416282
1325.8907839798596,1325.8907839798596,0.9997972286209711,0.00034457820979223134
1325.8977285193305,1325.8977285193305,1.0001464015559738,0.0003446676420264431
1325.9046730588484,1325.9046730588484,0.9993840769555581,0.00034453844546244165
1325.9116175984243,1325.9116175984243,1.0002183234771043,0.000344632819904224
1325.9185621380586,1325.9185621380586,1.0001023632802142,0.00034465176253026285
1325.9255066777398,1325.9255066777398,1.0000225060308119,0.0003447829794570712
1325.932451217525,1325.932451217525,0.9998965435839929,0.0003447712275646773
1325.9393957573343,1325.9393957573343,1.0002387902803496,0.00034488128865387273
1325.9463402972012,1325.9463402972012,0.9998503739432266,0.0003448976405418805
1325.9532848371266,1325.9532848371266,0.9996739220244333,0.00034499591988597573
1325.9607849403342,1325.9607849403342,1.0001298442866464,0.0003451819066676963
1325.9685628251646,1325.9685628251646,1.000407248656188,0.00034535289922464326
1325.9755073652645,1325.9755073652645,1.000050508071419,0.0003454866472252092
1325.9824519054225,1325.9824519054225,1.0000076725608893,0.0003456857091393772
1325.9893964456273,1325.9893964456273,1.0000937739177123,0.0003459132271918807
1325.996340985867,1325.996340985867,0.9999325786054086,0.0003461377139414161
1326.0032855261998,1326.0032855261998,1.000142716173944,0.00034640638522064797
1326.010230066556,1326.010230066556,1.0000161483017052,0.0003467256931939886
1326.0171746069818,1326.0171746069818,0.9993263378949127,0.0003469761941051663
1326.024119147431,1326.024119147431,0.9997266327928875,0.00034737070151444436
1326.0310636879385,1326.0310636879385,1.000167646378138,0.000347692838848113
1326.0380082284805,1326.0380082284805,0.99990777390038,0.0003477773480350113
1326.0449527691046,1326.0449527691046,1.0003708773061177,0.0003479352008581942
1326.0518973097398,1326.0518973097398,1.000583407704035,0.00034824456075443426
1326.058841850445,1326.058841850445,0.9998322575698009,0.00034832846757704985
1326.0657863911852,1326.0657863911852,1.0001464448929185,0.0003485871938587579
1326.0727309319602,1326.0727309319602,0.9998781148181974,0.00034873908707959574
1326.0796754728058,1326.0796754728058,1.0001041078672697,0.0003489552808935997
1326.086620013662,1326.086620013662,0.9993046964604421,0.00034907021908473244
1326.0935645545887,1326.0935645545887,1.0000266655396155,0.0003493555369532146
1326.1005090955382,1326.1005090955382,1.0000698503923624,0.0003495757392393639
1326.1074536365345,1326.1074536365345,0.9998427432979782,0.0003497190747373657
1326.1143981775774,1326.1143981775774,1.0004281839521594,0.00035001758540980423
1326.1213427186551,1326.1213427186551,0.9999705955662161,0.00035010308183862864
1326.1282872597913,1326.1282872597913,0.999696532231068,0.00035020372791597077
1326.1352318009622,1326.1352318009622,1.0003626969695079,0.00035047893119672844
1326.142176342133,1326.142176342133,1.0001982505897378,0.00035061891761786355
1326.1491208833743,1326.1491208833743,0.9997077535968535,0.00035076594213375334
1326.1560654246493,1326.1560654246493,1.000089711831238,0.0003510283746093215
1326.1630099659608,1326.1630099659608,0.9999200046706344,0.00035111683039617213
1326.1699545073056,1326.1699545073056,1.0000397849420863,0.0003513024489889078
1326.176899048698,1326.176899048698,1.0003603536926995,0.0003515077161174931
1326.1838435901136,1326.1838435901136,0.9998254580254351,0.00035154052793121725
1326.190788131552,1326.190788131552,0.9997915946175194,0.00035173677566626885
1326.1977326730726,1326.1977326730726,0.9998594477906824,0.00035187820585157176
1326.204677214581,1326.204677214581,0.9998469570964404,0.0003520852557023279
1326.2116217561481,1326.2116217561481,1.000039336196022,0.00035222386997797977
1326.2185662977377,1326.2185662977377,1.0000025184555636,0.00035234262365660136
1326.2255108393626,1326.2255108393626,1.000153315017139,0.00035252329900195035
1326.2324553810226,1326.2324553810226,0.9999623704600442,0.00035263893694395434
1326.239399922717,1326.239399922717,1.000291115925688,0.0003528667151815755
1326.246344464424,1326.246344464424,1.0001836715699728,0.0003530134853132744
1326.2532890061652,1326.2532890061652,0.9996132116937269,0.00035313735254477604
1326.2602335479764,1326.2602335479764,0.9998525767332076,0.0003533223943821836
1326.2671780897763,1326.2671780897763,1.0001086331833853,0.0003535187251388027
1326.2741226316218,1326.2741226316218,0.9999787400513235,0.0003536973712178489
1326.2810671735035,1326.2810671735035,1.0000190411504801,0.0003538819632545847
1326.2880117154077,1326.2880117154077,1.0002593519674563,0.00035410890311445736
1326.2949562573472,1326.2949562573472,0.9999226583060128,0.00035432416954071604
1326.3019007992857,1326.3019007992857,1.0000885233390364,0.0003545518309126416
1326.3088453412838,1326.3088453412838,0.999943435809068,0.00035481197853435366
1326.3157898832812,1326.3157898832812,0.999665222253723,0.0003550322349575105
1326.322734425325,1326.322734425325,1.0001511339770293,0.0003554346716349885
1326.3296789674046,1326.3296789674046,0.9994423986372549,0.00035564977800880797
1326.336623509495,1326.336623509495,1.0000196872008136,0.00035607583324990584
1326.3435680516086,1326.3435680516086,0.9998979264643397,0.0003564377775996182
1326.3532904106335,1326.3532904106335,1.000156238174547,0.00035705161764653564
1326.3602349528169,1326.3602349528169,1.000072939996726,0.00035742234500967446
1326.3671794950242,1326.3671794950242,1.0004336202684734,0.00035783929480625486
1326.3741240372426,1326.3741240372426,0.9995288625167159,0.0003581487302001729
1326.3810685795083,1326.3810685795083,0.9995928201829948,0.00035848643665558407
1326.3880131217852,1326.3880131217852,1.0003938793965803,0.00035897853353460146
1326.3949576640969,1326.3949576640969,0.9996729723279154,0.0003592713850753621
1326.401902206432,1326.401902206432,0.9997751263820571,0.0003596158504984012
1326.4088467487672,1326.4088467487672,0.999621934989713,0.0003599648558709553
1326.4157912911373,1326.4157912911373,0.999968847270798,0.0003603877747938368
1326.4227358335306,1326.4227358335306,1.000135409851434,0.00036078394672728944
1326.4296803759473,1326.4296803759473,1.0003996971289442,0.00036111766024769776
1326.436624918375,1326.436624918375,0.9998761382192483,0.00036139440131826883
1326.4435694608385,1326.4435694608385,1.0002308632346617,0.00036176476200298213
1326.4505140033132,1326.4505140033132,0.9999904057874662,0.0003621038645185775
1326.457458545811,1326.457458545811,0.9997600440700781,0.0003623805224384748
1326.4644030883442,1326.4644030883442,0.9992910577994565,0.00036263300330500347
1326.4713476308657,1326.4713476308657,0.9999873158531021,0.0003630576363143757
1326.4782921734336,1326.4782921734336,0.9996280237332691,0.0003633046470682531
1326.485236716025,1326.485236716025,0.9999950845226515,0.00036371221666957733
1326.4921812585928,1326.4921812585928,1.0000964971418707,0.0003640301420730871
1326.4991258012192,1326.4991258012192,0.9999847657262464,0.00036429810162729945
1326.5060703438448,1326.5060703438448,0.9991399908519014,0.0003646009971354674
1326.5130148865178,1326.5130148865178,1.0001948687241635,0.00036506911712546177
1326.5199594291903,1326.5199594291903,1.000416162545536,0.00036541665707191914
1326.526903971875,1326.526903971875,0.9993553586560056,0.0003657193779620646
1326.5338485145826,1326.5338485145826,1.0003358311049328,0.00036621076110595653
1326.5407930573017,1326.5407930573017,1.0003137621460392,0.0003666964418317498
1326.5477376000558,1326.5477376000558,0.9999523951848739,0.00036718442248979494
1326.5546821427984,1326.5546821427984,0.9998799036183526,0.00036747991078124847
1326.561626685576,1326.561626685576,0.9999816713147194,0.00036776130036608376
1326.5685712283766,1326.5685712283766,0.999918575053097,0.0003679900204920785
1326.5755157711778,1326.5755157711778,0.9995710604467944,0.00036828498775399153
1326.5824603140013,1326.5824603140013,0.9997377702163737,0.00036853530639767266
1326.5894048568375,1326.5894048568375,0.999172100889715,0.00036881569553785175
1326.5963493996962,1326.5963493996962,1.0002563658210857,0.00036920025072284155
1326.603293942567,1326.603293942567,0.9998775580367398,0.00036944956997581903
1326.6102384854491,1326.6102384854491,1.0003815808325303,0.00036978775004872913
1326.617183028366,1326.617183028366,1.0005511152328075,0.00037003454642757716
1326.6241275712832,1326.6241275712832,0.9999967834604171,0.0003701381810143196
1326.6310721142004,1326.6310721142004,0.9997495818968227,0.00037031222396352224
1326.6380166571175,1326.6380166571175,0.9995152915576876,0.0003704317977712001
1326.6449612000931,1326.6449612000931,0.9996707529310358,0.00037058291152895583
1326.6519057430453,1326.6519057430453,0.9991921300341164,0.00037057813355645
1326.6588502860327,1326.6588502860327,0.9999750289448677,0.00037072928068138334
1326.6657948290308,1326.6657948290308,0.9993588057249976,0.000370686377992418
1326.6727393720298,1326.6727393720298,0.9993890539596657,0.000370645648241195
1326.6796839150516,1326.6796839150516,1.0001854700412633,0.0003707954225163644
1326.6874618032584,1326.6874618032584,1.0006004273349276,0.00037079526797284437
1326.6949619097486,1326.6949619097486,0.9997874446691736,0.00037058855359297293
1326.7019064528172,1326.7019064528172,0.9996380580745295,0.00037050064343053916
1326.7091287776027,1326.7091287776027,1.00044931808009,0.0003704748583203027
1326.7171844475845,1326.7171844475845,0.9996649602699039,0.00037040557573263076
1326.7241289906763,1326.7241289906763,0.9997812982880975,0.0003703401436423865
1326.7310735337912,1326.7310735337912,0.9998225263161613,0.0003704003800063285
1326.7380180769064,1326.7380180769064,1.0000374438961237,0.0003704037303678947
1326.7449626200448,1326.7449626200448,1.0000933745027134,0.00037033365365531117
1326.7519071631828,1326.7519071631828,0.9999891937249149,0.0003703355307655718
1326.7588517063332,1326.7588517063332,0.9995424463110705,0.0003702787236894019
1326.7657962494945,1326.7657962494945,0.9999843596795461,0.000370291338343696
1326.77274079268,1326.77274079268,0.999724720902677,0.00037029404146882
1326.7796853358414,1326.7796853358414,0.9998859190447502,0.00037036798849582515
1326.786629879038,1326.786629879038,1.0003100499390545,0.00037052762347655874
1326.7935744222461,1326.7935744222461,0.9999365583873001,0.00037058667765497343
1326.8005189654546,1326.8005189654546,1.0006106811141737,0.00037079077537619843
1326.8074635086741,1326.8074635086741,1.0000309927769921,0.0003709545007865173
1326.8144080519287,1326.8144080519287,0.9997391810720787,0.00037104812152613515
1326.821352595149,1326.821352595149,1.0000273564578015,0.0003712144799818635
1326.8282971384037,1326.8282971384037,1.000028361764473,0.0003712704519464825
1326.83524168167,1326.83524168167,0.9991621966362549,0.0003713654024429521
1326.8421862249365,1326.8421862249365,0.9997525565447484,0.00037147999387346364
1326.8491307682145,1326.8491307682145,0.9998876435068009,0.0003715523361408202
1326.8560753114925,1326.8560753114925,1.000357206749129,0.00037162087636812924
1326.8630198547826,1326.8630198547826,1.000208777946786,0.0003714886995773467
1326.869964398084,1326.869964398084,0.999990705692736,0.00037132720376620515
1326.876908941385,1326.876908941385,1.0005464240333932,0.0003712171177814468
1326.8838534847098,1326.8838534847098,1.0004376780007145,0.0003710212252616068
1326.8907980280342,1326.8907980280342,0.99936665407739,0.0003706582429824387
1326.897742571359,1326.897742571359,1.0000690625573352,0.00037035799311665947
1326.9046871146952,1326.9046871146952,0.9994292864717347,0.0003698767128371546
1326.9116316580548,1326.9116316580548,0.9994145386040285,0.0003695038314073092
1326.9185762014029,1326.9185762014029,0.9997256278026063,0.0003691476679414901
1326.9255207447623,1326.9255207447623,1.0004183550512689,0.0003687745815408308
1326.9324652881219,1326.9324652881219,1.0002659894795964,0.0003683582516062169
1326.9394098314929,1326.9394098314929,1.0004189160461672,0.00036795191695402474
1326.9463543748757,1326.9463543748757,1.0003875222772332,0.0003675411272006998
1326.9532989182587,1326.9532989182587,1.000291185636244,0.0003672076581990423
1326.9602434616534,1326.9602434616534,0.9995647322471164,0.0003667309696370154
1326.9671880050478,1326.9671880050478,0.9994193796131347,0.0003664131123861332
1326.9741325484538,1326.9741325484538,1.0003177444955111,0.00036625012575456717
1326.98107709186,1326.98107709186,0.9999493974400846,0.0003659473550292313
1326.9880216352892,1326.9880216352892,1.0003433500026466,0.00036578773335434086
1326.994966178696,1326.994966178696,1.0002066252103607,0.0003656716287596596
1327.0019107221249,1327.0019107221249,0.9995913100676063,0.0003654803359244623
1327.008855265566,1327.008855265566,0.9996414126848295,0.0003654207407518975
1327.0157998089953,1327.0157998089953,1.000154260822613,0.0003654239882283757
1327.022744352448,1327.022744352448,0.9998487798356009,0.0003653657073496588
1327.0296888958894,1327.0296888958894,0.9999676894467534,0.00036543538498704794
1327.0366334393534,1327.0366334393534,0.9996433273406993,0.0003654672766260411
1327.0435779828065,1327.0435779828065,0.9998257331602869,0.0003655561642517766
1327.050522526259,1327.050522526259,1.000637156689781,0.0003657357526128411
1327.0580226332147,1327.0580226332147,1.0004796047385203,0.00036588796579310057
