time,time,flux,flux_err
1597.118513507623,1597.118513507623,1.0140038671440654,0.022046301219782818
1597.131013703203,1597.131013703203,0.9983591420256385,0.021956910766557442
1597.141662018227,1597.141662018227,1.0144538597591122,0.02188391768475565
1597.1509214229109,1597.1509214229109,0.9996850949115276,0.02182330123497974
1597.1594863724633,1597.1594863724633,0.9894301223615894,0.019887632546224665
1597.1664309262735,1597.1664309262735,1.024251064604875,0.01984485560665047
1597.1733754802692,1597.1733754802692,0.9790116936894636,0.01979624587609466
1597.1803200343588,1597.1803200343588,0.9884917893207229,0.019733825641305165
1597.187264588541,1597.187264588541,0.987789452152642,0.019695777701365914
1597.1942091429094,1597.1942091429094,1.0155369729929693,0.019633986827513508
1597.2033759548308,1597.2033759548308,1.0019301193166816,0.01954611573244004
1597.2108760738317,1597.2108760738317,1.0205206638361584,0.01946098164460032
1597.2178206286198,1597.2178206286198,1.0042141841491623,0.019406034022320707
1597.2275430054528,1597.2275430054528,0.9844873056415089,0.01928054516889448
1597.2383765114578,1597.2383765114578,0.9900545167610654,0.019158450290786836
1597.245598848888,1597.245598848888,0.9691703488814547,0.019106159952501325
1597.2525434042343,1597.2525434042343,1.0324227950317246,0.019086118152045986
1597.2597657419906,1597.2597657419906,1.0331919117204154,0.019036976239993113
1597.2686547731323,1597.2686547731323,1.0113562998401266,0.018977409190881842
1597.2761548933438,1597.2761548933438,0.9883255427564668,0.018935975389209766
1597.2830994492026,1597.2830994492026,1.0009974134651916,0.01887950712289379
1597.290877351917,1597.290877351917,0.9812377984763296,0.01886325922142634
1597.30032194825,1597.30032194825,0.9860778690379535,0.01880601375872291
1597.3128221495967,1597.3128221495967,1.009840593123146,0.018738441352208444
1597.323377875428,1597.323377875428,0.9744178329452756,0.0187244755799097
1597.3317113433804,1597.3317113433804,1.0121490796633188,0.0187159521683511
1597.3411559405517,1597.3411559405517,1.003724906358614,0.01870994072380845
1597.3497671910989,1597.3497671910989,1.0095265100942061,0.018665544463928686
1597.356711748076,1597.356711748076,1.0093701969193631,0.018659582335404372
1597.3644896520939,1597.3644896520939,0.9976685346681089,0.018622378362096084
1597.373378685285,1597.373378685285,0.9850155227443752,0.018630055403314714
1597.381712154122,1597.381712154122,1.001159259216171,0.018602966019039137
1597.38865671161,1597.38865671161,0.9899776670062611,0.0185773106638997
1597.395601269192,1597.395601269192,1.0224878147387049,0.018536379239357657
1597.4025458268197,1597.4025458268197,1.0095295728204803,0.018484911100583746
1597.4094903844953,1597.4094903844953,0.9740203591895942,0.018445531998644658
1597.418657200933,1597.418657200933,0.9884947001208773,0.018430566900602977
1597.426157323473,1597.426157323473,1.0118940028626664,0.0184343567114457
1597.4331018816142,1597.4331018816142,0.9976879147092644,0.018414400477089393
1597.4400464397072,1597.4400464397072,1.0024156630674466,0.018343776999714713
1597.4469909979878,1597.4469909979878,1.037872269082539,0.01831767846695489
1597.4539355563145,1597.4539355563145,1.0206636088904597,0.01828689968845392
1597.4608801146878,1597.4608801146878,1.012935298426447,0.018228976738670365
1597.4678246732474,1597.4678246732474,0.9757739466460992,0.018180421259260275
1597.4747692318535,1597.4747692318535,0.9967382195901667,0.01815985574545898
1597.4817137905527,1597.4817137905527,0.9730346321632192,0.018045814286806856
1597.488658349252,1597.488658349252,0.9885800654775311,0.018029475411099227
1597.4956029081372,1597.4956029081372,1.026669852498287,0.0180453206265327
1597.502547466976,1597.502547466976,1.0307364807344588,0.018081599146936203
1597.5094920260485,1597.5094920260485,1.034520943325204,0.018083759297014567
1597.5164365851197,1597.5164365851197,1.001617928004573,0.018063120873079794
1597.5233811443318,1597.5233811443318,1.0005380951566418,0.01807569874150843
1597.5303257035425,1597.5303257035425,1.0094511948416496,0.01805295940394502
1597.5372702628943,1597.5372702628943,0.9882388285280239,0.018029007280955002
1597.544214822245,1597.544214822245,0.9890294444490004,0.01804010329000815
1597.5511593817828,1597.5511593817828,0.9846109224444604,0.01802404058163343
1597.5581039413669,1597.5581039413669,0.9891291468324306,0.018047224780745205
1597.5650485009974,1597.5650485009974,0.9832237317428397,0.01811401093740369
1597.5719930606745,1597.5719930606745,1.0095840708018815,0.018125825047579147
1597.5789376204443,1597.5789376204443,1.0104567403107259,0.018073557179415684
1597.585882180308,1597.585882180308,0.9954550838686329,0.018035394143637452
1597.5928267402178,1597.5928267402178,1.011927660022755,0.01797233142993252
1597.5997713002214,1597.5997713002214,1.0002338378024271,0.017960977937208376
1597.6067158602705,1597.6067158602705,0.992866189824864,0.017917571248472063
1597.6136604205067,1597.6136604205067,1.008827014863868,0.017853901994113606
1597.6206049806028,1597.6206049806028,0.9733540070521581,0.017838036321839876
1597.6275495409786,1597.6275495409786,1.0051016736874245,0.017864565914518665
1597.6344941012144,1597.6344941012144,1.0178935310659536,0.017887002411034303
1597.6414386616368,1597.6414386616368,0.9976565645963615,0.017826191375829758
1597.6483832221054,1597.6483832221054,1.0051574832295498,0.01784248822015854
1597.655327782667,1597.655327782667,0.9892090667943876,0.017867267460021465
1597.662272343229,1597.662272343229,1.0039737370784063,0.017878593234940936
1597.6692169039304,1597.6692169039304,1.0014985386983049,0.0178757061011744
1597.676161464679,1597.676161464679,1.0052419621913993,0.01787370375360397
1597.6831060254735,1597.6831060254735,0.9842475568230109,0.01787377434321821
1597.6900505863148,1597.6900505863148,1.0082334246190994,0.017897745531849828
1597.696995147203,1597.696995147203,1.005269518607419,0.017917552339620765
1597.7039397081367,1597.7039397081367,1.0012103493563773,0.017870629628615194
1597.7108842692116,1597.7108842692116,0.9664633856271975,0.017811689345269055
1597.717828830285,1597.717828830285,1.018687785930672,0.01778377489755473
1597.7247733914526,1597.7247733914526,1.0023914116519108,0.017717701911064546
1597.731717952666,1597.731717952666,0.9896123298874553,0.017633189093592343
1597.7386625138804,1597.7386625138804,0.9997422794301271,0.017584332527024755
1597.7456070752337,1597.7456070752337,0.9928268272245176,0.01752297515626177
1597.7525516366338,1597.7525516366338,0.9996327721285292,0.01748638748118888
1597.759496198034,1597.759496198034,1.0308088001834446,0.0174951778371352
1597.7664407594802,1597.7664407594802,0.9977648234033399,0.017421260834703117
1597.773385321067,1597.773385321067,0.9941993340765277,0.01740821896102267
1597.7803298826525,1597.7803298826525,0.996765872122117,0.017426857837401277
1597.7872744442861,1597.7872744442861,1.018414350592306,0.01748309818416732
1597.7942190060119,1597.7942190060119,0.9765130799821679,0.01750072887526738
1597.8011635677383,1597.8011635677383,0.9872138683386036,0.017529039981124282
1597.8081081295572,1597.8081081295572,0.9904264764731245,0.017563580965755207
1597.8150526913764,1597.8150526913764,0.985537162538682,0.017611117233285435
1597.821997253242,1597.821997253242,1.0195138110489783,0.01767598963817083
1597.8289418152476,1597.8289418152476,1.003939681093348,0.01765954499382593
1597.8358863772066,1597.8358863772066,0.9844501001103648,0.01760814562509011
1597.845330981595,1597.845330981595,1.007467559519024,0.017592177355012013
1597.8539422385693,1597.8539422385693,1.003904492856095,0.01755743306905482
1597.8608868007616,1597.8608868007616,1.0162233296380967,0.017506100069895093
1597.8678313629528,1597.8678313629528,1.0052317931266326,0.01745820476541351
1597.874775925238,1597.874775925238,1.0161473394370937,0.017414860956468232
1597.8817204874758,1597.8817204874758,0.9961188911549466,0.017330723151002356
1597.8886650498544,1597.8886650498544,0.9900794290720949,0.01728616630576734
1597.8956096121851,1597.8956096121851,1.0158992226949213,0.017290711132425567
1597.9025541746564,1597.9025541746564,0.9943179844214312,0.01723545499034578
1597.9094987370809,1597.9094987370809,1.004795456184403,0.017169652713839835
1597.916443299645,1597.916443299645,0.9891361664395649,0.017133951307516337
1597.9233878622097,1597.9233878622097,1.0050403367137855,0.01708275632080785
1597.9303324247735,1597.9303324247735,1.0118294717352372,0.017031879085518852
1597.9372769873382,1597.9372769873382,1.005958588804461,0.017006319551817146
1597.9442215500883,1597.9442215500883,0.9916022014935324,0.016950673525762083
1597.951166112746,1597.951166112746,0.9935109267372093,0.016908023452486484
1597.9581106754963,1597.9581106754963,0.9881460392368651,0.016883577563373157
1597.9650552382932,1597.9650552382932,1.0283096408105608,0.01686747662313063
1597.971999801137,1597.971999801137,1.0053100322797919,0.01680895202196162
1597.9789443639802,1597.9789443639802,0.9993159720475017,0.016744058578873223
1597.9858889268708,1597.9858889268708,0.9863654883422239,0.016692847393162704
1597.9928334898073,1597.9928334898073,0.9969794485782086,0.016647765078269417
1597.9997780527442,1597.9997780527442,0.993335887884404,0.016609489649879336
1598.006722615774,1598.006722615774,0.9999401892975623,0.01655278261275572
1598.0136671788043,1598.0136671788043,0.9825555376767936,0.016485940342280635
1598.0206117418804,1598.0206117418804,0.9814060200524686,0.01645430858213453
1598.0275563050498,1598.0275563050498,1.0286641253990503,0.016434679003789567
1598.0345008681732,1598.0345008681732,1.0214071149795536,0.016417133870153096
1598.041445431342,1598.041445431342,0.9935673998902583,0.01635545337460984
1598.0483899945125,1598.0483899945125,0.9929245596490475,0.016312967249747345
1598.0553345577277,1598.0553345577277,0.9894570527016862,0.016315933280259532
1598.0631124686383,1598.0631124686383,1.0140414317762225,0.016281574806740532
1598.0706125969527,1598.0706125969527,0.9899081826938241,0.01624293628060043
1598.0775571603085,1598.0775571603085,1.0007640737091534,0.01625127389738313
1598.0845017236647,1598.0845017236647,1.0003447391367568,0.016233066992534097
1598.0914462870667,1598.0914462870667,1.0033784403514785,0.016248322959903055
1598.0983908505164,1598.0983908505164,0.9933235641758952,0.01623014605248637
1598.105335413918,1598.105335413918,0.9984713604687062,0.01618735153329866
1598.1122799774137,1598.1122799774137,1.0107207934916067,0.016169224221882404
1598.1192245409559,1598.1192245409559,0.9918600073168857,0.01611586793361026
1598.1261691044515,1598.1261691044515,1.0075110179271571,0.016075519056523477
1598.1331136679935,1598.1331136679935,1.0093638379392578,0.0160378909138932
1598.1400582316746,1598.1400582316746,0.9908574757789955,0.015988247841941045
1598.1483917079165,1598.1483917079165,0.994066616564879,0.015933591486619235
1598.1553362716445,1598.1553362716445,1.0097494687460908,0.015895322292694573
1598.1622808353732,1598.1622808353732,1.0050908588957157,0.015865063428234735
1598.1692253989618,1598.1692253989618,0.9934481295160656,0.0158128227558949
1598.1761699625972,1598.1761699625972,1.009970442084756,0.015801713212388945
1598.183114526512,1598.183114526512,1.0123533477555289,0.01575009597792924
1598.1900590902865,1598.1900590902865,0.9902136653403522,0.01571728516300725
1598.1970036540156,1598.1970036540156,0.996186650069436,0.015685706977532545
1598.20394821779,1598.20394821779,0.9923630827553659,0.015634710497512957
1598.2108927817044,1598.2108927817044,1.0111200866547052,0.015619025458656307
1598.2178373455263,1598.2178373455263,0.9865049187469902,0.015610892145751764
1598.224781909394,1598.224781909394,1.0038654672346403,0.015567337806058998
1598.2317264733556,1598.2317264733556,0.9956306317167565,0.015551416822570727
1598.2386710372696,1598.2386710372696,1.0091276749579468,0.015519887333258367
1598.2456156011847,1598.2456156011847,0.9988961267436223,0.015495968659129111
1598.2525601651457,1598.2525601651457,1.004043458102278,0.015495524807472938
1598.2595047291538,1598.2595047291538,0.9980110811025475,0.015443985181227023
1598.2664492932079,1598.2664492932079,0.9946764417556672,0.015447068529996912
1598.2733938572153,1598.2733938572153,1.0016491060792232,0.015418887629247837
1598.2803384212234,1598.2803384212234,1.0044837086516614,0.015427573239318959
1598.2872829853238,1598.2872829853238,1.0106130930349415,0.015403794091029589
1598.2942275493788,1598.2942275493788,0.9876470205024173,0.015385204644383154
1598.3011721135258,1598.3011721135258,0.9968485931112714,0.015388835926530262
1598.3081166776271,1598.3081166776271,0.9970876453549659,0.015331651471677884
1598.315061241728,1598.315061241728,0.998188032110777,0.015326953717977279
1598.322005805922,1598.322005805922,1.008567711273906,0.015290357454137824
1598.3289503700694,1598.3289503700694,0.995321996101536,0.015265881513626792
1598.335894934263,1598.335894934263,1.0186121086781554,0.015275958089630792
1598.3428394984576,1598.3428394984576,1.0017731938381478,0.015204186833989147
1598.3497840626976,1598.3497840626976,0.9985854758803366,0.015185400805579683
1598.3567286269388,1598.3567286269388,0.9987947334864098,0.015145775812445559
1598.3636731911788,1598.3636731911788,0.9924839427563489,0.015096944275379595
1598.3706177554197,1598.3706177554197,1.0083532075195307,0.015082225125901535
1598.3775623197532,1598.3775623197532,0.9897992750833466,0.01505485424288594
1598.3845068840403,1598.3845068840403,1.0006793905200877,0.01501492707084059
1598.3914514483745,1598.3914514483745,1.0147403527351284,0.01498310853694598
1598.3983960126611,1598.3983960126611,0.9968210711266442,0.014947083633103143
1598.4053405769955,1598.4053405769955,1.0040891371480434,0.01490026513474712
1598.412285141329,1598.412285141329,0.9798586858799663,0.014885465622841773
1598.4192297057089,1598.4192297057089,1.0015224254216955,0.014849655775605944
1598.4261742700896,1598.4261742700896,0.9850809866482697,0.014809536527902137
1598.433118834469,1598.433118834469,0.9963951041598138,0.014799733640807711
1598.4400633988967,1598.4400633988967,1.0113630834474818,0.014808972489854832
1598.4470079632763,1598.4470079632763,1.002210078864651,0.014793876766026875
1598.4539525277037,1598.4539525277037,1.0020437715048673,0.014782031007765198
1598.4608970921304,1598.4608970921304,1.008365603958581,0.014783773019092006
1598.4678416565573,1598.4678416565573,0.9938990323178161,0.014741558023501636
1598.4747862210309,1598.4747862210309,1.0049464557542886,0.01476909688365575
1598.481730785504,1598.481730785504,1.0049980596331811,0.014712163984787427
1598.4886753499777,1598.4886753499777,0.9804987160949651,0.014687288461875923
1598.4956199144508,1598.4956199144508,0.9959366094187088,0.014682129744381578
1598.5025644789246,1598.5025644789246,0.9773119892023703,0.014698257334149003
1598.5095090434443,1598.5095090434443,1.029459548382193,0.014704769135160445
1598.5164536079642,1598.5164536079642,0.998802175391576,0.014686854079119304
1598.5233981724377,1598.5233981724377,1.0018883992956429,0.014670832301683557
1598.5303427370504,1598.5303427370504,1.0152028449655015,0.014649538506369995
1598.5372873015244,1598.5372873015244,0.999483778893741,0.014628500257852705
1598.5442318660907,1598.5442318660907,1.0080246168455298,0.014631561942295413
1598.5511764306107,1598.5511764306107,0.9753211592256139,0.014580418653341332
1598.5581209952238,1598.5581209952238,0.9918140154163678,0.014591559149426142
1598.5650655597437,1598.5650655597437,1.0041446688448081,0.01455882236613321
1598.5720101243105,1598.5720101243105,0.9943472022695701,0.014544873711441522
1598.5789546889232,1598.5789546889232,0.9939631025629554,0.014546553655800553
1598.58589925349,1598.58589925349,1.02100771702174,0.014533163320316247
1598.592843818103,1598.592843818103,1.007793014148759,0.014525776685274692
1598.5997883827163,1598.5997883827163,0.9947477337815867,0.014469090122256178
1598.6067329473292,1598.6067329473292,0.9987272883244239,0.014467371332642923
1598.6136775118957,1598.6136775118957,1.0018607432861704,0.014436378315713223
1598.6206220765093,1598.6206220765093,0.9963666654959538,0.014433666956887936
1598.6275666411216,1598.6275666411216,1.0065483795825767,0.014450961083824007
1598.6345112057354,1598.6345112057354,1.0071863056353854,0.014411653170852443
1598.6414557703945,1598.6414557703945,0.9750358330046612,0.01437172671130722
1598.648400335008,1598.648400335008,1.0088409605791866,0.014406378221518468
1598.655344899621,1598.655344899621,1.004770216592045,0.014362549840223856
1598.66228946428,1598.66228946428,0.9833323704959053,0.014311011473189717
1598.6692340289403,1598.6692340289403,0.9970438260117465,0.014293070999546884
1598.6761785935535,1598.6761785935535,1.00849343620963,0.014289801171636344
1598.6831231582134,1598.6831231582134,0.9934338374323316,0.014255363615495101
1598.6900677228728,1598.6900677228728,1.026030648269527,0.01423284313284821
1598.6970122875323,1598.6970122875323,1.0016678887951365,0.01419832181412196
1598.7039568521923,1598.7039568521923,0.9945391739995803,0.014186590663351631
1598.7109014168518,1598.7109014168518,0.9886784284890778,0.014176299066342195
1598.7178459815118,1598.7178459815118,1.0089571443738088,0.014188997957971955
1598.724790546171,1598.724790546171,0.9969359181206325,0.014180464422940525
1598.7317351108309,1598.7317351108309,0.9895095073582905,0.014168451367125018
1598.7386796754904,1598.7386796754904,1.0130753020110634,0.014194023906905084
1598.74562424015,1598.74562424015,1.000532607977016,0.014203133968892884
1598.7525688048097,1598.7525688048097,0.9930750509211992,0.014252434925946944
1598.7595133694692,1598.7595133694692,1.0003143359386333,0.014224068980763612
1598.7664579341758,1598.7664579341758,1.00106017159734,0.014200309209311365
1598.7734024988354,1598.7734024988354,1.000007470691965,0.014217326975633226
1598.780347063495,1598.780347063495,0.9984625219910086,0.014254902561124003
1598.7872916281547,1598.7872916281547,1.010369832867458,0.01424098071649269
1598.794236192814,1598.794236192814,1.0045039625393277,0.01422169760533554
1598.8011807574742,1598.8011807574742,0.9851359641566197,0.014217146967435784
1598.80812532218,1598.80812532218,1.006051881925558,0.01418808804507433
1598.8150698868394,1598.8150698868394,0.9751159539836829,0.014169319220677429
1598.8220144514999,1598.8220144514999,1.0060057186751767,0.014111968466025443
1598.8289590161592,1598.8289590161592,1.0014750575163291,0.014098900613339788
1598.8359035808191,1598.8359035808191,1.0001829789593586,0.014087720110685481
1598.8428481454787,1598.8428481454787,1.011769919952655,0.01412157716042851
1598.8497927101382,1598.8497927101382,1.0067618844003132,0.01408301832319023
1598.856737274798,1598.856737274798,1.0027130519686112,0.014096970198821737
1598.863681839411,1598.863681839411,0.9982594672057725,0.01404292439848504
1598.8706264040707,1598.8706264040707,1.0043269200235665,0.01402986581155452
1598.8775709687302,1598.8775709687302,1.0179194927615334,0.014048423148463673
1598.88451553339,1598.88451553339,0.987840051763237,0.01400782501159313
1598.8914600980027,1598.8914600980027,0.9881790463227424,0.013990218213208578
1598.8984046626624,1598.8984046626624,0.9921923436158734,0.01399998681069944
1598.9053492272756,1598.9053492272756,1.005153725444196,0.014028182306138618
1598.9122937919353,1598.9122937919353,1.0112377664124708,0.014022179406642608
1598.9192383565487,1598.9192383565487,1.0028255416214096,0.014002510663561526
1598.9261829212078,1598.9261829212078,1.0008606561763096,0.013963321427169505
1598.9331274857745,1598.9331274857745,0.991697092745658,0.013940581538581315
1598.9400720503877,1598.9400720503877,1.0081287248341237,0.01394191457336898
1598.9470166150008,1598.9470166150008,1.0034610060362117,0.013941759429147424
1598.9539611796142,1598.9539611796142,0.9993449566225425,0.013917924759471147
1598.96090574418,1598.96090574418,0.9839254251413012,0.013909540157917797
1598.967850308794,1598.967850308794,0.9920193536464936,0.013934410420969087
