time,time,flux,flux_err
1325.2988553710882,1325.2988553710882,1.0001514451096487,0.00020564920127920388
1325.3071885436868,1325.3071885436868,0.9998801420455635,0.00020562450755075515
1325.3148272855221,1325.3148272855221,0.9999120443162213,0.00018773747913954848
1325.3217715965284,1325.3217715965284,1.000129328581536,0.0001877520654348957
1325.3287159077672,1325.3287159077672,0.999929794788543,0.00018774573260314328
1325.3356602192334,1325.3356602192334,0.9999004767398126,0.00018776869376065154
1325.3426045309263,1325.3426045309263,1.0000077355345711,0.00018779446353404714
1325.3495488428523,1325.3495488428523,1.0000440756748579,0.0001878118597707589
1325.3564931549936,1325.3564931549936,0.9997614221178643,0.00018782294139683224
1325.3634374673616,1325.3634374673616,1.0000569828182082,0.00018788079555272152
1325.3703817799455,1325.3703817799455,1.0001660509712431,0.00018790491460021216
1325.3773260927442,1325.3773260927442,0.9998249410169162,0.00018791666267908958
1325.3842704057706,1325.3842704057706,1.0003886513927875,0.0001879730043746208
1325.3912147190063,1325.3912147190063,0.9999207499526872,0.00018797297274762153
1325.3981590324508,1325.3981590324508,0.9998922863541002,0.00018800015966153808
1325.4051033461178,1325.4051033461178,1.0001752098129368,0.0001880559995094331
1325.4120476599871,1325.4120476599871,0.9997772912073286,0.0001880568877276494
1325.4189919740613,1325.4189919740613,0.9998172875391578,0.00018808585651397422
1325.4259362883502,1325.4259362883502,1.0003466146680449,0.00018816593242056056
1325.432880602843,1325.432880602843,0.9997221286334005,0.0001881411874382944
1325.4398249175342,1325.4398249175342,1.0000169274979274,0.00018818107863211196
1325.4467692324226,1325.4467692324226,1.0001783938051019,0.00018823638305615263
1325.4537135475089,1325.4537135475089,0.9999926548836724,0.00018824408992940982
1325.4606578627934,1325.4606578627934,0.9999974831955178,0.00018827551959910559
1325.4676021782814,1325.4676021782814,0.9998595273287206,0.00018830510838801224
1325.4745464939563,1325.4745464939563,1.0000212572983571,0.00018833152265338164
1325.4814908098228,1325.4814908098228,1.000003659902449,0.00018837892034864176
1325.4884351258875,1325.4884351258875,1.0001514667953961,0.00018839683434797403
1325.4953794421378,1325.4953794421378,0.999871005177349,0.0001884252258562592
1325.5023237585747,1325.5023237585747,0.9998754108987745,0.00018844517245271018
1325.5092680751927,1325.5092680751927,0.9999592138996419,0.000188484349602636
1325.5162123919902,1325.5162123919902,0.9999473386700813,0.00018851782156510796
1325.5231567089743,1325.5231567089743,1.0002284384969,0.00018856783725823139
1325.5301010261387,1325.5301010261387,0.9998743075673773,0.00018856323675780752
1325.537045343484,1325.537045343484,1.0003247303882195,0.0001886380631478421
1325.5439896610037,1325.5439896610037,1.0000526335959017,0.00018864654958670036
1325.5509339786977,1325.5509339786977,0.9999145222854073,0.00018866938035782367
1325.5578782965727,1325.5578782965727,0.9997527242898592,0.0001886803598401885
1325.5648226146104,1325.5648226146104,1.0001855887017344,0.00018875736793344137
1325.5717669328224,1325.5717669328224,0.999654939177441,0.00018874030227065166
1325.578711251204,1325.578711251204,1.000245214174127,0.0001888187454753507
1325.5856555697535,1325.5856555697535,0.9999061398549347,0.00018881094634625844
1325.592599888472,1325.592599888472,1.0001590625256107,0.00018884931890616145
1325.5995442073481,1325.5995442073481,0.9999914511727226,0.00018884543876960546
1325.6064885263868,1325.6064885263868,0.9999473056206648,0.00018886001909518735
1325.6134328455887,1325.6134328455887,0.9996299319482504,0.00018884878199730104
1325.6203771649477,1325.6203771649477,0.9999928593050449,0.00018888554728411935
1325.6273214844641,1325.6273214844641,1.000351874375005,0.00018891618924075877
1325.6342658041372,1325.6342658041372,1.0001967556471374,0.00018890471347851216
1325.641210123974,1325.641210123974,1.0000051359118745,0.00018890999064357438
1325.6481544439553,1325.6481544439553,0.9999355119257831,0.00018889007974926065
1325.6550987640887,1325.6550987640887,0.9999298275306124,0.00018891121125082092
1325.6620430843845,1325.6620430843845,0.9999067139468224,0.00018890590318727964
1325.6689874048209,1325.6689874048209,1.000199758726248,0.0001889166180333372
1325.675931725402,1325.675931725402,0.9999634753460404,0.00018891007603600167
1325.6828760461349,1325.6828760461349,0.9996515208314781,0.0001888836449532953
1325.689820367007,1325.689820367007,1.0002933395229665,0.00018896258742180015
1325.696764688025,1325.696764688025,1.0000712213220824,0.0001889678966332834
1325.7037090091885,1325.7037090091885,0.9999547944728562,0.00018893976946055766
1325.7106533304857,1325.7106533304857,0.9998750203798104,0.00018897194557381897
1325.717597651923,1325.717597651923,0.9999648296436824,0.0001889852324498199
1325.7245419735052,1325.7245419735052,1.0001993599383971,0.00018901926357208534
1325.7314862952219,1325.7314862952219,0.9996953558320552,0.00018899393146395738
1325.738430617078,1325.738430617078,1.0001232392187411,0.0001890633885798192
1325.745374939056,1325.745374939056,1.0000230821792937,0.00018905248423649505
1325.75231926118,1325.75231926118,0.9999489608248456,0.00018906886541739736
1325.7592635834321,1325.7592635834321,1.0000019663950925,0.0001890903245015745
1325.766207905806,1325.766207905806,0.9999761360256002,0.00018910549968352658
1325.77315222832,1325.77315222832,1.0001317644520458,0.00018914578693156038
1325.7800965509557,1325.7800965509557,1.0000032429764256,0.00018915458487491735
1325.7870408737147,1325.7870408737147,1.0001295111997082,0.00018918697049642114
1325.7939851966066,1325.7939851966066,1.000028100992883,0.00018918534957616736
1325.8009295196268,1325.8009295196268,0.9999806289582402,0.00018917377969618652
1325.8078738427523,1325.8078738427523,1.000023827178444,0.00018919102591686028
1325.8148181660165,1325.8148181660165,1.0002213751569577,0.0001892363086180296
1325.821762489392,1325.821762489392,0.9997921998210254,0.00018920310106507822
1325.8287068128955,1325.8287068128955,1.000146182032438,0.00018924786719494747
1325.8356511365096,1325.8356511365096,0.9997689545105894,0.0001892217992814126
1325.8425954602458,1325.8425954602458,1.0000783328158427,0.00018926152043466282
1325.8495397840923,1325.8495397840923,1.0001722420441808,0.00018925208946519908
1325.8564841080615,1325.8564841080615,1.0003281424033168,0.00018927120137044899
1325.8634284321354,1325.8634284321354,0.9998965395511548,0.00018921379056451005
1325.8703727563257,1325.8703727563257,0.9999312019439353,0.00018921143296163947
1325.8773170806323,1325.8773170806323,0.9996611528084834,0.0001891674527140012
1325.8842614050495,1325.8842614050495,0.9996469337605574,0.0001891530829898614
1325.891205729572,1325.891205729572,1.0000265234371142,0.00018918145466351386
1325.89815005421,1325.89815005421,1.0003456443985885,0.0001891793367998997
1325.9050943789532,1325.9050943789532,1.0000123614275775,0.00018914756711675067
1325.9120387037954,1325.9120387037954,0.9999226626409886,0.00018912364240034583
1325.918983028742,1325.918983028742,1.000196640001798,0.00018912759148742456
1325.925927353806,1325.925927353806,0.9998993480508143,0.00018911867475157016
1325.9328716789619,1325.9328716789619,1.000270105711126,0.000189125109728791
1325.9398160042233,1325.9398160042233,0.9998568907514424,0.0001890925071020888
1325.9467603295836,1325.9467603295836,0.9998766651169338,0.00018907942235287767
1325.9537046550427,1325.9537046550427,1.0001677362228345,0.00018909814477295226
1325.9612045266656,1325.9612045266656,1.0000879466823327,0.0001891003163702999
1325.9689821714128,1325.9689821714128,0.9996101622693935,0.00018905503933800246
1325.9759264971979,1325.9759264971979,1.0001661241649127,0.0001890993439964067
1325.9828708230643,1325.9828708230643,0.9997725122692298,0.00018908189778920318
1325.9898151490418,1325.9898151490418,1.0000177120711982,0.00018910044261409868
1325.9967594751063,1325.9967594751063,1.0000090694000918,0.00018910993257933924
1326.0037038012638,1326.0037038012638,1.0004052948541173,0.00018915366755789526
1326.0106481275263,1326.0106481275263,1.000089015266959,0.00018913976157813536
1326.0175924538703,1326.0175924538703,1.0002632904934163,0.00018917759978432584
1326.0245367802959,1326.0245367802959,0.9997816003253703,0.0001891674256841142
1326.031481106826,1326.031481106826,1.00026906495003,0.00018920723564995107
1326.0384254334374,1326.0384254334374,0.999597939368942,0.0001891504598100142
1326.0453697601542,1326.0453697601542,0.9999564589904315,0.00018918233074663213
1326.052314086934,1326.052314086934,1.0001358455660405,0.00018920296364425006
1326.0592584138199,1326.0592584138199,1.0000501899591385,0.00018918233340140697
1326.0662027407866,1326.0662027407866,0.9998015648940323,0.00018918911921501019
1326.0731470678343,1326.0731470678343,1.000115595414962,0.00018921721617288473
1326.0800913949765,1326.0800913949765,1.000037580444797,0.00018921263630444695
1326.0870357221988,1326.0870357221988,1.0001485311677636,0.00018921842354862272
1326.0939800494978,1326.0939800494978,0.9997397528749392,0.00018920130817364535
1326.1009243768776,1326.1009243768776,1.0001125654111176,0.00018922120595210712
1326.1078687043507,1326.1078687043507,0.9998895663471729,0.00018921106265477723
1326.114813031888,1326.114813031888,1.0000760868326943,0.0001892250045379081
1326.1217573595181,1326.1217573595181,1.000070317037966,0.00018922856384547058
1326.12870168723,1326.12870168723,0.9998722095520229,0.00018920044411905584
1326.1356460150116,1326.1356460150116,1.000129855098005,0.0001892435895524311
1326.1425903428749,1326.1425903428749,0.9998228216609842,0.00018921777469573024
1326.1495346708082,1326.1495346708082,1.0002222712993967,0.00018926010212258585
1326.156478998828,1326.156478998828,1.000004828614852,0.00018923391595858342
1326.1634233269247,1326.1634233269247,1.0002160261856987,0.00018925647948768928
1326.1703676550899,1326.1703676550899,0.9999036972864456,0.0001892400370415682
1326.1773119833315,1326.1773119833315,0.9995440233630651,0.00018919764544820663
1326.184256311643,1326.184256311643,1.0001966711855839,0.00018925027783223592
1326.1912006400294,1326.1912006400294,0.9997663983252971,0.0001892242718705361
1326.1981449684986,1326.1981449684986,0.999968159672672,0.00018924807323324433
1326.205089297019,1326.205089297019,1.0002388306330119,0.00018925341238221124
1326.2120336256335,1326.2120336256335,1.000322981180996,0.00018925941030269395
1326.2189779542998,1326.2189779542998,0.9997610612821415,0.00018922938400962254
1326.2259222830417,1326.2259222830417,1.0000625281985893,0.00018924569562430197
1326.2328666118538,1326.2328666118538,1.0000892030383648,0.00018924916249708814
1326.239810940741,1326.239810940741,0.9998192880950192,0.00018923033062824093
1326.2467552696812,1326.2467552696812,1.0000603000225605,0.000189248124220302
1326.253699598697,1326.253699598697,0.9999844533276561,0.00018925519458810257
1326.2606439277827,1326.2606439277827,0.9999587748394438,0.00018924892169898568
1326.267588256926,1326.267588256926,1.000011015369368,0.00018925982844169377
1326.2745325861395,1326.2745325861395,1.0001694654822064,0.00018926100168783455
1326.2814769154234,1326.2814769154234,0.999817908303093,0.0001892426511677069
1326.2884212447589,1326.2884212447589,0.9998966928855306,0.00018924626052432372
1326.2953655741587,1326.2953655741587,1.0000651468368624,0.00018928282617766695
1326.3023099036398,1326.3023099036398,1.0000814446777988,0.00018926737737982814
1326.3092542331624,1326.3092542331624,0.9999997729482446,0.0001892674433843762
1326.31619856276,1326.31619856276,1.0000325352286037,0.00018926469404845838
1326.3231428924157,1326.3231428924157,1.0000114215486442,0.00018927479455850587
1326.3300872221248,1326.3300872221248,0.9998191722471663,0.0001892648645220005
1326.3370315519023,1326.3370315519023,0.9999688830112102,0.00018927842139258855
1326.3439758817387,1326.3439758817387,1.0001262433899347,0.00018929709097159294
1326.3536979436078,1326.3536979436078,1.0000606826805565,0.00018932576401944686
1326.3606422735834,1326.3606422735834,1.0001934568335722,0.00018933092632248202
1326.367586603618,1326.367586603618,0.9998784724387368,0.00018930779503573838
1326.374530933716,1326.374530933716,0.9999059205554095,0.00018930080454610633
1326.3814752638614,1326.3814752638614,0.9998619000828434,0.0001893221481656022
1326.38841959407,1326.38841959407,0.9997473860130356,0.00018930944936486365
1326.3953639243311,1326.3953639243311,1.000000083923624,0.00018933116540683186
1326.4023082546512,1326.4023082546512,1.000235116203737,0.00018936953569705697
1326.409252585023,1326.409252585023,1.000204503026791,0.0001893681998561481
1326.4161969154472,1326.4161969154472,1.0000139440254787,0.0001893632572948742
1326.4231412459296,1326.4231412459296,1.0001029686448697,0.00018937844526677072
1326.4300855764645,1326.4300855764645,0.9999559600418285,0.00018937092156763477
1326.4370299070574,1326.4370299070574,1.0000579715995148,0.00018939145328350444
1326.4439742376917,1326.4439742376917,1.0000435848173324,0.00018940322165242034
1326.4509185683894,1326.4509185683894,0.9997441486390292,0.00018937317473669506
1326.4578628991335,1326.4578628991335,0.9998349325492575,0.00018939023252070026
1326.4648072299246,1326.4648072299246,1.0000995166309834,0.00018941641421316117
1326.471751560774,1326.471751560774,0.9999080964923776,0.00018941451886470782
1326.4786958916698,1326.4786958916698,1.0000725707975682,0.00018942881342933268
1326.485640222618,1326.485640222618,1.000005922313321,0.00018944497061454605
1326.4925845536125,1326.4925845536125,1.000067040232392,0.00018945730264402098
1326.4995288846599,1326.4995288846599,0.9999819575801959,0.00018946239142298487
1326.5064732157473,1326.5064732157473,1.000086524229832,0.0001894615072444877
1326.513417546888,1326.513417546888,1.0001461605898272,0.00018948489653239868
1326.5203618780804,1326.5203618780804,0.9998563757759433,0.00018947615783838738
1326.52730620932,1326.52730620932,0.999630022803969,0.00018946732267845402
1326.5342505406054,1326.5342505406054,1.0002066397965468,0.00018953448386750698
1326.5411948719318,1326.5411948719318,1.000330544478054,0.00018956431972580334
1326.5481392033166,1326.5481392033166,0.9999170734662638,0.00018954065815276705
1326.5550835347362,1326.5550835347362,0.9998273104286038,0.0001895495677658448
1326.5620278662084,1326.5620278662084,0.9998949511940974,0.0001895499433205645
1326.5689721977153,1326.5689721977153,1.0001399011454501,0.00018959369943624753
1326.5759165292807,1326.5759165292807,0.9999527294184556,0.00018957850697219044
1326.5828608608745,1326.5828608608745,0.999888713800184,0.00018958317856283713
1326.5898051925271,1326.5898051925271,1.0001479229350732,0.00018961425679024643
1326.5967495242205,1326.5967495242205,1.0000198834771836,0.00018961047957553192
1326.6036938559487,1326.6036938559487,1.0000392863958512,0.00018961859703444728
1326.6106381877235,1326.6106381877235,1.0000149944691767,0.0001896275138586441
1326.6175825195387,1326.6175825195387,0.9999025387469167,0.00018962299994809356
1326.6245268514065,1326.6245268514065,0.9999524031423498,0.00018963832679322383
1326.6314711833152,1326.6314711833152,0.9999676259603119,0.00018963519804921866
1326.6384155152468,1326.6384155152468,0.9999196680422102,0.00018963103488794963
1326.6453598472372,1326.6453598472372,1.0002091240186701,0.00018967373856598535
1326.6523041792623,1326.6523041792623,1.0002079172477534,0.000189663782837272
1326.6592485113283,1326.6592485113283,1.0000031834046765,0.00018964457410632372
1326.6661928434341,1326.6661928434341,1.0001526490740928,0.00018966436054464493
1326.673137175576,1326.673137175576,0.9998196526198176,0.00018961848908041057
1326.6800815077638,1326.6800815077638,0.9997748939048275,0.0001896064789466113
1326.6878591598575,1326.6878591598575,0.9997438248263494,0.00018960791239276963
1326.6953590387088,1326.6953590387088,1.000034704088422,0.00018961253454467152
1326.7023033710188,1326.7023033710188,1.0002174096704268,0.00018961380512681772
1326.7095254766525,1326.7095254766525,0.9999055784720154,0.00018955925917336165
1326.717580902226,1326.717580902226,0.9998910703771611,0.0001895788851859833
1326.724525234653,1326.724525234653,1.000220580342177,0.00018956896042317722
1326.7314695671319,1326.7314695671319,1.000010452984658,0.00018954823984207472
1326.7384138996283,1326.7384138996283,1.0000151991386141,0.00018954934412890632
1326.745358232166,1326.745358232166,0.9999632973641986,0.00018950437572381508
1326.7523025647372,1326.7523025647372,1.0002110315587966,0.0001895259310389096
1326.7592468973507,1326.7592468973507,1.0000218632062752,0.00018950146456280908
1326.7661912299923,1326.7661912299923,0.9997602452896134,0.00018946363045125008
1326.7731355626754,1326.7731355626754,1.0000071392810699,0.0001894818227774503
1326.780079895393,1326.780079895393,0.9998008638125802,0.00018948381873848004
1326.7870242281515,1326.7870242281515,1.0000850815912867,0.0001895073948844347
1326.793968560939,1326.793968560939,1.000062732987878,0.0001895067187084475
1326.8009128937497,1326.8009128937497,0.9999242864531134,0.00018950666614966924
1326.8078572266015,1326.8078572266015,1.0004492150893418,0.00018955047522837198
1326.8148015594875,1326.8148015594875,0.9998743596644635,0.00018950450826395404
1326.8217458924094,1326.8217458924094,0.9997643027366309,0.00018948132906988107
1326.8286902253597,1326.8286902253597,0.9999458049902922,0.0001894934226588354
1326.8356345583452,1326.8356345583452,1.0000757539639997,0.0001895092029180938
1326.8425788913657,1326.8425788913657,0.9999138179866313,0.00018949138555327411
1326.8495232244093,1326.8495232244093,1.0001503932950448,0.00018951074688885146
1326.8564675574935,1326.8564675574935,0.999912578501789,0.00018948912204504244
1326.8634118906073,1326.8634118906073,1.0001018025581054,0.00018949685806853508
1326.8703562237556,1326.8703562237556,1.0000984522598153,0.00018948077840010607
1326.877300556933,1326.877300556933,0.9999725978353753,0.00018945654826969837
1326.8842448901455,1326.8842448901455,0.9999166249947772,0.0001894601703021491
1326.8911892233752,1326.8911892233752,1.0002711736750736,0.00018946545995033773
1326.8981335566461,1326.8981335566461,1.000118438181365,0.00018942652724594295
1326.9050778899398,1326.9050778899398,1.0000731910807599,0.00018940956564916016
1326.9120222232687,1326.9120222232687,0.9997800561746157,0.0001893236546512876
1326.918966556615,1326.918966556615,0.9998857603960177,0.0001893398607374817
1326.9259108900137,1326.9259108900137,0.9999771717200503,0.00018930890110548045
1326.9328552234244,1326.9328552234244,1.0001941371424823,0.0001893114829092189
1326.9397995568695,1326.9397995568695,0.999846073051842,0.00018926537065029413
1326.946743890344,1326.946743890344,1.000112284567588,0.00018927798573280691
1326.9536882238415,1326.9536882238415,1.0001643388017243,0.00018926718593245212
1326.960632557374,1326.960632557374,1.0003175540821037,0.00018926180373891036
1326.9675768909358,1326.9675768909358,1.0000640532703766,0.00018922006201395645
1326.9745212245205,1326.9745212245205,1.0000513591054832,0.00018920007443501606
1326.9814655581351,1326.9814655581351,0.9995214550869786,0.00018913533661148288
1326.9884098917662,1326.9884098917662,1.000086995415844,0.00018917190578610998
1326.9953542254389,1326.9953542254389,0.9998959736561087,0.0001891462894088107
1327.0022985591343,1327.0022985591343,0.9999934775040789,0.00018915822006232357
1327.0092428928588,1327.0092428928588,1.0000763306949536,0.0001891617499218014
1327.016187226601,1327.016187226601,1.000108360145689,0.0001891612661598834
1327.0231315603783,1327.0231315603783,1.0002894343735949,0.0001891711823512273
1327.030075894167,1327.030075894167,1.000019843259519,0.00018915102422113213
1327.0370202280021,1327.0370202280021,0.9999276182286788,0.00018913534992880842
1327.0439645618492,1327.0439645618492,1.000021795553545,0.00018914073208610785
1327.0509088957308,1327.0509088957308,0.9999560814465884,0.0001891453543158512
