time,time,flux,flux_err
1468.279076113,1468.279076113,0.9999312500407216,0.00023919057361966936
1468.2867150341294,1468.2867150341294,0.9996524323064184,0.00021833161503960938
1468.2936595078409,1468.2936595078409,1.0001724728102948,0.00021837584341966254
1468.3006039814595,1468.3006039814595,1.0000960989751508,0.00021834100134918228
1468.3075484549386,1468.3075484549386,1.0001006518473459,0.00021833979684596447
1468.3144929284176,1468.3144929284176,0.999996579386597,0.00021835154301736126
1468.3214374017098,1468.3214374017098,1.0001051212899454,0.00021837474447171647
1468.3283818750024,1468.3283818750024,1.0001196142024822,0.00021835757207925498
1468.3353263481556,1468.3353263481556,1.0001788492150705,0.00021835837894521674
1468.342270821262,1468.342270821262,1.000012490602252,0.00021832403322558677
1468.3492152942752,1468.3492152942752,1.0000130150168505,0.00021834606558002873
1468.3561597671019,1468.3561597671019,0.9998074087387495,0.00021834833474434495
1468.3631042399293,1468.3631042399293,0.9996317417668099,0.00021828817839715867
1468.3700487126632,1468.3700487126632,1.0000289143139915,0.00021834291034043748
1468.3769931853035,1468.3769931853035,1.0000859324830507,0.00021834541850908887
1468.3936599192778,1468.3936599192778,1.0001886434158584,0.00021831729599232577
1468.4006043916393,1468.4006043916393,1.00005955898516,0.00021832117715994193
1468.4075488638614,1468.4075488638614,1.000016280391224,0.0002182967909480292
1468.4144933360826,1468.4144933360826,1.0001994263100307,0.00021837451782254468
1468.4214378081642,1468.4214378081642,0.9997046775528995,0.0002183537907839657
1468.428382280107,1468.428382280107,0.9997528955317202,0.00021830554724475772
1468.435326751956,1468.435326751956,0.9997092765279924,0.00021837860943207105
1468.442271223805,1468.442271223805,0.9997317540345957,0.00021837943773427674
1468.4492156956076,1468.4492156956076,1.0003124865510216,0.00021836807648491506
1468.4561601672237,1468.4561601672237,1.0000942218255253,0.00021837594234859974
1468.4631046387935,1468.4631046387935,1.0001793348645844,0.0002183980860685792
1468.4700491102703,1468.4700491102703,0.9998552244155826,0.00021834173292237298
1468.4769935816535,1468.4769935816535,0.999947025733045,0.0002183852548824231
1468.4839380529897,1468.4839380529897,0.9998427365061321,0.00021836912486599292
1468.4908825241873,1468.4908825241873,1.0002852992473543,0.00021844802538002888
1468.4978269953385,1468.4978269953385,1.0000074972466089,0.00021840660234092988
1468.5047714663492,1468.5047714663492,1.0000237200365936,0.00021836448281293964
1468.5117159373133,1468.5117159373133,0.9999548178830533,0.00021837081310681323
1468.5186604081377,1468.5186604081377,1.0001604402590156,0.00021839519942725452
1468.5256048790088,1468.5256048790088,0.9997567719248442,0.0002182912272605701
1468.5325493496941,1468.5325493496941,1.0000989034281467,0.0002183716244989847
1468.5394938201928,1468.5394938201928,0.9999012985553222,0.0002183429321194681
1468.5464382907378,1468.5464382907378,1.0000357615457474,0.00021837381753748512
1468.55338276119,1468.55338276119,0.9998566665052,0.00021833350946710584
1468.5603272315025,1468.5603272315025,1.0001708192328103,0.0002183928233086152
1468.5672717017685,1468.5672717017685,0.9998561402752163,0.0002184209346846019
1468.5742161719877,1468.5742161719877,0.999972762760742,0.00021836451813701078
1468.581160642067,1468.581160642067,1.0003078771923317,0.00021841927241416566
1468.5881051120537,1468.5881051120537,1.0000048520513682,0.00021838843313606144
1468.5950495819936,1468.5950495819936,0.9995819348817079,0.00021834908394318813
1468.601994051794,1468.601994051794,1.0002883374861948,0.00021843082539848893
1468.6089385215475,1468.6089385215475,1.0004481458245709,0.00021840820521353672
1468.6158829911608,1468.6158829911608,0.9998157212850727,0.00021839639916881683
1468.622827460682,1468.622827460682,0.9995663885847714,0.0002183652004220623
1468.629771930203,1468.629771930203,0.9999162208370445,0.000218395288746766
1468.6367163996306,1468.6367163996306,0.9999470944534143,0.00021839279246864927
1468.643660868918,1468.643660868918,0.9999953151714107,0.00021834409349612223
1468.65060533816,1468.65060533816,0.9997855462220295,0.00021833839999790117
1468.6575498072616,1468.6575498072616,1.0002239760622682,0.00021842738231986624
1468.6644942763628,1468.6644942763628,1.0003972707219373,0.00021843365386099074
1468.6714387452787,1468.6714387452787,1.0001480792776243,0.0002183980845254493
1468.6783832141473,1468.6783832141473,0.9998994871637498,0.00021838376311807974
1468.6853276829695,1468.6853276829695,1.0001932109582388,0.00021835190613516715
1468.6922721516523,1468.6922721516523,0.9997088852143958,0.00021838268848902684
1468.6992166202886,1468.6992166202886,1.0002138017390836,0.00021839942980543601
1468.7061610888309,1468.7061610888309,0.9996993241833725,0.0002183468601519922
1468.7131055572343,1468.7131055572343,0.9999210068733154,0.00021841167641774143
1468.7200500255908,1468.7200500255908,0.9998393684313791,0.00021836308425242693
1468.7269944939012,1468.7269944939012,0.9999810787933129,0.00021839533553574234
1468.7339389620715,1468.7339389620715,1.0000418457372562,0.00021837881956304804
1468.7408834301486,1468.7408834301486,1.0002297177938626,0.00021842381245827815
1468.7478278981791,1468.7478278981791,1.0001153180001783,0.00021839046443249631
1468.7547723661169,1468.7547723661169,1.0000973981495505,0.00021841232776744412
1468.7617168339148,1468.7617168339148,0.99996507028372,0.00021841490340976296
1468.7686613017127,1468.7686613017127,0.9998367554049924,0.00021838566152512502
1468.7756057694173,1468.7756057694173,1.0000846310822644,0.0002184190868371793
1468.782550236982,1468.782550236982,0.9996935386659714,0.0002183440475069669
1468.789494704454,1468.789494704454,1.0001502968437,0.00021840194907615887
1468.7964391719258,1468.7964391719258,1.0000929056662877,0.0002184268401484219
1468.8033836391648,1468.8033836391648,0.9999258015962178,0.0002183849030286648
1468.8103281065437,1468.8103281065437,0.9996752108850447,0.00021845472694395217
1468.8172725735963,1468.8172725735963,1.0005733268231294,0.00021845919867351967
1468.824217040696,1468.824217040696,0.9999170174934889,0.00021843541507320414
1468.8311615076557,1468.8311615076557,1.0000347108958345,0.00021836743470054617
1468.8381059745684,1468.8381059745684,1.0002555112083953,0.0002183993360694404
1468.8450504413886,1468.8450504413886,0.9997143454176898,0.00021837049651938042
1468.851994908115,1468.851994908115,1.0000449020816649,0.00021834736292501185
1468.858939374749,1468.858939374749,0.9999466942428971,0.00021844391459530771
1468.8658838412898,1468.8658838412898,1.000173258097282,0.00021840568225300243
1468.8728283077835,1468.8728283077835,0.9997033072703843,0.00021838552844615633
1468.8797727741844,1468.8797727741844,1.0001122533358746,0.0002184167819842085
1468.8867172404455,1468.8867172404455,1.0000093078157322,0.00021843081733818008
1468.8936617066602,1468.8936617066602,1.0002315580351304,0.0002183652096164245
1468.9006061728282,1468.9006061728282,0.9998907362092201,0.00021836334343760424
1468.9075506388565,1468.9075506388565,0.9997891815809116,0.00021838213845291215
1468.9144951048384,1468.9144951048384,1.0000586503087023,0.00021841839707995844
1468.9214395706804,1468.9214395706804,1.0001271718702491,0.00021840600392044837
1468.9283840364292,1468.9283840364292,1.0002117615637542,0.00021848145014531677
1468.9353285021784,1468.9353285021784,0.9998680793184326,0.0002183988058317466
1468.9422729677876,1468.9422729677876,1.00014133004342,0.00021845867566026774
1468.9492174333498,1468.9492174333498,1.0002936384964187,0.0002184481959503183
1468.9561618987732,1468.9561618987732,0.9999209210910749,0.00021840393790636834
1468.964495257169,1468.964495257169,0.9998434529199832,0.0002184024666780393
1468.971439722452,1468.971439722452,0.9999291738389428,0.00021840835285352376
1468.9783841875956,1468.9783841875956,1.0001135976132178,0.00021839521444545193
1468.9853286526927,1468.9853286526927,0.9999159974661058,0.000218361490651039
1468.9922731176503,1468.9922731176503,1.0001473423830332,0.00021842861049243935
1468.9992175825141,1468.9992175825141,1.0000604506823347,0.00021842435429127454
1469.0061620473784,1469.0061620473784,0.999829647603919,0.00021834003507773464
1469.0131065121957,1469.0131065121957,1.0002050031115242,0.0002184335337414918
1469.0200509768272,1469.0200509768272,1.0001283349723125,0.0002183924830795333
1469.026995441412,1469.026995441412,0.9999515618587763,0.0002183701672557715
1469.0339399059037,1469.0339399059037,0.999611703564641,0.00021836471674382198
1469.0408843703021,1469.0408843703021,0.9999986811069025,0.00021836767331146652
1469.0478288346537,1469.0478288346537,1.000145980052053,0.00021837805681094834
1469.0547732988664,1469.0547732988664,1.0007485695978047,0.00021848367126026097
1469.0617177630322,1469.0617177630322,0.9996060305979529,0.00021830132670868017
1469.0686622271046,1469.0686622271046,1.000159130325955,0.00021839067282575434
1469.0756066910842,1469.0756066910842,0.9995720114956352,0.0002183273797929122
1469.0825511549704,1469.0825511549704,1.0000686327683497,0.00021840500032776553
1469.0894956187635,1469.0894956187635,0.9998660098652818,0.00021844391924610742
1469.0964400824637,1469.0964400824637,1.000333273410998,0.0002184447839469791
1469.1033845461636,1469.1033845461636,0.9998486790622001,0.0002183879732871804
1469.1103290096773,1469.1103290096773,1.0000766370217788,0.0002183857182252709
1469.117273473145,1469.117273473145,0.9996016578116244,0.0002183620157340195
1469.1242179365188,1469.1242179365188,1.0002356877449803,0.00021842879522614508
1469.1311623998463,1469.1311623998463,0.9998250856637293,0.0002184296925774367
1469.1381068630803,1469.1381068630803,0.9998183794228291,0.00021837560281859898
1469.145051326222,1469.145051326222,1.0005083454249877,0.00021842952014294075
1469.1519957892233,1469.1519957892233,1.0007209930377627,0.00021849790141897164
1469.1589402521781,1469.1589402521781,0.9995510001484291,0.00021841422177349407
1469.1658847150866,1469.1658847150866,0.9997797694637208,0.00021841169266204088
1469.172829177855,1469.172829177855,1.0001434639587807,0.00021839656042559538
1469.1797736405777,1469.1797736405777,1.000115288009217,0.00021843209252314435
1469.1867181031132,1469.1867181031132,0.9998730474034225,0.00021843723410803201
1469.193662565649,1469.193662565649,1.0000225507933937,0.00021843800659288376
1469.200607028185,1469.200607028185,1.000054733592468,0.00021841861148490948
1469.2075514905346,1469.2075514905346,0.9998114129761863,0.00021842921418864584
1469.214495952838,1469.214495952838,1.000067536391463,0.00021845081087558385
1469.221440415001,1469.221440415001,1.000013614278913,0.0002184545599907926
1469.2283848771178,1469.2283848771178,0.9999710700524439,0.0002183754487598815
1469.235329339188,1469.235329339188,1.0000335157519407,0.00021844037914314237
1469.2422738011187,1469.2422738011187,1.0001977872767094,0.00021849252822526868
1469.2492182629562,1469.2492182629562,1.0000354604302264,0.00021845974755052363
1469.2561627247464,1469.2561627247464,0.9999646723554712,0.00021848481158089859
1469.2631071864441,1469.2631071864441,0.9997606785098941,0.00021840250980319798
1469.2700516480022,1469.2700516480022,1.0000914034424733,0.00021842457938750062
1469.2769961095605,1469.2769961095605,0.9997884061132181,0.00021840729021814324
1469.2839405709324,1469.2839405709324,1.0005529496676657,0.0002184556782982829
1469.2908850323042,1469.2908850323042,0.9997582668029207,0.00021838006118894766
1469.2978294936288,1469.2978294936288,0.9999311364238943,0.00021839069521728898
1469.3047739547674,1469.3047739547674,1.000029694717791,0.00021843504356680457
1469.3117184158605,1469.3117184158605,1.0001768293054252,0.00021843077288125247
1469.3186628769058,1469.3186628769058,0.9995567526238288,0.00021838424071068556
1469.325607337812,1469.325607337812,0.9999877821791076,0.00021839421127095395
1469.3325517986711,1469.3325517986711,1.0002070844494522,0.00021843627291429708
1469.3394962593911,1469.3394962593911,1.0000022158754258,0.00021843297403392243
1469.3464407201113,1469.3464407201113,0.9998662086300134,0.00021845658912143226
1469.353385180691,1469.353385180691,1.0002995740958838,0.00021846646711425857
1469.360329641225,1469.360329641225,1.0000739920699746,0.00021846376966781859
1469.3672741016187,1469.3672741016187,1.000430679026358,0.00021851910811598093
1469.3742185620124,1469.3742185620124,0.999873971992016,0.00021843069806626718
1469.38116302222,1469.38116302222,0.9999052458331853,0.0002184153959666918
1469.3881074824276,1469.3881074824276,0.9992288962267217,0.00021834753325720868
1469.3950519424488,1469.3950519424488,1.0002179614788484,0.00021842206663485255
1469.4019964024703,1469.4019964024703,1.0001795521510035,0.00021844654383104738
1469.4089408623981,1469.4089408623981,0.9998435203068153,0.00021838202733764732
1469.4158853222332,1469.4158853222332,0.9999566721418107,0.0002184405707654229
1469.422829781975,1469.422829781975,1.0004137821269512,0.00021845588846444974
1469.4297742416238,1469.4297742416238,1.0001094844834686,0.00021843152717481657
1469.4367187012263,1469.4367187012263,0.9996021707398333,0.00021843307563439328
1469.4436631606889,1469.4436631606889,1.0003379479042585,0.0002184727539655188
1469.4506076201044,1469.4506076201044,0.9998611642910055,0.00021840426032964394
1469.4575520794274,1469.4575520794274,1.0001368151249699,0.00021842311915723825
1469.4644965386572,1469.4644965386572,1.0000340888972208,0.00021847743534302347
1469.4714409978867,1469.4714409978867,0.9999604999886152,0.0002184584123648223
1469.4783854569766,1469.4783854569766,1.0000779001051887,0.00021840384981260978
1469.485329915927,1469.485329915927,0.9998438180502095,0.00021838117550169073
1469.4922743748307,1469.4922743748307,1.00043208216292,0.0002185126987824279
1469.4992188336414,1469.4992188336414,0.999997678451883,0.00021845467777078693
1469.5061632923591,1469.5061632923591,0.9999516674077791,0.00021848228709370684
1469.51310775103,1469.51310775103,1.0001600395800732,0.00021844660798197695
1469.5200522096072,1469.5200522096072,0.9997091652890602,0.000218424366965745
1469.5269966681385,1469.5269966681385,1.0001953827982444,0.0002184520105867085
1469.5339411264838,1469.5339411264838,0.9999779945016598,0.00021845432962875282
1469.5408855847822,1469.5408855847822,0.9998770512416687,0.00021844638029183114
1469.5478300430339,1469.5478300430339,0.999872960608194,0.00021842313075901167
1469.5547745011922,1469.5547745011922,0.9999509371495146,0.00021847271686080893
1469.561718959211,1469.561718959211,1.0001109114790114,0.0002184919135560934
1469.568663417277,1469.568663417277,0.9999033098948867,0.0002184188298733483
1469.5756078752026,1469.5756078752026,0.9998143172660031,0.00021841988228623756
1469.5825523328956,1469.5825523328956,1.0001379596890927,0.00021847547747900657
1469.589496790682,1469.589496790682,1.0003067798152239,0.0002184741194134691
1469.5964412483281,1469.5964412483281,1.0000952247000767,0.00021845787212682377
1469.6033857058817,1469.6033857058817,0.9999628241076011,0.0002184312172441517
1469.6103301633418,1469.6103301633418,0.9998216064022823,0.00021844564820833805
1469.6172746207553,1469.6172746207553,0.9998279944528139,0.00021846992336849156
1469.6242190780763,1469.6242190780763,1.0000350136237226,0.0002184687063353305
1469.6311635352565,1469.6311635352565,1.0001944567284595,0.00021849764626425175
1469.6381079923908,1469.6381079923908,0.9998505131906368,0.0002184681435145584
1469.6450524494783,1469.6450524494783,1.0000733270493598,0.00021848650083154604
1469.651996906473,1469.651996906473,0.9999066780674447,0.000218495580631954
1469.658941363328,1469.658941363328,1.0002015885549862,0.00021851238833679458
1469.6658858201827,1469.6658858201827,1.0001202284422672,0.00021847957013575474
1469.6728302768975,1469.6728302768975,1.000136984046015,0.0002185099011274663
1469.6797747335193,1469.6797747335193,0.9998674777387482,0.00021843959731478933
1469.6867191900951,1469.6867191900951,0.9999959116391297,0.0002185091773305911
1469.6936636465307,1469.6936636465307,1.0003695528780276,0.0002185043083000752
1469.7006081029201,1469.7006081029201,0.9999950284238631,0.00021852671718256136
1469.7075525592159,1469.7075525592159,0.999760328149281,0.0002185048162043748
1469.7144970154652,1469.7144970154652,0.9997508726776309,0.00021850670378401692
1469.7214414716216,1469.7214414716216,1.0002991581515128,0.00021852081942060167
1469.7283859276383,1469.7283859276383,0.9997429075335932,0.0002184983252306786
1469.7353303836087,1469.7353303836087,0.9998128844024089,0.0002185061329564004
1469.7422748394852,1469.7422748394852,1.0002254346164148,0.0002185192119929608
1469.7492192953152,1469.7492192953152,1.0002011771732948,0.00021851498156855607
1469.75616375096,1469.75616375096,0.9997454319305709,0.0002185073775551348
1469.763108206697,1469.763108206697,1.0003625740682434,0.00021855444937572205
1469.770052662248,1469.770052662248,1.0001029508165438,0.0002185121620129165
1469.7769971176126,1469.7769971176126,0.9999495801926406,0.00021850127921663952
1469.78394157307,1469.78394157307,0.9995782152447171,0.00021847839935521337
1469.7908860283421,1469.7908860283421,0.999971223677518,0.00021850011929992413
1469.797830483567,1469.797830483567,1.0000403703175997,0.00021851229849970924
1469.8047749386988,1469.8047749386988,1.0000903647373864,0.00021853784551095448
1469.8117193937378,1469.8117193937378,1.0001288384238802,0.00021853192721305124
1469.81866384873,1469.81866384873,1.0000901959849673,0.00021852216313565062
1469.825608303582,1469.825608303582,1.0004473663355722,0.00021859458923939785
1469.832552758388,1469.832552758388,1.0000735947203423,0.00021850560078473907
1469.8394972131007,1469.8394972131007,0.9998184652950826,0.00021850033102668924
1469.846441667721,1469.846441667721,0.9999500711161151,0.00021849383299017106
1469.8533861222938,1469.8533861222938,0.9998769555435096,0.0002185019906026378
1469.8603305767733,1469.8603305767733,0.9998866515398397,0.00021856777450969073
1469.8672750311605,1469.8672750311605,1.0002292181237977,0.00021860525395147045
1469.8742194854071,1469.8742194854071,1.0001059304246411,0.00021854775846507415
1469.881163939608,1469.881163939608,1.0000887742721882,0.00021854091545983612
1469.8881083937622,1469.8881083937622,0.9998680090574581,0.00021852423237398084
1469.895052847776,1469.895052847776,1.0002434990270601,0.0002185900261075637
1469.901997301744,1469.901997301744,1.0000767409857558,0.00021854859739522145
1469.908941755665,1469.908941755665,0.9998639516660569,0.00021854290906517807
1469.9158862094466,1469.9158862094466,0.9998747222228257,0.00021853691087874656
1469.9228306631346,1469.9228306631346,1.0000557421628755,0.00021855312511688372
1469.9297751167767,1469.9297751167767,0.999974321367675,0.00021851906458369313
1469.9367195703253,1469.9367195703253,1.0002619166154236,0.00021856022638030726
1469.9436640237805,1469.9436640237805,1.0001240235368871,0.0002185387731934458
1469.9506084771429,1469.9506084771429,0.9993766513483775,0.0002184324443813653
1469.9575529305055,1469.9575529305055,1.0000543505707953,0.0002185203295986362
1469.964497383728,1469.964497383728,1.0001292252922362,0.00021851431605314072
1469.9714418367646,1469.9714418367646,1.0003554965369066,0.0002185388085489153
1469.9783862898475,1469.9783862898475,1.000079032105829,0.00021849475035294288
1469.9853307427904,1469.9853307427904,0.9998174206339993,0.00021851270980479407
1469.9922751956874,1469.9922751956874,0.9998285437804677,0.00021850535428368043
1469.9992196484443,1469.9992196484443,1.0000669512701763,0.0002185115113641856
1470.006164101155,1470.006164101155,0.9998873343661974,0.0002185005843239849
1470.0131085537723,1470.0131085537723,1.000037238552689,0.00021851293867457424
1470.0200530063426,1470.0200530063426,1.0002781741198228,0.00021857165814233968
1470.0269974587736,1470.0269974587736,0.9997985423889977,0.00021856126637281046
1470.033941911205,1470.033941911205,1.0001017457950852,0.00021859080323177513
