time,time,flux,flux_err
1570.3187217624236,1570.3187217624236,0.9999337222548853,0.00015419673004968187
1570.3279812136327,1570.3279812136327,1.0000314807394732,0.0001539030134969894
1570.3363147198324,1570.3363147198324,1.0002227818323444,0.00015384343457589802
1570.3447871178764,1570.3447871178764,0.9997893810956896,0.00014012178397860756
1570.3522872736241,1570.3522872736241,0.9997744268654591,0.00014022379820026557
1570.3595096458223,1570.3595096458223,1.000061682126421,0.00014008783834029852
1570.3675653688329,1570.3675653688329,1.0000292492793725,0.00013997555573202228
1570.3753433083405,1570.3753433083405,1.0001940999876195,0.00013979622787593384
1570.3833990314668,1570.3833990314668,1.0001963995656118,0.00013970927241139136
1570.3911769710903,1570.3911769710903,0.9998836952848539,0.00013963299035962506
1570.4003438286259,1570.4003438286259,1.0002314830267958,0.0001394831129452519
1570.4078439848631,1570.4078439848631,0.9999786281040752,0.00013944410994594435
1570.414788574,1570.414788574,0.9997899301782983,0.0001393123441894135
1570.4217331632076,1570.4217331632076,1.000412103438095,0.0001391609680143643
1570.4314555882142,1570.4314555882142,1.000140770487222,0.00013925036138922632
1570.4409002296957,1570.4409002296957,1.0001210101976161,0.0001391200270530041
1570.4495115205732,1570.4495115205732,0.9997329341880598,0.0001390538238527468
1570.4564561100597,1570.4564561100597,0.9998802531415516,0.0001390775493449393
1570.4634006995702,1570.4634006995702,1.0000518383168997,0.00013903769377018646
1570.4703452891508,1570.4703452891508,0.9998616714082429,0.00013899623413706608
1570.4772898787771,1570.4772898787771,1.000018499722076,0.00013891636416387958
1570.4842344684264,1570.4842344684264,1.000102163414289,0.0001388426137016743
1570.491179058146,1570.491179058146,1.0001253224680662,0.0001388214384953144
1570.4981236478893,1570.4981236478893,0.9999768284676577,0.0001387734510170294
1570.505068237726,1570.505068237726,1.0001897393570087,0.0001386665420541602
1570.5120128275387,1570.5120128275387,0.9999366097642465,0.00013876631996168504
1570.5189574174208,1570.5189574174208,0.999988332422736,0.00013875785243968282
1570.527290925424,1570.527290925424,1.0000385997182109,0.00013862357861824754
1570.5342355154007,1570.5342355154007,0.9999283537947535,0.0001386205552231379
1570.5431245906668,1570.5431245906668,0.9998967243981518,0.0001386386654741214
1570.5509025315707,1570.5509025315707,1.000007964164308,0.000138568018993514
1570.557847121709,1570.557847121709,1.0000366352983396,0.00013853809332033202
1570.5647917118713,1570.5647917118713,1.0000474264007757,0.0001386130882300394
1570.5717363021042,1570.5717363021042,0.9998434499493122,0.00013853669397041957
1570.5786808923822,1570.5786808923822,1.0000331333348185,0.00013858002201171715
1570.5856254826836,1570.5856254826836,1.000066790713803,0.00013854175132205576
1570.5925700730318,1570.5925700730318,0.9999882799490264,0.00013852146795357981
1570.5995146634036,1570.5995146634036,1.0000098463447682,0.0001384915179091346
1570.607292604704,1570.607292604704,1.0000103953884256,0.00013843858798813006
1570.614792762431,1570.614792762431,1.0000505406381648,0.0001384405824116648
1570.6217373529187,1570.6217373529187,0.9999966140829555,0.00013836211301703508
1570.6295152943117,1570.6295152943117,0.9998467721983001,0.00013833804623057726
1570.6370154521328,1570.6370154521328,0.9999655442200182,0.00013833369339442204
1570.6439600427607,1570.6439600427607,1.0000810615856708,0.00013832062132146093
1570.650904633411,1570.650904633411,1.000143213165706,0.0001383076476039264
1570.6578492241083,1570.6578492241083,0.9999837856897342,0.00013825140331434285
1570.6647938148526,1570.6647938148526,0.9997525645494931,0.0001381987569026352
1570.6717384055744,1570.6717384055744,1.0001981719711093,0.00013825220334232226
1570.6786829964112,1570.6786829964112,1.0000575935666156,0.00013819891622436148
1570.685627587225,1570.685627587225,1.0001573240824384,0.00013813380023197265
1570.6925721780622,1570.6925721780622,0.9999231151411998,0.0001381295483696051
1570.699516768969,1570.699516768969,0.9998078644940703,0.0001380679399301079
1570.7064613599005,1570.7064613599005,0.9998893112083824,0.00013804779636307686
1570.713405950854,1570.713405950854,1.0001330334712641,0.00013804857905998913
1570.7203505418306,1570.7203505418306,1.0000377042285697,0.0001380398444101222
1570.7272951328773,1570.7272951328773,0.9999795669457271,0.00013798111061473297
1570.7342397239474,1570.7342397239474,1.0002135527438383,0.00013799402793150428
1570.7411843150182,1570.7411843150182,0.9998377954755823,0.00013791423901444113
1570.7481289060881,1570.7481289060881,0.999744356867639,0.00013785875882772576
1570.7550734972278,1570.7550734972278,0.9999252325726988,0.00013785278940158584
1570.762018088391,1570.762018088391,0.9998946895128908,0.000137813195226016
1570.7689626795777,1570.7689626795777,1.000195003566946,0.00013777018395347344
1570.7759072707881,1570.7759072707881,1.0002802396772892,0.00013777617997281092
1570.7828518620674,1570.7828518620674,1.000360899726363,0.0001377572734818918
1570.7897964533236,1570.7897964533236,0.9996710675430412,0.00013769671632902252
1570.796741044626,1570.796741044626,1.0001053856290798,0.00013767575764747603
1570.8036856359524,1570.8036856359524,0.9997566275233949,0.00013760103941229553
1570.8106302273263,1570.8106302273263,0.9999364863921393,0.00013763918860717133
1570.8175748186752,1570.8175748186752,0.9999645481019359,0.00013758091666778751
1570.8245194100944,1570.8245194100944,0.9999633425810261,0.00013756416549820044
1570.8314640015367,1570.8314640015367,0.9999869322040243,0.00013757617540381648
1570.8384085929795,1570.8384085929795,1.000074311662731,0.00013753911818977342
1570.8453531844696,1570.8453531844696,0.999991463414838,0.00013755080351043452
1570.8522977759585,1570.8522977759585,1.0001153717461717,0.0001375170384529236
1570.8592423674936,1570.8592423674936,1.0005256505362763,0.00013752934028143967
1570.8661869590526,1570.8661869590526,0.9999896627947896,0.00013747914159633576
1570.8731315505881,1570.8731315505881,0.9998082620555866,0.0001374604414655572
1570.8814650605486,1570.8814650605486,0.999826050779749,0.00013747083363503855
1570.8884096521074,1570.8884096521074,0.9997804974646552,0.00013744943225543616
1570.895354243759,1570.895354243759,0.9998651664898761,0.00013739482653907229
1570.902298835411,1570.902298835411,1.000156732442266,0.0001374381890863723
1570.90924342718,1570.90924342718,1.0000688818156989,0.00013743933250822681
1570.9161880188326,1570.9161880188326,1.0001459168419458,0.00013740330704311129
1570.9231326105778,1570.9231326105778,1.0002895083267298,0.00013738299419392913
1570.9300772023228,1570.9300772023228,0.9999805787214016,0.00013732025571031468
1570.9370217940912,1570.9370217940912,0.9999069105793966,0.00013734089542499062
1570.9439663858602,1570.9439663858602,0.9998131809741067,0.0001372742888820987
1570.950910977676,1570.950910977676,1.0000149717416995,0.00013729501907583158
1570.9578555695139,1570.9578555695139,0.9999308485767802,0.00013727860397295453
1570.9648001613289,1570.9648001613289,0.9998911164054702,0.00013726019712454178
1570.9717447532134,1570.9717447532134,1.000194665098355,0.00013719732214335733
1570.9786893450987,1570.9786893450987,0.9999963995459769,0.00013725935591301267
1570.9856339369844,1570.9856339369844,0.999790055570976,0.00013720513430123533
1570.9925785288926,1570.9925785288926,1.000192002787798,0.0001371831017164667
1570.9995231208472,1570.9995231208472,0.9999149731590287,0.0001371738800116662
1571.0064677127787,1571.0064677127787,1.000112216631798,0.0001371561988598503
1571.0134123047333,1571.0134123047333,1.0001165902685507,0.00013713718540739363
1571.0203568967354,1571.0203568967354,1.000152874542028,0.0001370888251487371
1571.027301488737,1571.027301488737,0.9999464423039621,0.00013706026193726001
1571.034246080761,1571.034246080761,0.999972297482749,0.0001370615474995324
1571.0411906727625,1571.0411906727625,1.0000597101242956,0.00013706361712067288
1571.0481352648335,1571.0481352648335,0.9999199538449908,0.00013696186243919483
1571.0550798568822,1571.0550798568822,1.0000567776933211,0.00013700435879504986
1571.0620244489537,1571.0620244489537,0.9999687571752407,0.0001369850021426681
1571.0689690410481,1571.0689690410481,1.0000998379997816,0.00013697154172917915
1571.0759136331653,1571.0759136331653,0.9999454726914323,0.00013692107496595635
1571.082858225283,1571.082858225283,0.9997741430783804,0.0001368957299640126
1571.0898028174015,1571.0898028174015,1.000240589760181,0.00013690327709449835
1571.096747409566,1571.096747409566,0.9999829510632317,0.00013689207098691676
1571.103692001707,1571.103692001707,0.9998929541702919,0.0001368564005354512
1571.1106365938945,1571.1106365938945,1.000132436348156,0.00013686359377900308
1571.1175811860583,1571.1175811860583,0.999778079704069,0.00013679335338564487
1571.1245257782932,1571.1245257782932,0.999971178822638,0.00013681860902687443
1571.131470370528,1571.131470370528,1.0001552128949003,0.0001368014245495635
1571.1384149626688,1571.1384149626688,0.9998970468602038,0.00013681337335000042
1571.1453595549262,1571.1453595549262,1.000140691331753,0.00013677771495594325
1571.1523041472296,1571.1523041472296,1.0001194523747738,0.00013677703065372932
1571.1592487394641,1571.1592487394641,1.0000588151170617,0.00013674908205033455
1571.166193331699,1571.166193331699,1.0000096182751554,0.00013673231824099864
1571.1731379239798,1571.1731379239798,0.999783691038626,0.00013673449376501939
1571.180082516284,1571.180082516284,0.9999655528839423,0.00013669779403884774
1571.1870271085877,1571.1870271085877,0.9999781511259638,0.00013671623600930313
1571.1939717008916,1571.1939717008916,0.9999516309180516,0.00013669441329773293
1571.2009162932195,1571.2009162932195,0.999956852423758,0.0001366782631801107
1571.207860885547,1571.207860885547,1.0000143031073112,0.00013667510438100002
1571.2148054778977,1571.2148054778977,0.9999716204829039,0.00013669776621284845
1571.2217500702477,1571.2217500702477,1.0002232133945497,0.00013667583211673479
1571.2286946625984,1571.2286946625984,0.9999317037197958,0.0001366564123658391
1571.235639254973,1571.235639254973,1.000159930766277,0.00013664985387233945
1571.242583847347,1571.242583847347,0.9998743627097765,0.0001366399794186518
1571.2495284397442,1571.2495284397442,1.0000768066223424,0.0001366525039552552
1571.256473032141,1571.256473032141,0.999937721532252,0.00013665006848168244
1571.2634176245379,1571.2634176245379,0.9999860777954341,0.0001366092408204486
1571.2703622169586,1571.2703622169586,0.9998265208086774,0.0001365922360026011
1571.2773068093798,1571.2773068093798,0.9999740621673473,0.00013659009299344226
1571.2842514018234,1571.2842514018234,1.0001154848871117,0.0001365975628363499
1571.2911959942437,1571.2911959942437,1.0001972111114759,0.0001366198284241187
1571.2981405866637,1571.2981405866637,1.0001191181383653,0.00013658142169238423
1571.3050851791309,1571.3050851791309,1.0000251395768225,0.0001365695877849852
1571.3120297715755,1571.3120297715755,0.9997043719958324,0.00013652951006109322
1571.3189743640423,1571.3189743640423,0.999961188216464,0.0001365338878120037
1571.3259189565094,1571.3259189565094,0.9998149059767766,0.00013650511034082606
1571.3328635489993,1571.3328635489993,0.9999013975629902,0.0001365096746067294
1571.3398081414896,1571.3398081414896,1.0002117147742828,0.00013654024512702777
1571.3467527339571,1571.3467527339571,1.0000787706466965,0.0001365081625714966
1571.353697326471,1571.353697326471,1.0002584761434947,0.00013652108124869206
1571.3606419189382,1571.3606419189382,1.000184958719263,0.00013648166891120768
1571.367586511475,1571.367586511475,0.9997863301948644,0.0001364611509077754
1571.3745311039881,1571.3745311039881,0.999841774624645,0.000136447748444143
1571.3814756965248,1571.3814756965248,0.9998370907878531,0.0001364533210062282
1571.388420289016,1571.388420289016,0.9999513662730944,0.0001364622755607934
1571.3953648815764,1571.3953648815764,1.000059232029006,0.00013642675839949347
1571.4023094740899,1571.4023094740899,0.9999235676184549,0.00013643257323119013
1571.4092540666263,1571.4092540666263,1.0000732264841936,0.00013639848045263837
1571.4161986591398,1571.4161986591398,1.0002597950327345,0.00013641774504436806
1571.4231432516767,1571.4231432516767,1.0000872687533389,0.00013639016682891707
1571.4300878442612,1571.4300878442612,1.0000143627688751,0.0001363864244448892
1571.4370324367746,1571.4370324367746,0.9997755880243202,0.00013636121752249003
1571.4439770293573,1571.4439770293573,0.99997147587138,0.0001363679646356657
1571.4509216218944,1571.4509216218944,0.9999544654023254,0.0001363897913494385
1571.4578662144777,1571.4578662144777,1.0000038033308631,0.0001363752127494515
1571.4648108070385,1571.4648108070385,1.0000192749672665,0.00013637163809642077
1571.471755399599,1571.471755399599,0.9999410619595294,0.00013634996727625222
1571.4786999921819,1571.4786999921819,1.0001349351270077,0.0001363971431627454
1571.4856445847422,1571.4856445847422,1.0002395432132745,0.00013637645524502824
1571.4925891773255,1571.4925891773255,0.9998507515337061,0.00013635624783505136
1571.4995337699088,1571.4995337699088,1.0000259882698526,0.0001363772301530028
1571.5064783624932,1571.5064783624932,0.9997950557178401,0.00013632996402331007
1571.5134229550763,1571.5134229550763,0.9999419805527145,0.0001363439712558518
1571.5203675476596,1571.5203675476596,0.9999244798729198,0.0001363627531015315
1571.5273121402429,1571.5273121402429,1.0000611918474085,0.0001363714120676953
1571.5342567328496,1571.5342567328496,1.000091602155647,0.00013636695700167258
1571.5412013254338,1571.5412013254338,1.0001722699097835,0.00013635631724736853
1571.5481459180173,1571.5481459180173,1.0000957615417538,0.0001363538699672379
1571.5550905106238,1571.5550905106238,0.9997269227240718,0.00013633722668269388
1571.562035103207,1571.562035103207,0.9997410610069387,0.00013635420949169636
1571.5689796957904,1571.5689796957904,0.999923027673821,0.00013636648478574173
1571.575924288397,1571.575924288397,1.0000562773552475,0.00013635368580631446
1571.5828688810047,1571.5828688810047,0.9999661096825536,0.00013635478457403675
1571.5898134735878,1571.5898134735878,1.000123120459372,0.00013634596055910547
1571.5967580661945,1571.5967580661945,1.0000563757974492,0.00013634070262855791
1571.603702658801,1571.603702658801,1.0001793648505846,0.00013635842102031147
1571.610647251384,1571.610647251384,0.9997895775920342,0.0001363195404197235
1571.6175918439917,1571.6175918439917,1.0000202768339714,0.00013632290876578962
1571.6245364365755,1571.6245364365755,1.0001372710439163,0.00013633225521675089
1571.631481029182,1571.631481029182,0.9997186937296527,0.00013634151718506848
1571.6384256217884,1571.6384256217884,1.0000855360701004,0.00013633627242824254
1571.6453702143715,1571.6453702143715,0.999941823681937,0.00013633974115022463
1571.6523148069784,1571.6523148069784,1.0000581539253448,0.00013633895127659212
1571.6592593995858,1571.6592593995858,1.000129672791557,0.00013634228080625945
1571.6662039921694,1571.6662039921694,0.9999534226106709,0.00013630754721533441
1571.673148584776,1571.673148584776,0.9999175374128061,0.00013630973488624288
1571.6800931773591,1571.6800931773591,1.0000608129390276,0.00013634102859801025
1571.6870377699424,1571.6870377699424,1.0001286223346881,0.00013632419378763544
1571.6939823625491,1571.6939823625491,0.9998561877159323,0.0001363092861440247
1571.7009269551336,1571.7009269551336,1.0000734973793062,0.00013630441457235967
1571.7078715477169,1571.7078715477169,0.9999851092863246,0.00013631734290512812
1571.7148161403234,1571.7148161403234,0.9999928227370081,0.0001363071489630551
1571.7217607329062,1571.7217607329062,0.9998705554048033,0.0001362984993573584
1571.7287053254897,1571.7287053254897,1.0001273195485405,0.0001362828217238993
1571.7356499180737,1571.7356499180737,0.9998583509303011,0.00013627165301812992
1571.7425945106343,1571.7425945106343,1.0000500105413652,0.00013629944069819
1571.7495391032176,1571.7495391032176,0.9999992257510764,0.00013626834341663304
1571.7564836958009,1571.7564836958009,0.9999914519489559,0.00013628684304731444
1571.7634282883605,1571.7634282883605,1.0000731838016377,0.0001362894628717011
1571.7703728809443,1571.7703728809443,1.0000411273996659,0.0001362718833695646
1571.7773174734814,1571.7773174734814,1.0001861472458025,0.00013627008666009088
1571.7842620660654,1571.7842620660654,0.999984800851793,0.000136252878501657
1571.7912066586255,1571.7912066586255,0.9996706725675628,0.00013624105773650842
1571.7981512511851,1571.7981512511851,1.0000342251741896,0.00013624764821592493
1571.8050958437454,1571.8050958437454,1.0000910299914303,0.00013625129734353545
1571.8120404362821,1571.8120404362821,0.999954759377107,0.00013624550107564734
1571.8189850288195,1571.8189850288195,0.9999701257872509,0.00013623592784581918
1571.8259296214032,1571.8259296214032,0.9999313673946482,0.00013623037470455267
1571.8328742139167,1571.8328742139167,1.0002222910201504,0.0001362358531104102
1571.8398188064534,1571.8398188064534,0.9999883411626289,0.00013621850640717606
1571.8467633989665,1571.8467633989665,1.0000909277726129,0.00013622217983032232
1571.8537079915034,1571.8537079915034,0.9998489262677955,0.00013621323139060187
1571.8606525840182,1571.8606525840182,0.9999638645448412,0.00013619693898039278
1571.8675971765547,1571.8675971765547,0.9999972577624616,0.00013620918795282966
1571.8745417690684,1571.8745417690684,0.9999276658470787,0.00013622556618955232
1571.881486361605,1571.881486361605,1.0001397799557437,0.0001362194737370062
1571.8884309541181,1571.8884309541181,1.000042467687217,0.0001362265588782965
1571.8953755466084,1571.8953755466084,1.000058586814546,0.00013624314987475467
1571.9023201391228,1571.9023201391228,0.9998195202018201,0.00013620757620186582
1571.9092647316131,1571.9092647316131,0.9998567479572256,0.00013618856355307108
1571.9162093241034,1571.9162093241034,0.9999687668136156,0.00013617563612814662
1571.9231539165698,1571.9231539165698,1.0001756440208074,0.00013622314871218486
1571.9300985090604,1571.9300985090604,0.9999122621330333,0.00013617619510207702
1571.9370431015273,1571.9370431015273,0.9998740691617864,0.00013619676090563277
1571.9439876940182,1571.9439876940182,1.0001784041450328,0.0001361944583273598
1571.9509322864624,1571.9509322864624,1.0001568028090106,0.00013624823799761137
1571.9578768789293,1571.9578768789293,1.0000250912237998,0.0001361869329342388
1571.9648214713957,1571.9648214713957,1.000041602605333,0.00013618752112020747
1571.9717660638396,1571.9717660638396,0.9999943380600248,0.00013617882073975031
1571.978710656283,1571.978710656283,0.9998505368671671,0.0001361873882112572
1571.9856552487047,1571.9856552487047,1.0000298734565818,0.00013618427969330413
1571.9925998411484,1571.9925998411484,0.9998928766767918,0.00013619132844128803
1571.9995444335684,1571.9995444335684,1.0003841159345566,0.0001362112153555207
1572.0064890259887,1572.0064890259887,1.0001015429462317,0.00013619418907440096
1572.013433618409,1572.013433618409,0.9999536481170954,0.0001361679254392653
1572.0203782108058,1572.0203782108058,1.0000368623885842,0.00013619119355990142
1572.0273228032274,1572.0273228032274,0.9998427138962536,0.0001361618114059226
1572.034267395601,1572.034267395601,1.0001827166021218,0.00013616205029232011
1572.0412119879982,1572.0412119879982,1.0000833702448975,0.00013617079517669998
1572.0481565803952,1572.0481565803952,1.0000503822140725,0.0001361653504227481
1572.055101172769,1572.055101172769,0.9999688955318401,0.00013616239835080338
1572.0620457651191,1572.0620457651191,0.9999200387191198,0.0001361436766958268
1572.068990357494,1572.068990357494,0.9998089422812602,0.00013615804063107982
1572.0759349498446,1572.0759349498446,1.0001098927860244,0.00013619595076515512
1572.0828795421953,1572.0828795421953,1.0000210062418318,0.00013614384444068678
1572.0898241345221,1572.0898241345221,0.9999615411674941,0.00013614937695973395
