time,time,flux,flux_err
1385.9575801479477,1385.9575801479477,0.9998814494259194,0.0015909288927602877
1385.9659136126518,1385.9659136126518,0.9991280887949641,0.0015909806531251164
1385.9735526218578,1385.9735526218578,0.9997316989798819,0.0014518337937729237
1385.9804971755207,1385.9804971755207,1.0015954522281425,0.00145239646913562
1385.9874417291844,1385.9874417291844,1.0006896640728589,0.0014521458163683648
1385.9943862826615,1385.9943862826615,1.0006368042660863,0.0014524896504350456
1386.0013308360444,1386.0013308360444,0.9992375576879923,0.0014517610403714366
1386.0082753894285,1386.0082753894285,0.9991691650750066,0.001452125503165077
1386.0152199425333,1386.0152199425333,1.000069323621984,0.0014519419324018686
1386.0221644955436,1386.0221644955436,1.0001582554694202,0.0014513823235237317
1386.0291090485555,1386.0291090485555,1.0008313947539882,0.0014517809084008471
1386.0360536014737,1386.0360536014737,0.9996963899076523,0.0014509357863792584
1386.0429981542982,1386.0429981542982,0.9992796385247132,0.0014511925171441522
1386.049942706937,1386.049942706937,0.9985601124705559,0.0014510403092509666
1386.056887259483,1386.056887259483,1.0018906055591201,0.0014513499678201446
1386.063831812028,1386.063831812028,0.9979164235991176,0.0014506048555338199
1386.0707763642945,1386.0707763642945,1.0031510852172119,0.001451330791598445
1386.0777209168402,1386.0777209168402,0.9997837976612196,0.0014514233834128315
1386.084665469013,1386.084665469013,0.9996906985305454,0.0014510915619931177
1386.091610020813,1386.091610020813,1.002288220542979,0.001451131196786888
1386.0985545728936,1386.0985545728936,0.9988221372876765,0.0014509486996197249
1386.1054991247872,1386.1054991247872,0.9975085910384435,0.0014510030646959207
1386.1124436765872,1386.1124436765872,1.0002778468679039,0.0014516911379377666
1386.1193882282018,1386.1193882282018,0.9991499750724756,0.0014515021773492168
1386.1263327798163,1386.1263327798163,1.0005812168002688,0.0014518200426191271
1386.1332773312436,1386.1332773312436,0.9996051654936666,0.0014512639745001166
1386.140221882672,1386.140221882672,1.0024417979317515,0.0014520563565354136
1386.1471664339138,1386.1471664339138,0.9997127900688725,0.0014509029092597818
1386.154110985062,1386.154110985062,0.9985662485053834,0.0014508275547667991
1386.1610555362106,1386.1610555362106,0.9989866021342987,0.0014506003001619554
1386.1680000870801,1386.1680000870801,0.9951399131111195,0.0014501561912575614
1386.1749446380422,1386.1749446380422,1.0025218128896092,0.001451373782752042
1386.1818891888183,1386.1818891888183,0.9998109361736318,0.0014510046074955759
1386.1888337395014,1386.1888337395014,0.9999980241304774,0.0014509614453205356
1386.195778290091,1386.195778290091,0.998775997395243,0.0014506830711117627
1386.202722840494,1386.202722840494,1.0027772081415063,0.0014519612461698196
1386.2096673908984,1386.2096673908984,1.0000817314733517,0.0014514820484813806
1386.216611941209,1386.216611941209,0.9982946145542471,0.0014512466610110664
1386.2235564914251,1386.2235564914251,1.000345843608114,0.0014519263991299282
1386.2305010413634,1386.2305010413634,0.9997760812018723,0.0014519965280975226
1386.237445591581,1386.237445591581,1.0001560167193948,0.001452833783554409
1386.2443901415181,1386.2443901415181,1.0003257920904574,0.0014519865862989692
1386.2513346911771,1386.2513346911771,0.997984261954785,0.0014519766375868917
1386.258279240743,1386.258279240743,1.0003636328245251,0.0014523394027606868
1386.2652237904942,1386.2652237904942,1.000346037545421,0.00145249220778554
1386.272168339966,1386.272168339966,0.9988709760137782,0.0014522543957779814
1386.2791128892522,1386.2791128892522,1.00153608057271,0.0014526698370076485
1386.2860574385384,1386.2860574385384,1.000252485707486,0.001451532901721157
1386.2930019878238,1386.2930019878238,1.0016031526273719,0.0014518251999644123
1386.2999465368307,1386.2999465368307,1.0000332158298353,0.0014514435258654542
1386.3068910859306,1386.3068910859306,0.9984190176192076,0.0014509148513256903
1386.31383563475,1386.31383563475,0.9975690133406688,0.0014509623099464226
1386.320780183664,1386.320780183664,1.0005895431870044,0.0014513051021251134
1386.3277247322985,1386.3277247322985,1.00020732600397,0.0014510735376691386
1386.3346692809314,1386.3346692809314,1.0027249332053507,0.0014517397975008076
1386.3416138294729,1386.3416138294729,1.001507048553147,0.0014516694224272024
1386.3485583778277,1386.3485583778277,0.9995103232906516,0.0014515155027570547
1386.355502926182,1386.355502926182,0.9975615925109661,0.001451226919686731
1386.3624474743503,1386.3624474743503,0.999022087777572,0.0014518037478273122
1386.3699475864137,1386.3699475864137,1.0022195282181179,0.001452711810584598
1386.3777254800973,1386.3777254800973,1.000082677968726,0.0014519890000062971
1386.384670027986,1386.384670027986,0.9981177052059008,0.0014521771710541693
1386.3916145758753,1386.3916145758753,1.0005941614552982,0.0014529618454111328
1386.3985591234853,1386.3985591234853,1.0008168528535832,0.0014527867979785057
1386.4055036713733,1386.4055036713733,0.9989634100922284,0.0014521829375413128
1386.4124482188902,1386.4124482188902,0.9987098467592604,0.0014522312211011623
1386.4193927660342,1386.4193927660342,1.000982122085465,0.0014526637978327385
1386.4263373134568,1386.4263373134568,0.9997559168173469,0.0014525432673060555
1386.433281860694,1386.433281860694,1.0009779915562453,0.0014527934122456373
1386.4402264078387,1386.4402264078387,1.0019172205139075,0.0014527604242566053
1386.447170954889,1386.447170954889,0.9975183698646377,0.0014516414670145794
1386.4541155018467,1386.4541155018467,1.000956527955784,0.0014528340652823323
1386.461060048618,1386.461060048618,1.0014043358863165,0.0014530895544719873
1386.4680045953896,1386.4680045953896,1.0000647083608747,0.0014526369891403545
1386.4749491420673,1386.4749491420673,0.9999121710667034,0.001452983474429819
1386.48189368856,1386.48189368856,1.0012651312367096,0.0014530716148660676
1386.488838235052,1386.488838235052,1.000240318186641,0.0014527251963990918
1386.49578278145,1386.49578278145,0.9989668720493997,0.0014528601385724728
1386.5027273276628,1386.5027273276628,1.0006234058439898,0.0014530731762490534
1386.509671873876,1386.509671873876,0.9989764710342408,0.001452662496229821
1386.516616419995,1386.516616419995,1.0000277664233406,0.001452532543176358
1386.523560965928,1386.523560965928,0.9990141549302777,0.0014521339269423198
1386.5305055117685,1386.5305055117685,1.0019950121275107,0.0014526214586343684
1386.5374500576086,1386.5374500576086,0.9997653820575266,0.0014519704066262176
1386.5443946032617,1386.5443946032617,0.9990943700086566,0.0014513357521100153
1386.551339148823,1386.551339148823,0.9995364679660979,0.0014522324939335689
1386.558283694384,1386.558283694384,1.00036046488324,0.0014521025447082013
1386.5655060215652,1386.5655060215652,0.9990406730618695,0.0014522585093033602
1386.5735616942632,1386.5735616942632,1.0031368817902877,0.0014526759986195348
1386.5805062394516,1386.5805062394516,1.0018689657596862,0.0014534907294218701
1386.587450784546,1386.587450784546,0.9987865336956332,0.0014529434896290226
1386.5943953293615,1386.5943953293615,0.9984922551037295,0.0014528809619413319
1386.601339874364,1386.601339874364,0.9998124080065633,0.001453337988100307
1386.6082844191794,1386.6082844191794,0.9999541887356014,0.0014530140338323313
1386.615228963901,1386.615228963901,0.9996106053172717,0.0014532671740471795
1386.622173508531,1386.622173508531,1.0002705950066528,0.001453525527328151
1386.6291180530677,1386.6291180530677,0.9981791539056534,0.001453226912834182
1386.6360625975099,1386.6360625975099,0.999441264042342,0.0014532824963644315
1386.6430071417674,1386.6430071417674,1.0015050711478979,0.0014530518981471765
1386.6499516861172,1386.6499516861172,1.0002189193695012,0.0014523705667557063
1386.656896230187,1386.656896230187,1.000782724304622,0.0014522982792527827
1386.663840774351,1386.663840774351,1.0017631755608778,0.0014524399208369766
1386.6707853181429,1386.6707853181429,0.9966406237184524,0.0014514714198708583
1386.6777298621198,1386.6777298621198,1.0023999313046752,0.0014521809315217848
1386.6846744059108,1386.6846744059108,1.0001768145288588,0.0014519276365827644
1386.691618949609,1386.691618949609,0.9994654795834561,0.001451774424474088
1386.6985634931211,1386.6985634931211,1.000630324202575,0.0014516588047334348
1386.7055080366322,1386.7055080366322,0.9985527888364446,0.001451388011558193
1386.712452580051,1386.712452580051,1.0006301949653265,0.001452321449602554
1386.7193971232837,1386.7193971232837,0.9982953349006293,0.001452167575269387
1386.7263416665155,1386.7263416665155,1.001234361763561,0.0014523315044817162
1386.7332862097478,1386.7332862097478,1.0002563673554599,0.0014523073056805225
1386.7402307527013,1386.7402307527013,1.0005920585755186,0.001452266241893833
1386.7471752955612,1386.7471752955612,1.000328117385624,0.0014525702124236696
1386.7541198384206,1386.7541198384206,0.9991546658270085,0.0014523195145420959
1386.7610643812804,1386.7610643812804,1.000083958077402,0.0014522529346682352
1386.768008923768,1386.768008923768,0.9998721274807751,0.0014525222460490693
1386.7752312480627,1386.7752312480627,0.9996561393107619,0.0014518716926058882
1386.7832869173144,1386.7832869173144,0.9982805459921378,0.0014520119034413977
1386.7902314596158,1386.7902314596158,1.000999322135198,0.0014527976682045653
1386.7971760019168,1386.7971760019168,1.0022500154991727,0.0014531685220789468
1386.8041205440309,1386.8041205440309,0.9986380044417145,0.001452200675869994
1386.811065086146,1386.811065086146,0.9979523554220415,0.0014524530169741322
1386.8180096280753,1386.8180096280753,1.0025897436725668,0.0014529121434671414
1386.824954170003,1386.824954170003,1.000937246898177,0.0014528739366353675
1386.8318987118384,1386.8318987118384,0.9996734414926347,0.0014528440347822413
1386.838843253488,1386.838843253488,0.9997038442819702,0.0014526895705289696
1386.8457877950434,1386.8457877950434,0.9984336875539945,0.0014523382931700313
1386.8527323365993,1386.8527323365993,0.9998134772017615,0.0014523120831796527
1386.8596768779694,1386.8596768779694,1.0009638664208533,0.0014523937014766525
1386.8666214192463,1386.8666214192463,0.9985991884302742,0.0014519120583697616
1386.8735659605222,1386.8735659605222,0.9992279815443348,0.0014521313401614233
1386.8805105016127,1386.8805105016127,1.0025396473139538,0.0014533197337006257
1386.8874550427036,1386.8874550427036,0.9990440182999653,0.0014528112834483772
1386.8943995837,1386.8943995837,1.0019462940684316,0.001452712765125951
1386.901344124604,1386.901344124604,1.000153208581877,0.0014523076807123586
1386.908288665229,1386.908288665229,1.000385092409897,0.0014527402520342243
1386.915233205947,1386.915233205947,0.9999815424958649,0.0014525346946084256
1386.9221777467571,1386.9221777467571,0.9964489299536872,0.0014524882730600095
1386.92912228701,1386.92912228701,0.9998822688147158,0.0014526505612235659
1386.9360668273553,1386.9360668273553,0.9996895572794179,0.001453103732185858
1386.9430113677936,1386.9430113677936,1.0016123793104252,0.0014533914311260646
1386.9499559079522,1386.9499559079522,1.0006950039443876,0.0014531921604296612
1386.9569004481116,1386.9569004481116,1.0008154534495453,0.0014530200121720034
1386.9638449881777,1386.9638449881777,0.9976570500219848,0.0014525766626742108
1386.9707895280567,1386.9707895280567,1.001327329267013,0.001452737830605752
1386.9777340679366,1386.9777340679366,0.9986760537626738,0.0014528091837079842
1386.9855119524009,1386.9855119524009,1.001304740830614,0.001452815519851925
1386.9930120552428,1386.9930120552428,0.9990593623562589,0.0014522232172788873
1386.9999565947503,1386.9999565947503,1.0004879971775567,0.001452640223502112
1387.0069011341648,1387.0069011341648,1.0000750536042566,0.0014526692944355967
1387.013845673485,1387.013845673485,0.9990425844848746,0.0014523171546795288
1387.0207902128986,1387.0207902128986,1.0019083058125617,0.0014529844799004523
1387.0277347520337,1387.0277347520337,1.0006870408675386,0.0014527423386250567
1387.0346792910755,1387.0346792910755,0.9975843663248675,0.0014518658179248595
1387.0416238301164,1387.0416238301164,1.0008663109651,0.0014530975244974077
1387.0485683690647,1387.0485683690647,1.000861644099238,0.0014526553706358646
1387.0555129079203,1387.0555129079203,0.9986682488099154,0.0014523433922228764
1387.0624574465887,1387.0624574465887,1.0008965814340693,0.001452817329027505
1387.0694019852572,1387.0694019852572,0.9986123271904596,0.0014526890430263493
1387.0763465237405,1387.0763465237405,1.0001155459893734,0.0014531015823928618
1387.0832910623164,1387.0832910623164,1.0011629567627112,0.0014534608979441938
1387.090235600612,1387.090235600612,0.9999308625277779,0.0014538755234141591
1387.0971801388155,1387.0971801388155,1.0004448978631575,0.0014539167676324918
1387.1041246770192,1387.1041246770192,0.9998153396233367,0.0014533965346927864
1387.1110692152222,1387.1110692152222,1.0024741083090303,0.0014540876089556075
1387.1180137531458,1387.1180137531458,0.9987879408695175,0.0014536503201365287
1387.1249582910696,1387.1249582910696,0.9978891330635052,0.0014536393345198776
1387.131902828901,1387.131902828901,0.9972759129593687,0.0014539647255184325
1387.1388473665445,1387.1388473665445,1.0014163148707091,0.0014547839238324665
1387.145791904189,1387.145791904189,1.001550714515959,0.0014545083769096972
1387.1527364418341,1387.1527364418341,1.00139412870471,0.0014551740446331596
1387.159680979199,1387.159680979199,1.0019069134225091,0.0014549821759171078
1387.1666255166565,1387.1666255166565,0.9975478564925562,0.001453821298383522
1387.1735700538359,1387.1735700538359,0.9989470291489081,0.0014544261895815076
1387.180514591108,1387.180514591108,0.9999479653187177,0.0014537136263659133
1387.1874591281003,1387.1874591281003,0.9974084458286132,0.0014528911523616244
1387.1944036651855,1387.1944036651855,1.0008418151545193,0.001453626086625541
1387.2013482020852,1387.2013482020852,1.0014453612646401,0.0014538591959741111
1387.208292738892,1387.208292738892,0.999627176741042,0.0014528860474912887
1387.215237275604,1387.215237275604,1.000508251040808,0.001452898914335189
1387.2221818122246,1387.2221818122246,1.0038440081163642,0.0014531469409921809
1387.2291263487518,1387.2291263487518,0.9979966772770036,0.001451868481238087
1387.2360708852782,1387.2360708852782,0.9977120814415065,0.0014519228343573725
1387.2430154216186,1387.2430154216186,1.0015086663732364,0.0014528772797570556
1387.2499599578666,1387.2499599578666,0.9993692983841831,0.0014525495515000032
1387.2569044942074,1387.2569044942074,0.9997315760208961,0.0014524665797586269
1387.2638490300817,1387.2638490300817,1.0014041097156696,0.0014535798699822841
1387.270793566329,1387.270793566329,0.9995025539461458,0.0014532065021013508
1387.2777381022977,1387.2777381022977,0.9988072793243855,0.001453386054434994
1387.2846826381724,1387.2846826381724,1.0001749857052755,0.0014538986886271398
1387.2916271735812,1387.2916271735812,1.0014110524861957,0.0014539917808239398
1387.2985717094566,1387.2985717094566,0.9999571646453733,0.0014538294313067924
1387.305516244866,1387.305516244866,1.0004049951061216,0.0014536553077933178
1387.3132941246727,1387.3132941246727,1.0003130052610192,0.001454185997932855
1387.3219053485059,1387.3219053485059,0.9979719339200314,0.0014536188417081822
1387.3291276651646,1387.3291276651646,1.0000399245580562,0.0014540629398556908
1387.336905544599,1387.336905544599,0.9999834387137418,0.0014540571518552928
1387.3444056424125,1387.3444056424125,0.9990918701295243,0.0014535303408588752
1387.3516279588846,1387.3516279588846,1.0015722467412138,0.0014539280199795264
1387.3596836191957,1387.3596836191957,1.0003678832732175,0.0014539967465558555
1387.3666281539524,1387.3666281539524,1.000132751461507,0.00145403737514105
1387.373572688617,1387.373572688617,0.9999424113546361,0.0014535241484186245
1387.3805172233747,1387.3805172233747,1.002396236805678,0.0014543461182192309
1387.3874617578524,1387.3874617578524,0.9989120561105631,0.001453428077357616
1387.394406292237,1387.394406292237,0.9987889100407104,0.0014537305368648938
1387.4013508266219,1387.4013508266219,1.0003776404025038,0.001453819693093072
1387.4082953608208,1387.4082953608208,0.9985155859311388,0.001453249017822685
1387.4152398950187,1387.4152398950187,0.9982850895262928,0.0014538557505371739
1387.4221844290312,1387.4221844290312,1.0030823266189886,0.0014548452976195472
1387.4291289629505,1387.4291289629505,1.000038600064969,0.0014545011605560315
1387.4360734969625,1387.4360734969625,1.000678605152037,0.0014549576029795567
1387.4430180306956,1387.4430180306956,0.9996493268370026,0.0014546653446595868
1387.449962564522,1387.449962564522,0.9994903543985135,0.0014544066164262955
1387.4569070980688,1387.4569070980688,1.0015593242843326,0.0014550941582123738
1387.4638516316147,1387.4638516316147,0.99947228156882,0.0014544327953771718
1387.4707961651613,1387.4707961651613,0.9973286747594304,0.0014539054351454877
1387.4777406982428,1387.4777406982428,0.9981630622929754,0.0014540367991075056
1387.4846852316964,1387.4846852316964,1.001113798200979,0.0014550353713814479
1387.4916297648697,1387.4916297648697,1.0009534970679224,0.0014543284889568819
1387.498574297951,1387.498574297951,1.0010538168748961,0.0014545780876467896
1387.5055188309393,1387.5055188309393,1.0016563273873362,0.0014547582259169145
1387.5124633638334,1387.5124633638334,1.0000098918139628,0.0014548544875513975
1387.5194078967284,1387.5194078967284,0.9998843290926661,0.0014545669807586844
1387.5263524294364,1387.5263524294364,0.9997542309846741,0.0014545761656262397
1387.5332969620526,1387.5332969620526,0.9985952831995035,0.0014541124762159608
1387.540241494667,1387.540241494667,1.0002784278529258,0.001454370199441162
1387.5471860270961,1387.5471860270961,1.000007757577923,0.001454524288515416
1387.554130559433,1387.554130559433,0.9993181843486518,0.0014545094012736212
1387.5610750918618,1387.5610750918618,0.9973544627198274,0.0014540302264373878
1387.5680196240107,1387.5680196240107,1.0024673211454358,0.0014542653382458143
1387.5749641560674,1387.5749641560674,0.9995018366105738,0.0014543275887704357
1387.5819086881245,1387.5819086881245,1.0012477854932427,0.0014538741484186794
1387.5888532200877,1387.5888532200877,1.0009657349339034,0.0014532442548568034
1387.5957977519574,1387.5957977519574,0.9976511921811267,0.0014526331585831011
1387.6027422837346,1387.6027422837346,1.0024200511713315,0.0014533935300517606
1387.6096868154195,1387.6096868154195,0.9972136385880793,0.0014527147671807743
1387.6166313470096,1387.6166313470096,0.9991964806444166,0.0014529686812503517
1387.6235758785072,1387.6235758785072,0.999811661437598,0.0014529616434073775
1387.6305204099122,1387.6305204099122,1.001543930984721,0.0014528000478983103
1387.6374649414104,1387.6374649414104,0.9990915647656531,0.0014530876062767049
1387.6444094726276,1387.6444094726276,1.0006804528773312,0.0014533456927606106
1387.6513540038463,1387.6513540038463,0.9988633435660326,0.001453081732193056
1387.6582985345995,1387.6582985345995,0.9992198921846723,0.001453367116861299
1387.6652430658178,1387.6652430658178,1.000712957022823,0.001453777577841285
1387.6721875965698,1387.6721875965698,1.0013193355465253,0.0014536823233162802
1387.6791321274156,1387.6791321274156,1.0021844591521616,0.0014537148934368623
1387.686076658169,1387.686076658169,0.9994510533262572,0.0014532424871184348
1387.6930211887352,1387.6930211887352,1.0005796582399744,0.0014535054611636634
1387.6999657193942,1387.6999657193942,0.9979957224645934,0.0014529078361755212
1387.7069102498676,1387.7069102498676,0.9998466835779165,0.001453680096010097
1387.7138547801553,1387.7138547801553,0.9987011299605812,0.001453212866429529
1387.7207993105349,1387.7207993105349,1.0001339511797698,0.001453392690570689
1387.7277438406356,1387.7277438406356,1.00229453809624,0.0014537297709461229
1387.7346883709226,1387.7346883709226,1.0017465121296083,0.001453769636907983
