time,time,flux,flux_err
1437.9963276702167,1437.9963276702167,0.9998153391023056,0.00028656207115013946
1438.004661134282,1438.004661134282,1.0002875590337403,0.0002862080120592839
1438.0129945986766,1438.0129945986766,1.000200778076209,0.0002857631973445929
1438.0206336079978,1438.0206336079978,0.9996581848028899,0.00026054905454925016
1438.027578162152,1438.027578162152,0.9999688628719555,0.00026032444301594124
1438.0345227164921,1438.0345227164921,0.9994622432520757,0.0002600337745898585
1438.041467271112,1438.041467271112,1.0001680304414031,0.00025984943182274703
1438.0484118258946,1438.0484118258946,1.0001934628343698,0.0002595830393903562
1438.055356380933,1438.055356380933,0.9999179955617219,0.00025935039385213286
1438.0623009361352,1438.0623009361352,0.9999255166778369,0.0002591257191635974
1438.069245491523,1438.069245491523,1.0006336937400142,0.00025905531143625624
1438.0761900471205,1438.0761900471205,0.9996820833582198,0.0002586802058813965
1438.083134602951,1438.083134602951,1.0000770328331727,0.0002584990593385795
1438.090079158968,1438.090079158968,0.999811698938523,0.00025824047976724933
1438.097023715171,1438.097023715171,0.9996001738244423,0.0002580498374604782
1438.1039682715134,1438.1039682715134,1.0002841591661917,0.00025798518674291173
1438.1109128280655,1438.1109128280655,0.9993394014743504,0.0002576912611071541
1438.1178573848506,1438.1178573848506,0.9997942989947699,0.00025758222892634486
1438.1248019417285,1438.1248019417285,0.9998904978601006,0.00025746060373454466
1438.131746498793,1438.131746498793,1.0003053380392157,0.0002573466577703843
1438.1386910560436,1438.1386910560436,1.0005094821534528,0.0002571959650839601
1438.1456356134806,1438.1456356134806,1.0000397272946238,0.00025696746003348324
1438.152580171081,1438.152580171081,1.0001152837757734,0.00025680474043400297
1438.15952472882,1438.15952472882,1.0000109292486494,0.00025665548674257783
1438.1664692867457,1438.1664692867457,1.0003264217305798,0.00025651670472950607
1438.1734138447885,1438.1734138447885,1.0000377882102889,0.00025637148564734794
1438.1803584029938,1438.1803584029938,0.9997049755542481,0.00025615273696946885
1438.1873029613853,1438.1873029613853,0.999501942382856,0.000255988265838644
1438.1942475198935,1438.1942475198935,1.0000917015093804,0.000256017619759105
1438.2011920785874,1438.2011920785874,1.0003338722770034,0.00025585738915782273
1438.208136637375,1438.208136637375,0.9998231570639808,0.0002556387997423079
1438.2150811963484,1438.2150811963484,1.0001261313743846,0.000255592202779432
1438.222025755415,1438.222025755415,1.0000358465057082,0.000255433751352475
1438.2289703146685,1438.2289703146685,0.9999249530149849,0.00025530863555545797
1438.2359148740143,1438.2359148740143,1.0000131372053682,0.0002552630071366589
1438.2428594335004,1438.2428594335004,1.0002243367069987,0.0002551315793092029
1438.249803993103,1438.249803993103,0.9996991654921394,0.0002550653279199998
1438.2567485528446,1438.2567485528446,0.9998657311850401,0.000254980297447977
1438.263693112726,1438.263693112726,1.0001118686689907,0.000254935236435395
1438.2706376727242,1438.2706376727242,0.999919970888018,0.0002547985323790452
1438.2775822327917,1438.2775822327917,0.9999272752782502,0.0002547858659899882
1438.2845267930466,1438.2845267930466,1.000097728620121,0.0002547411599330143
1438.2914713533705,1438.2914713533705,1.0002248882681877,0.0002546661684723354
1438.298415913811,1438.298415913811,0.9999790460524155,0.0002546062335116389
1438.3053604743677,1438.3053604743677,1.0001181119351412,0.00025453238781000906
1438.312305035041,1438.312305035041,1.0003062507398472,0.00025452313718482816
1438.3192495958078,1438.3192495958078,0.9995563900552507,0.0002544165809709238
1438.3261941566439,1438.3261941566439,1.0002009368778735,0.0002543974734155813
1438.3331387176427,1438.3331387176427,0.9994439738339906,0.00025427133831865985
1438.340083278712,1438.340083278712,1.0002333960863226,0.0002542708131008364
1438.3470278398977,1438.3470278398977,1.000224408170578,0.00025426484215717915
1438.3539724011298,1438.3539724011298,0.9999988663259292,0.0002541987870920706
1438.3609169625015,1438.3609169625015,0.9999193723449851,0.0002541457728502792
1438.3678615239198,1438.3678615239198,0.9993418949218441,0.00025395870998018004
1438.374806085478,1438.374806085478,1.0002389035693184,0.00025411478067263824
1438.3817506470825,1438.3817506470825,1.0004186806331108,0.00025405455372473943
1438.3886952088267,1438.3886952088267,1.0000271783680799,0.0002538968760429244
1438.3956397705947,1438.3956397705947,1.0001771559721806,0.00025383909385119494
1438.4025843324785,1438.4025843324785,1.0000913193730976,0.00025383547700886936
1438.4095288944325,1438.4095288944325,0.9998577643961617,0.000253713941807869
1438.4164734564326,1438.4164734564326,1.0000139246620665,0.0002537214764576592
1438.4234180185726,1438.4234180185726,0.9995082255646933,0.00025366095581629607
1438.4303625807363,1438.4303625807363,1.0002285167269618,0.00025372738326525377
1438.4373071429927,1438.4373071429927,0.9997805291242543,0.00025368764586406844
1438.4442517053192,1438.4442517053192,1.0001306373464574,0.00025374310515540756
1438.4511962677157,1438.4511962677157,1.0001116340148835,0.0002537332965071589
1438.4581408301817,1438.4581408301817,0.9997612416844237,0.00025365096141846455
1438.4650853927176,1438.4650853927176,1.0000717036810873,0.0002536376817387898
1438.4720299553228,1438.4720299553228,1.0002436761775741,0.0002537645216534246
1438.4789745179755,1438.4789745179755,0.999875409384259,0.00025361225012580154
1438.4859190806744,1438.4859190806744,0.9999558962787866,0.00025361727146269
1438.4928636434665,1438.4928636434665,1.0000529470475379,0.00025363138524007073
1438.4998082063053,1438.4998082063053,1.0001872182933158,0.00025367313028816453
1438.5067527691904,1438.5067527691904,1.0004833149078651,0.00025370785667803606
1438.5136973321453,1438.5136973321453,1.0000250815980753,0.0002536829025466507
1438.5206418951702,1438.5206418951702,1.0001939673943492,0.00025368440193623316
1438.5275864582186,1438.5275864582186,0.9999079687244758,0.00025368488832192275
1438.5345310213131,1438.5345310213131,0.999680987259428,0.00025360908489056584
1438.5414755845243,1438.5414755845243,0.9998793519351337,0.00025368671337980215
1438.5484201476424,1438.5484201476424,0.9997173426899764,0.00025368024500828086
1438.5553647109932,1438.5553647109932,1.0006642280392541,0.0002537802216008685
1438.5623092742508,1438.5623092742508,0.9998303591402102,0.0002536466947329625
1438.5692538376018,1438.5692538376018,1.0002069496871369,0.00025369071682611045
1438.5761984009991,1438.5761984009991,1.0001259365366058,0.0002537123058801434
1438.5831429644427,1438.5831429644427,0.9999678805203986,0.0002536634061316825
1438.5900875279106,1438.5900875279106,1.0004026136625233,0.00025371944275212773
1438.5970320914244,1438.5970320914244,0.9996843085811902,0.00025375423325046205
1438.603976655008,1438.603976655008,1.0001404393276545,0.00025371294891757463
1438.6109212185686,1438.6109212185686,0.9997594897092998,0.0002536298513872791
1438.6178657822218,1438.6178657822218,1.0000372301028775,0.0002535519091669268
1438.6248103458988,1438.6248103458988,0.9997506603585634,0.0002536919226096623
1438.6317549095986,1438.6317549095986,0.9998483638142932,0.0002536512861241629
1438.6386994733218,1438.6386994733218,0.999978331687544,0.00025369018132451925
1438.6456440371153,1438.6456440371153,1.0003928653816938,0.0002537320944017335
1438.652588600932,1438.652588600932,0.9999634475336487,0.00025374205742533044
1438.6595331647486,1438.6595331647486,1.000322519492439,0.0002537415212814626
1438.6664777285882,1438.6664777285882,1.0001968030388593,0.00025372983238072355
1438.6734222924981,1438.6734222924981,0.9994618625500047,0.0002535740644721118
1438.6803668564075,1438.6803668564075,0.9999847861454855,0.0002536928250511772
1438.6873114203404,1438.6873114203404,0.9999408763020423,0.0002536209337465605
1438.694255984343,1438.694255984343,0.9997546395287877,0.0002536463091046298
1438.7012005482993,1438.7012005482993,1.0003861582017943,0.0002537077366901487
1438.7081451123254,1438.7081451123254,1.0002101031086768,0.00025373216623764984
1438.7150896763746,1438.7150896763746,1.0001810385808654,0.000253699709171799
1438.7220342404476,1438.7220342404476,0.9996552462237643,0.00025367148255890415
1438.7289788045202,1438.7289788045202,1.0000760216656142,0.00025373557712505374
1438.7359233686159,1438.7359233686159,0.9999069994474702,0.0002537171877021227
1438.7428679327586,1438.7428679327586,1.000022257922657,0.0002536959831420502
1438.7498124969006,1438.7498124969006,0.9997618070493044,0.00025367098622058973
1438.7567570610668,1438.7567570610668,0.999876967979683,0.0002536854317959514
1438.7637016252324,1438.7637016252324,0.9999584541528994,0.00025354921140672995
1438.7706461894215,1438.7706461894215,1.000160823231512,0.0002534942997150768
1438.7775907536338,1438.7775907536338,1.000418047628139,0.0002537385332962629
1438.7845353178695,1438.7845353178695,1.0005118514521834,0.000253807099771205
1438.7914798821052,1438.7914798821052,1.0003698391569473,0.00025380471588914245
1438.798424446364,1438.798424446364,0.9996156520302298,0.0002536575971481815
1438.8053690106228,1438.8053690106228,0.999872784620699,0.00025368930229839793
1438.8123135748817,1438.8123135748817,0.9995808176860811,0.0002536465308344355
1438.8192581391643,1438.8192581391643,0.9998102580925783,0.000253702139878921
1438.826202703446,1438.826202703446,1.0000088497395716,0.00025369741701462796
1438.8331472677517,1438.8331472677517,1.0002303197583717,0.00025364722663713914
1438.8400918320804,1438.8400918320804,1.00019654893454,0.0002536657558702392
1438.847036396409,1438.847036396409,1.0004646428777493,0.0002538060859841602
1438.8539809607148,1438.8539809607148,1.000344396404477,0.00025378395486593545
1438.8609255250897,1438.8609255250897,0.9995179625674616,0.0002536414490066661
1438.8678700893722,1438.8678700893722,0.9999526683129588,0.00025368957892479583
1438.8748146537707,1438.8748146537707,0.9997783089302568,0.00025369494762890883
1438.8817592180762,1438.8817592180762,1.000096581998467,0.00025369991426749626
1438.8887037824516,1438.8887037824516,0.9998773558358204,0.00025357457084703567
1438.8956483468498,1438.8956483468498,1.0000787031698544,0.00025355051316264206
1438.9025929111322,1438.9025929111322,1.0002658623005278,0.00025366161361538005
1438.909537475531,1438.909537475531,1.0000919412755096,0.0002536684569005145
1438.9164820399294,1438.9164820399294,0.9999819138180381,0.00025360620944990715
1438.923426604258,1438.923426604258,1.0001903440632212,0.0002537718393956899
1438.9303711686105,1438.9303711686105,0.9998788072230514,0.0002535964224852563
1438.9373157330087,1438.9373157330087,1.0002430210095679,0.0002536918588991741
1438.9442602974077,1438.9442602974077,0.9999827561276625,0.0002537027370439354
1438.9512048616893,1438.9512048616893,0.9999908449946366,0.00025369836804211004
1438.958149426088,1438.958149426088,0.9998723062964995,0.0002535206224355198
1438.9650939904868,1438.9650939904868,0.999937112734897,0.00025369089834534515
1438.9720385547923,1438.9720385547923,0.9997318257953735,0.00025368088337993924
1438.9789831191679,1438.9789831191679,1.0001542262787377,0.0002537503675872803
1438.9859276835427,1438.9859276835427,1.00012215986055,0.00025370199192083036
1438.9928722478485,1438.9928722478485,1.0000673404950777,0.00025368996655935423
1438.999816812247,1438.999816812247,1.000135017911313,0.00025373631295017046
1439.0067613765293,1439.0067613765293,0.9998237521283775,0.0002536328888342467
1439.0137059409044,1439.0137059409044,1.0001582739421404,0.0002536683165561184
1439.0206505052101,1439.0206505052101,1.0001674726786018,0.00025367358692197147
1439.0275950695154,1439.0275950695154,1.0000571828735494,0.00025365602080885057
1439.0345396338444,1439.0345396338444,0.9999125502038156,0.0002536271997212046
1439.0414841981499,1439.0414841981499,0.9995027917419211,0.0002536436606849057
1439.048428762455,1439.048428762455,1.0000418554355839,0.00025365203470279293
1439.0553733267375,1439.0553733267375,0.9999537087923223,0.0002537060374535095
1439.0623178910196,1439.0623178910196,1.0004810504256154,0.00025376208440766785
1439.0692624552785,1439.0692624552785,1.00019606419667,0.0002537279408749982
1439.0762070195606,1439.0762070195606,0.9994871441208095,0.0002536428527971977
1439.0831515837963,1439.0831515837963,0.9997089660820077,0.0002536612038812031
1439.0900961480554,1439.0900961480554,1.000431272394183,0.00025374647125430436
1439.0970407122677,1439.0970407122677,0.9999819507871421,0.00025372774582881963
1439.103985276503,1439.103985276503,1.0004278124526298,0.0002537321048228791
1439.110929840716,1439.110929840716,0.9997373195661844,0.0002536184539964579
1439.1178744049043,1439.1178744049043,1.00000228412687,0.00025367283385404807
1439.1248189690937,1439.1248189690937,1.000341567007609,0.0002536882612951386
1439.1317635332593,1439.1317635332593,1.0000843977152236,0.0002536468377079862
1439.1387080974253,1439.1387080974253,0.9999815693988943,0.0002536467422037076
1439.145652661568,1439.145652661568,0.9998784005448282,0.0002536828353383663
1439.152597225687,1439.152597225687,1.0001483845840944,0.00025361852563421074
1439.1595417898293,1439.1595417898293,1.0000190734310253,0.0002536794786507083
1439.1664863539252,1439.1664863539252,1.0001764213228561,0.00025374128290401156
1439.1734309179978,1439.1734309179978,1.000174750451013,0.00025363439771220993
1439.1803754820937,1439.1803754820937,0.9996396339378834,0.0002536723158219598
1439.1873200461432,1439.1873200461432,0.9998712632988962,0.00025368238717742665
1439.1942646101693,1439.1942646101693,1.0002573225119629,0.0002536852192852545
1439.201209174219,1439.201209174219,0.9999911405419158,0.00025370841102977375
1439.2081537382214,1439.2081537382214,1.0001499260732292,0.00025374782239125034
1439.2150983022007,1439.2150983022007,1.0001254989941435,0.00025379651096152714
1439.2220428661808,1439.2220428661808,0.9997925374596692,0.000253704759353766
1439.2289874301368,1439.2289874301368,1.000055519788107,0.0002536526482530245
1439.2359319940929,1439.2359319940929,1.0003086214028614,0.0002537385440210487
1439.242876558003,1439.242876558003,1.0000666268712226,0.00025369943372453163
1439.2498211219122,1439.2498211219122,0.9996532129168834,0.00025362987489935653
1439.2567656857989,1439.2567656857989,0.9999508629013011,0.0002536604961776665
1439.263710249662,1439.263710249662,1.0001946045146275,0.0002537268285258365
1439.270654813548,1439.270654813548,0.9998108508236829,0.0002536311698513508
1439.2775993773648,1439.2775993773648,1.0004382722848206,0.00025378004279399626
1439.284543941181,1439.284543941181,1.000109025919412,0.0002536995588663431
1439.2914885049745,1439.2914885049745,1.0000242787412117,0.00025373064783154565
1439.2984330686977,1439.2984330686977,0.9999689110035748,0.0002536590982028018
1439.3053776324678,1439.3053776324678,0.9996660619544955,0.0002535623431995661
1439.3123221962146,1439.3123221962146,1.0000317288600482,0.00025370944689897455
1439.3192667599149,1439.3192667599149,0.9999577104035537,0.0002536476745112978
1439.3262113235915,1439.3262113235915,0.9999255814931101,0.0002536013599540793
1439.3331558872685,1439.3331558872685,1.0001774524828837,0.0002536806000227384
1439.3401004508985,1439.3401004508985,0.9999221599673754,0.00025366897275181424
1439.347045014529,1439.347045014529,1.0002771196946805,0.0002537103967849866
1439.3539895781357,1439.3539895781357,1.0000998803353534,0.000253722973487516
1439.3609341416964,1439.3609341416964,0.9998114314983966,0.0002535781291264116
1439.367878705257,1439.367878705257,0.9998032045439121,0.00025360987141608986
1439.374823268794,1439.374823268794,1.0000933166045043,0.00025374970233883016
1439.3817678323076,1439.3817678323076,1.0001226338963949,0.0002536945878155077
1439.388712395775,1439.388712395775,0.9999061630501072,0.0002536584379762564
1439.3956569592656,1439.3956569592656,0.9996990190927258,0.00025365357307097203
1439.4026015226864,1439.4026015226864,1.0000857105654786,0.0002536419577793358
1439.409546086107,1439.409546086107,1.0003445055599376,0.00025374782429487126
1439.4164906494811,1439.4164906494811,0.9999390709470537,0.0002536788297288263
1439.423435212879,1439.423435212879,1.000008220016535,0.0002536341244102095
1439.4303797762063,1439.4303797762063,0.999828740547029,0.0002536210570240661
1439.4373243395337,1439.4373243395337,1.000235591739485,0.0002537117383277994
1439.4442689027915,1439.4442689027915,1.000093614202671,0.0002537344384376918
1439.4512134661193,1439.4512134661193,0.9993157814665017,0.00025361277134761204
1439.458158029377,1439.458158029377,1.0000745569716742,0.0002536657737981951
1439.4651025925416,1439.4651025925416,1.0003247148684644,0.00025376186961679955
1439.4720471557296,1439.4720471557296,0.999837533293551,0.0002537007551648274
1439.4789917189175,1439.4789917189175,1.0001789463008823,0.0002536598723751652
1439.485936282059,1439.485936282059,1.0003462103458802,0.00025373442916752685
1439.4928808451534,1439.4928808451534,0.9997798761778176,0.0002536491568908809
1439.4998254082482,1439.4998254082482,0.9998325842096027,0.0002537110772561145
1439.5067699713197,1439.5067699713197,1.0002829166921356,0.00025376622018506766
1439.5137145343444,1439.5137145343444,1.0005370984333877,0.00025370256393158824
1439.5206590973462,1439.5206590973462,0.9995863793912102,0.00025360832951488234
1439.5276036603477,1439.5276036603477,1.0000071666365875,0.0002536656527500847
1439.5345482233029,1439.5345482233029,0.9999084254002731,0.00025363173472377914
1439.5414927862116,1439.5414927862116,1.0005357710406115,0.0002537302037466657
1439.54843734912,1439.54843734912,1.0000084835257141,0.0002537117350004736
1439.5553819119818,1439.5553819119818,1.0004451362012055,0.0002537984125106346
1439.5623264748206,1439.5623264748206,0.9998708571340156,0.00025370961544409935
1439.5692710376593,1439.5692710376593,0.9998945845941869,0.00025364121894723077
1439.576215600428,1439.576215600428,1.0002576638146552,0.0002537181023751627
1439.5831601631735,1439.5831601631735,1.0001182608297237,0.00025369895842868907
1439.5901047259424,1439.5901047259424,0.9995411892343993,0.0002536734445880904
1439.597049288595,1439.597049288595,0.9999478575453041,0.0002537706602135744
1439.6039938512472,1439.6039938512472,0.9998094757585335,0.0002536782283521902
1439.6109384138995,1439.6109384138995,0.9997891372521636,0.00025370162669386277
1439.617882976552,1439.617882976552,1.0000439509194659,0.000253707668986121
1439.6248275391347,1439.6248275391347,1.0003186670752118,0.0002537340053171931
1439.6317721016937,1439.6317721016937,1.00002725136665,0.0002537048891368745
1439.6387166642296,1439.6387166642296,1.000290959126654,0.0002538064636287986
1439.645661226719,1439.645661226719,1.0002124503442387,0.00025375860861736097
1439.6526057891856,1439.6526057891856,0.999801230021564,0.0002536467537755249
1439.659550351628,1439.659550351628,0.9998618090975537,0.00025364098052509836
1439.6664949140481,1439.6664949140481,0.9997098951121537,0.00025360229088555855
1439.6734394763976,1439.6734394763976,1.000102790695101,0.0002537366925994578
1439.6803840387706,1439.6803840387706,0.9997051268972351,0.00025363632650293413
1439.6873286010737,1439.6873286010737,1.0004288899118419,0.00025375635086965804
1439.6942731633533,1439.6942731633533,1.000098337311928,0.0002537152822891423
1439.7012177256333,1439.7012177256333,0.999902057360193,0.0002537081353285983
1439.7081622878434,1439.7081622878434,0.9999836889257032,0.00025367296924915363
1439.7151068500302,1439.7151068500302,1.000013054428496,0.0002537331590931712
1439.7220514121939,1439.7220514121939,1.0002438073572821,0.0002537818573697424
1439.7289959743337,1439.7289959743337,0.9998842774288429,0.00025371463801865537
1439.735940536404,1439.735940536404,0.999909847910315,0.00025367905853408137
1439.7428850984743,1439.7428850984743,1.0000130673848662,0.00025373916606022444
1439.7498296605445,1439.7498296605445,1.0002734046323831,0.00025378311620115714
