time,time,flux,flux_err
1410.9115319992509,1410.9115319992509,0.9997302579482349,0.00011675145765669395
1410.9191711671403,1410.9191711671403,0.9996856279718894,0.00010657174571172656
1410.9261158649738,1410.9261158649738,0.9996820173766153,0.00010657009374035458
1410.9330605625266,1410.9330605625266,0.9999926596478919,0.0001065787364774302
1410.9400052598942,1410.9400052598942,1.0000687085556093,0.00010656698307604559
1410.9469499570748,1410.9469499570748,1.0002820315806733,0.00010658008133283478
1410.953894653976,1410.953894653976,1.000006601550435,0.0001065496061552282
1410.960839350506,1410.960839350506,1.0001599624784079,0.0001065606387219001
1410.96917298634,1410.96917298634,1.000290966617571,0.00010651402327706558
1410.9852846812628,1410.9852846812628,0.9997025543948261,0.00010645247966103019
1410.9927849526762,1410.9927849526762,1.0000248923406267,0.00010648811672952549
1411.0025075262333,1411.0025075262333,0.9993079981928201,0.00010643916859263896
1411.0122300993255,1411.0122300993255,1.0001307067871505,0.0001065051090448889
1411.0191747941778,1411.0191747941778,0.9998358459940336,0.000106472968886452
1411.026119488658,1411.026119488658,0.9998417745067674,0.00010647348316968873
1411.0330641832315,1411.0330641832315,1.0000088145634043,0.00010647368368868833
1411.040008877245,1411.040008877245,1.0000842837975656,0.00010647639100735795
1411.0469535711673,1411.0469535711673,1.0000982796648994,0.00010647586683853807
1411.0550094156945,1411.0550094156945,1.0000043359060677,0.00010645769496356776
1411.0622318969183,1411.0622318969183,1.0000660597558613,0.00010646328543597176
1411.0691765901875,1411.0691765901875,1.0000696789408259,0.00010646342716910681
1411.0761212829912,1411.0761212829912,0.9998692897320443,0.00010645845274543641
1411.0830659757023,1411.0830659757023,1.0001465725545722,0.0001064725406076417
1411.0900106682261,1411.0900106682261,0.9999517168829817,0.00010643992434909155
1411.0969553605644,1411.0969553605644,1.0000393978088402,0.00010646427693820962
1411.103900052437,1411.103900052437,0.9999023407494784,0.00010647018577610978
1411.110844744309,1411.110844744309,0.9998887211712116,0.00010643941504455939
1411.1177894359957,1411.1177894359957,0.9999671803263983,0.00010644207992258265
1411.1247341273086,1411.1247341273086,1.0001293040698362,0.00010646036121188512
1411.1316788184363,1411.1316788184363,1.0001815502714995,0.00010642195753148045
1411.1386235093773,1411.1386235093773,0.9999663271902373,0.00010644326490473144
1411.1455682000385,1411.1455682000385,0.9999190064575437,0.00010642636414632995
1411.1525128905148,1411.1525128905148,1.0000086215138069,0.00010643318567935095
1411.1594575807098,1411.1594575807098,0.9997967539193133,0.00010640211893792348
1411.1664022707205,1411.1664022707205,1.0001503794198612,0.00010643764426334185
1411.1733469604505,1411.1733469604505,0.9999950467339709,0.00010638917175599888
1411.1802916499942,1411.1802916499942,0.9998922669942575,0.00010641342736745838
1411.187236339446,1411.187236339446,1.0001330462412832,0.00010641358280793169
1411.1941810284309,1411.1941810284309,1.0001467422822685,0.00010643445713097975
1411.201125717416,1411.201125717416,1.000228303759867,0.00010643496393973751
1411.2080704059358,1411.2080704059358,0.9997721548297825,0.00010640920274320003
1411.215015094362,1411.215015094362,0.9997432192711593,0.00010639684345697788
1411.2219597826029,1411.2219597826029,0.9998897902093242,0.00010639496765554135
1411.228904470563,1411.228904470563,0.9998675731802106,0.00010641186126962233
1411.235849158338,1411.235849158338,0.9999192005262613,0.00010639580281707817
1411.2427938458334,1411.2427938458334,1.0001842141139927,0.00010641436098914518
1411.249738533328,1411.249738533328,0.9999890468823092,0.00010642599808982358
1411.256683220079,1411.256683220079,1.000073745213928,0.00010642065687827112
1411.263627907108,1411.263627907108,1.0000057145200087,0.00010642124581173862
1411.2705725937653,1411.2705725937653,0.9999346852368778,0.00010641807156172672
1411.2775172801425,1411.2775172801425,0.9999977625228393,0.00010639291219761479
1411.2844619662405,1411.2844619662405,1.000048241538617,0.00010639906502128365
1411.2914066522458,1411.2914066522458,1.0002672595147797,0.00010640137346623458
1411.2983513379713,1411.2983513379713,1.000018810313604,0.00010641824747320374
1411.3052960235111,1411.3052960235111,0.9998976826112849,0.00010640149985108519
1411.312240708771,1411.312240708771,0.999824581566814,0.00010641883741240282
1411.3191853938447,1411.3191853938447,0.9998446557064714,0.00010640770360448355
1411.3261300787326,1411.3261300787326,0.99989130211525,0.00010641834400766828
1411.3330747633402,1411.3330747633402,1.0001860081788247,0.0001064123190856098
1411.3400194477622,1411.3400194477622,0.9997587741857215,0.00010638536640765687
1411.3469641319975,1411.3469641319975,1.000000952414768,0.00010641667308454567
1411.3539088158607,1411.3539088158607,1.0001562680054465,0.00010642908174131063
1411.3608534996308,1411.3608534996308,1.0001440296150905,0.00010641240291360649
1411.3677981832138,1411.3677981832138,0.9998922136676432,0.00010638695597528619
1411.3747428665188,1411.3747428665188,0.9999092612327074,0.00010640076875090638
1411.3816875496364,1411.3816875496364,0.9999042611289827,0.00010642534839974498
1411.388632232475,1411.388632232475,1.0002535758062325,0.00010642150790414118
1411.3955769150343,1411.3955769150343,0.9999242341773398,0.00010640387116691189
1411.402521597593,1411.402521597593,0.9998887329087071,0.00010638846457858944
1411.4094662797802,1411.4094662797802,1.000136911695653,0.00010640775394910283
1411.4164109618737,1411.4164109618737,0.9999787122962545,0.0001064085145097083
1411.4233556435945,1411.4233556435945,0.9999583056793704,0.00010638408094635479
1411.4303003251293,1411.4303003251293,0.9999059752750998,0.00010639845896951949
1411.4372450065703,1411.4372450065703,0.9998742597713093,0.00010640050313269145
1411.4441896876401,1411.4441896876401,1.000059904263447,0.00010638322095540491
1411.4511343687086,1411.4511343687086,0.9998908566902642,0.00010637616398299342
1411.4580790493121,1411.4580790493121,0.9999074528197864,0.00010639812391924541
1411.465023729916,1411.465023729916,1.0000327136386835,0.00010640972712183288
1411.4719684101462,1411.4719684101462,0.999928385051468,0.00010637340002810792
1411.478913090285,1411.478913090285,1.0001434912044658,0.0001063949417220322
1411.4858577701427,1411.4858577701427,1.0002631662786075,0.00010640390525512176
1411.492802449722,1411.492802449722,0.9998738696488191,0.00010640178108529272
1411.4997471292077,1411.4997471292077,0.999973955861331,0.00010640936514306105
1411.5066918084135,1411.5066918084135,0.9998258557360626,0.00010639540208417612
1411.513636487434,1411.513636487434,1.0000465392975704,0.00010638964107883126
1411.520581166361,1411.520581166361,0.999998975406211,0.00010637472682402914
1411.5275258449158,1411.5275258449158,0.9999896214653411,0.000106393230116446
1411.534470523284,1411.534470523284,0.9998898129968182,0.00010638650221377188
1411.5414152013725,1411.5414152013725,1.0000143779891042,0.00010638041691365554
1411.5483598796482,1411.5483598796482,1.0000862857106543,0.00010636327714034813
1411.5553045570846,1411.5553045570846,0.9998750869432819,0.00010636129888425619
1411.5622492348014,1411.5622492348014,1.000073760010421,0.00010638677943319963
1411.5691939121446,1411.5691939121446,0.9998943261727457,0.00010635408393891786
1411.5761385892092,1411.5761385892092,1.0002356292169883,0.0001063804451234249
1411.5830832662737,1411.5830832662737,1.0000895884476688,0.00010637140329859584
1411.590027942965,1411.590027942965,1.0001124629216227,0.0001063896517206545
1411.5969726194714,1411.5969726194714,0.9999740101563951,0.00010638856779258907
1411.6039172956966,1411.6039172956966,0.9998520876664134,0.00010638784972201711
1411.6108619719237,1411.6108619719237,1.0000155219764681,0.00010639233098576231
1411.61780664787,1411.61780664787,0.9999007332648787,0.00010639413919839283
1411.624751323537,1411.624751323537,1.0001104361057305,0.00010639540460758088
1411.6316959991123,1411.6316959991123,0.9999306751948955,0.00010641267503012565
1411.6386406742204,1411.6386406742204,0.9998861062705219,0.00010640202361270842
1411.6455853494222,1411.6455853494222,1.0000795161060343,0.00010640135642974892
1411.6525300242515,1411.6525300242515,0.99987268146242,0.00010639517762130811
1411.6594746989872,1411.6594746989872,1.000049873967084,0.00010641413040829912
1411.6664193733511,1411.6664193733511,1.0001129852231412,0.0001064202358739528
1411.6733640477141,1411.6733640477141,0.9998563770762189,0.00010639454802711704
1411.6803087217988,1411.6803087217988,0.9999854779106785,0.0001063958421945551
1411.6872533956966,1411.6872533956966,1.00012121565304,0.00010638532033956769
1411.6941980694082,1411.6941980694082,1.0000597505539248,0.00010639938640168208
1411.7011427427476,1411.7011427427476,0.9999223267039913,0.00010639183329382704
1411.708087415993,1411.708087415993,1.0000206138182488,0.00010638776251734549
1411.7150320892397,1411.7150320892397,0.9999611270104605,0.00010637549965661529
1411.7219767621125,1411.7219767621125,0.9999960726967329,0.0001063979384206125
1411.7289214347998,1411.7289214347998,1.0000722948455985,0.0001063942094345685
1411.7358661073006,1411.7358661073006,1.0001354028059755,0.00010639510554955227
1411.7428107795222,1411.7428107795222,0.9999889322410069,0.00010638154604285493
1411.7497554516508,1411.7497554516508,0.9999366763441101,0.00010639067723220452
1411.7567001235925,1411.7567001235925,0.9998834222251298,0.00010639172481567762
1411.763644795256,1411.763644795256,1.0000499937174312,0.00010640787673876736
1411.770589466732,1411.770589466732,0.9999171298424898,0.00010640597340307214
1411.7775341381155,1411.7775341381155,0.9999760025153067,0.00010639416938654923
1411.784478809126,1411.784478809126,1.000110728954299,0.00010641853184253586
1411.7914234800432,1411.7914234800432,1.0000019782946756,0.00010641600051221598
1411.7983681508686,1411.7983681508686,1.0000976887009763,0.00010641950191308985
1411.80531282132,1411.80531282132,0.9999456191675936,0.00010642271525869859
1411.8122574916792,1411.8122574916792,1.000193119589977,0.00010640934699880869
1411.819202161852,1411.819202161852,0.9999026654023083,0.00010641044952207201
1411.8261468317446,1411.8261468317446,0.99980487379284,0.00010640217617249119
1411.8330915015456,1411.8330915015456,1.0000163105465514,0.00010641998863647763
1411.8400361711585,1411.8400361711585,1.0000427871938222,0.00010639741618143791
1411.8469808405869,1411.8469808405869,0.9998420669950091,0.0001064022093787094
1411.8539255097344,1411.8539255097344,0.9999657136987661,0.00010641561422927201
1411.8608701786964,1411.8608701786964,1.000095001325588,0.00010642492185327207
1411.8678148475653,1411.8678148475653,1.0001262612147428,0.00010641366884099782
1411.8747595161542,1411.8747595161542,0.9998296238326345,0.00010640148135243805
1411.881704184558,1411.881704184558,1.0000211179739207,0.00010639934703676901
1411.8886488527742,1411.8886488527742,1.0001774117207407,0.00010641272154244362
1411.8955935208055,1411.8955935208055,0.999962170756611,0.00010640841879363599
1411.902538188649,1411.902538188649,1.0001102513994615,0.0001064127316728946
1411.9094828564007,1411.9094828564007,0.9999524573118961,0.0001063892004887147
1411.9164275238725,1411.9164275238725,0.9997736897355629,0.00010638021667900348
1411.9233721911578,1411.9233721911578,1.0000508515818,0.0001063854850317804
1411.9303168581644,1411.9303168581644,1.0001216285580963,0.00010640523635284629
1411.93726152517,1411.93726152517,0.9999995951746474,0.0001063956263152195
1411.944206191804,1411.944206191804,1.0000705392187352,0.00010638717370889004
1411.9511508585304,1411.9511508585304,0.9999090122377782,0.00010638981747973072
1411.9580955247911,1411.9580955247911,0.9998001239080331,0.00010638960937090175
1411.9650401910526,1411.9650401910526,0.9999357028296517,0.00010639556841786708
1411.9719848569407,1411.9719848569407,1.0001724180470666,0.00010639899766262618
1411.9789295228297,1411.9789295228297,1.0000842453639076,0.00010639110986993714
1411.9858741884386,1411.9858741884386,1.0000016418058604,0.00010638921442714992
1411.9928188538618,1411.9928188538618,0.9998833527583875,0.00010639278961762353
1411.9997635190985,1411.9997635190985,1.000026042898703,0.00010637453296749469
1412.0067081841485,1412.0067081841485,1.0000680121519827,0.00010641042283641884
1412.0136528491062,1412.0136528491062,1.000113415182227,0.00010640287424020166
1412.020597513783,1412.020597513783,1.0000685149310358,0.00010640640470240086
1412.0275421782753,1412.0275421782753,0.9999718586570264,0.00010640674926579514
1412.0344868425802,1412.0344868425802,0.9999348628354925,0.00010638967410401335
1412.0414315068856,1412.0414315068856,0.9998531935116693,0.00010638601361576992
1412.0483761708185,1412.0483761708185,1.000017309416762,0.00010636241595509911
1412.0553208346578,1412.0553208346578,1.0000009046569844,0.00010640486149460025
1412.0622654982187,1412.0622654982187,0.9998396938963328,0.000106393470764646
1412.0692101615919,1412.0692101615919,1.0001259762178845,0.0001064098359076431
1412.0761548249668,1412.0761548249668,1.0000522624810302,0.00010641867204218417
1412.0830994880605,1412.0830994880605,1.0000804071982095,0.00010640483756633875
1412.090044150969,1412.090044150969,0.9999644037751411,0.00010639184698300617
1412.096988813598,1412.096988813598,0.9999712386544417,0.00010639399832849329
1412.1039334762265,1412.1039334762265,1.0000676652193363,0.00010640688207976228
1412.110878138577,1412.110878138577,1.000042713401721,0.00010640452255228907
1412.1178228007395,1412.1178228007395,0.9998843084062232,0.00010640171502971217
1412.1247674628098,1412.1247674628098,0.999968236851657,0.00010640176314169606
1412.1317121245072,1412.1317121245072,0.9999034026660765,0.00010639288168002366
1412.1386567861118,1412.1386567861118,1.0000122619595702,0.00010639583397209101
1412.1456014477164,1412.1456014477164,1.0001805066655585,0.00010638503592082621
1412.1525461091342,1412.1525461091342,1.0000343115530268,0.00010639829447614261
1412.1594907702734,1412.1594907702734,0.9999021393452867,0.00010639255617989902
1412.1664354312256,1412.1664354312256,0.9998814477452601,0.00010639267049987014
1412.1733800919922,1412.1733800919922,1.0001272434956237,0.00010640204979081789
1412.1803247525718,1412.1803247525718,0.9999767366964891,0.00010639195686098941
1412.1872694130589,1412.1872694130589,0.9999255199044661,0.0001064124130759707
1412.1942140733595,1412.1942140733595,1.000133602322043,0.00010641321599537102
1412.2011587333802,1412.2011587333802,1.000005428553377,0.00010640226396041496
1412.208103393402,1412.208103393402,1.0000723399458271,0.00010641608689445498
1412.2150480530502,1412.2150480530502,0.9999311844448986,0.00010640496558524687
1412.2219927127924,1412.2219927127924,0.9998760367771709,0.00010640428638093004
1412.2289373720685,1412.2289373720685,1.000035932389821,0.000106409509231514
1412.2358820313445,1412.2358820313445,1.0000865794450944,0.00010641819450834354
1412.2428266903416,1412.2428266903416,0.9999358270416396,0.00010639453075362131
1412.2497713492444,1412.2497713492444,0.9999362082400474,0.00010639695001521342
1412.2575493670756,1412.2575493670756,1.0000118344656304,0.00010638800892371872
1412.2661607434602,1412.2661607434602,1.0000522179175015,0.00010631872091357087
1412.2761610515142,1412.2761610515142,1.0000746720210156,0.00010634793735984228
1412.2875502905856,1412.2875502905856,0.9991736148557481,0.00010632295535257112
1412.2956060936685,1412.2956060936685,0.99994747494356,0.00010633938642666031
1412.3025507512689,1412.3025507512689,1.000109621225669,0.00010638225928930266
1412.309495408682,1412.309495408682,0.9999174775085585,0.00010636359090595794
1412.3164400659093,1412.3164400659093,0.9998653117595184,0.00010636209802114844
1412.3233847228573,1412.3233847228573,0.9999241452275358,0.0001063821264566171
1412.3303293798049,1412.3303293798049,1.0000636170366488,0.00010634321403264107
1412.3372740367533,1412.3372740367533,1.0002499149286572,0.00010640679964997991
1412.3442186932348,1412.3442186932348,1.000107312606562,0.0001063813682514842
1412.3511633496246,1412.3511633496246,1.0000841952819701,0.00010634798552583724
1412.3581080060128,1412.3581080060128,1.0001542499642022,0.0001063554707210922
1412.36505266203,1412.36505266203,0.9999962865476029,0.0001063412868863343
1412.3719973179532,1412.3719973179532,0.9999079890404932,0.00010636621586609524
1412.3789419736902,1412.3789419736902,1.000042648006524,0.00010639644792421637
1412.3858866293344,1412.3858866293344,0.99971895062573,0.00010637485792750006
1412.3928312846986,1412.3928312846986,0.9998003632537575,0.00010639094680371086
1412.399775940064,1412.399775940064,1.000108810620528,0.00010640342646601787
1412.4067205950555,1412.4067205950555,0.9999363860091114,0.00010638247295370795
1412.4136652501409,1412.4136652501409,1.000152327338656,0.00010637025773487205
1412.42060990476,1412.42060990476,1.0003514084976346,0.00010637389037179365
1412.4275545593798,1412.4275545593798,0.9998927556313093,0.00010639856742412858
1412.4344992139995,1412.4344992139995,1.0001858155062755,0.00010641773023177729
1412.441443868153,1412.441443868153,0.9997623623656995,0.00010639791715441764
1412.4483885222144,1412.4483885222144,1.000083477091083,0.00010638516413499061
1412.4553331762747,1412.4553331762747,0.9999094735196202,0.00010638411739565276
1412.4622778300563,1412.4622778300563,1.000016122602776,0.00010635474133952475
1412.4692224837443,1412.4692224837443,0.9999100400613743,0.00010636462639910071
1412.4761671371532,1412.4761671371532,1.0001980937973312,0.00010637641096266827
1412.4831117904687,1412.4831117904687,0.9999631517252169,0.00010633244482293005
1412.490056443598,1412.490056443598,0.9999190387132574,0.00010640219487052136
1412.4970010965417,1412.4970010965417,0.9999611492413736,0.0001064036966664474
1412.503945749391,1412.503945749391,1.0000134569456534,0.0001063744406296324
1412.5108904020558,1412.5108904020558,1.0001788785859984,0.00010641354001408796
1412.5178350545327,1412.5178350545327,1.0000123163917136,0.00010640270443818484
1412.5247797068241,1412.5247797068241,0.9999362525932023,0.00010641616109182776
1412.5317243591155,1412.5317243591155,1.0001607564070398,0.00010642643455535202
1412.5386690111268,1412.5386690111268,0.9999864906765948,0.0001064147018481419
1412.5456136629527,1412.5456136629527,0.9997358935864167,0.00010640286652332085
1412.5525583147778,1412.5525583147778,0.9999116645918191,0.00010640294599869392
1412.5595029662313,1412.5595029662313,0.9998832904767191,0.00010641134640776479
1412.5664476176842,1412.5664476176842,1.000093768517667,0.00010641313544459887
1412.573392268765,1412.573392268765,1.000052672766483,0.00010641470766923873
1412.5803369199384,1412.5803369199384,1.0001079676310092,0.00010641747923335941
1412.587281570833,1412.587281570833,0.9999899232908405,0.00010640894837482954
1412.5942262216342,1412.5942262216342,1.000267397620479,0.00010642473931126678
1412.6011708721555,1412.6011708721555,0.9997694103926984,0.0001063899850543993
1412.6081155226777,1412.6081155226777,1.000179485798046,0.00010640604554286285
1412.6150601730124,1412.6150601730124,0.999912947048478,0.0001064056738969178
1412.6220048230691,1412.6220048230691,0.9997968426430915,0.0001063941861860892
1412.6289494730315,1412.6289494730315,1.0001901566487486,0.00010637684549409756
1412.6358941229946,1412.6358941229946,0.9998962343125865,0.00010640652844003024
1412.6428387724923,1412.6428387724923,0.9999968552825862,0.00010641322275219142
1412.6497834220825,1412.6497834220825,0.9998870543777899,0.00010641429529144946
1412.656728071394,1412.656728071394,1.0000051689130056,0.00010642848128310585
1412.663672720611,1412.663672720611,1.0002251222382834,0.00010644100029260778
1412.6706173696434,1412.6706173696434,0.9999132667504487,0.00010643122288150521
1412.677562018488,1412.677562018488,0.9998815073940607,0.0001064217137492734
1412.6845066672408,1412.6845066672408,1.0001081024722456,0.00010639788411967696
