time,time,flux,flux_err
1325.2983918555913,1325.2983918555913,0.9999346129551845,0.0005862987125053792
1325.3067252850794,1325.3067252850794,1.0006359218997403,0.0005867247609435175
1325.314364262335,1325.314364262335,0.999983941608258,0.0005357730561211906
1325.321308787336,1325.321308787336,0.9995966199875447,0.0005359777175046623
1325.3282533125227,1325.3282533125227,0.9998467706568507,0.0005363222495374613
1325.335197837873,1325.335197837873,0.9998674053390877,0.0005366360098608332
1325.342142363433,1325.342142363433,0.9999761064026181,0.0005372276010147002
1325.3490868891436,1325.3490868891436,0.9992837533253836,0.0005374277671542271
1325.3560314150527,1325.3560314150527,1.0006349210924657,0.0005383188462466594
1325.3629759411244,1325.3629759411244,0.9992485017690967,0.0005385190876523856
1325.3699204673594,1325.3699204673594,1.000618239480733,0.0005392130853604611
1325.376864993792,1325.376864993792,0.9996686127835087,0.0005395811987465869
1325.3838095203764,1325.3838095203764,1.0007833975645952,0.0005403382896908858
1325.3907540471232,1325.3907540471232,0.9997552021825047,0.0005405331690125953
1325.3976985740446,1325.3976985740446,1.000833635179173,0.0005412272212785426
1325.4046431011416,1325.4046431011416,0.9992611125821226,0.0005415158834910892
1325.411587628377,1325.411587628377,0.9998685295631822,0.0005420892204532217
1325.4185321557882,1325.4185321557882,0.99972748951112,0.0005425353543718882
1325.4254766833383,1325.4254766833383,1.0004441441800649,0.000543102242952906
1325.432421211063,1325.432421211063,1.0000248523102055,0.0005434566643343927
1325.439365738928,1325.439365738928,0.999661659466426,0.000543886435468827
1325.4463102669322,1325.4463102669322,1.0001917520163488,0.0005443850079681845
1325.4532547951112,1325.4532547951112,0.9999032978613908,0.0005447682360424226
1325.460199323418,1325.460199323418,0.9995765563665545,0.0005451444053222607
1325.4671438518878,1325.4671438518878,0.999951032769736,0.0005456101361831283
1325.4740883804982,1325.4740883804982,1.000707810259921,0.0005462168465973493
1325.4810329092472,1325.4810329092472,0.999834318409901,0.0005466482169082975
1325.4879774381366,1325.4879774381366,1.0000875820573725,0.000547247433201799
1325.494921967154,1325.494921967154,0.9998023544256147,0.000547656136825428
1325.5018664963452,1325.5018664963452,1.000122796701336,0.0005484228178079288
1325.5088110256306,1325.5088110256306,0.999896189210091,0.0005488646020898583
1325.515755555055,1325.515755555055,0.9998747578453354,0.0005494247158671665
1325.5227000846194,1325.5227000846194,0.9995932129539223,0.0005499856754948902
1325.5296446143116,1325.5296446143116,1.0000844680672836,0.0005506538050901631
1325.5365891441322,1325.5365891441322,1.000453002467602,0.0005515014757894041
1325.5435336740807,1325.5435336740807,0.9999511901519627,0.0005519467693064029
1325.5504782041571,1325.5504782041571,1.000740954322775,0.000552754873683041
1325.5574227343502,1325.5574227343502,0.9991101979051882,0.0005531022306021712
1325.5643672646713,1325.5643672646713,1.0003149138990448,0.000553841219920467
1325.571311795097,1325.571311795097,1.0004479804660362,0.0005545678764153901
1325.578256325663,1325.578256325663,0.9999198664584746,0.0005548680880775443
1325.5852008563445,1325.5852008563445,0.9998129202319144,0.0005555713708274378
1325.592145387131,1325.592145387131,0.9992897693283137,0.0005559563485077785
1325.5990899180226,1325.5990899180226,0.999433769205727,0.0005566729852905432
1325.606034449042,1325.606034449042,1.0005853926395383,0.0005571637202850566
1325.612978980178,1325.612978980178,1.0004654991321795,0.0005576802485936048
1325.6199235113957,1325.6199235113957,1.0010682779876214,0.0005580819687223944
1325.6268680427643,1325.6268680427643,0.9988973549343338,0.0005580348990323396
1325.6338125742027,1325.6338125742027,1.000310985501462,0.0005583844735998218
1325.6407571057582,1325.6407571057582,0.9997089243673057,0.0005585700052519822
1325.6477016374292,1325.6477016374292,1.0000343373236356,0.0005589042279125284
1325.6546461691823,1325.6546461691823,0.9991201197738848,0.0005589690854602477
1325.6615907010514,1325.6615907010514,0.9997118629834475,0.0005593318924426887
1325.668535233026,1325.668535233026,1.000628428734066,0.0005597365613275328
1325.6754797650813,1325.6754797650813,1.0012893222189219,0.0005602098417576551
1325.682424297242,1325.682424297242,0.9997364096394368,0.0005602182716996703
1325.689368829507,1325.689368829507,1.0000814101743754,0.0005607107716631755
1325.6963133618535,1325.6963133618535,0.9993168534339281,0.000560905546670788
1325.7032578942938,1325.7032578942938,0.9996011571517233,0.0005614572411661147
1325.7102024268265,1325.7102024268265,0.9999870414205964,0.000562020831585907
1325.7171469594641,1325.7171469594641,0.9999707645295042,0.0005626619430557239
1325.7240914921717,1325.7240914921717,1.00056831294223,0.0005632062744750609
1325.7310360249953,1325.7310360249953,0.9998035438489129,0.0005635109108118616
1325.7379805578778,1325.7379805578778,1.0010645639467515,0.0005644031831867781
1325.7449250908762,1325.7449250908762,0.9988616951255915,0.0005646296351484232
1325.7518696239213,1325.7518696239213,0.999746580421548,0.0005653465953854595
1325.7588141570832,1325.7588141570832,1.0000418239400461,0.000565974721967875
1325.7657586903024,1325.7657586903024,0.9996069364204379,0.0005665525390536923
1325.7727032236276,1325.7727032236276,1.0004585527681102,0.0005673931229011248
1325.7796477570214,1325.7796477570214,1.0003274691096327,0.0005679730816394325
1325.786592290498,1325.786592290498,1.0003142897332946,0.000568633236047939
1325.7935368240667,1325.7935368240667,1.0003552145551855,0.0005691960565243992
1325.8004813576822,1325.8004813576822,0.9995987280821955,0.0005696679647442437
1325.8074258914028,1325.8074258914028,1.0000197109852724,0.0005701376234701544
1325.8143704251809,1325.8143704251809,1.000195868205986,0.0005705939052937594
1325.8213149590297,1325.8213149590297,0.9996096068280732,0.0005709030609557902
1325.828259492971,1325.828259492971,1.0005580218694947,0.0005714687901735716
1325.8352040269592,1325.8352040269592,0.9991499102541181,0.0005715655999930215
1325.8421485610525,1325.8421485610525,0.9994589923492884,0.0005717635842609872
1325.8490930951798,1325.8490930951798,1.0003437228514689,0.0005720160653978937
1325.8560376294124,1325.8560376294124,0.9995971513014789,0.0005719261131062534
1325.8629821637032,1325.8629821637032,1.0009334100615164,0.0005722264074447098
1325.8699266980407,1325.8699266980407,0.9997629737945936,0.000571881257990342
1325.8768712324713,1325.8768712324713,1.0002542852188412,0.0005717208078650501
1325.8838157669597,1325.8838157669597,1.0001164239383409,0.0005714597560555302
1325.890760301507,1325.890760301507,0.9999866107672686,0.0005714425523470171
1325.8977048361235,1325.8977048361235,0.9993271313792409,0.0005711084803044994
1325.9046493707983,1325.9046493707983,1.0007774209204672,0.0005712284662842701
1325.9115939055198,1325.9115939055198,0.9997240732920656,0.0005712010319860758
1325.918538440346,1325.918538440346,1.000124405255829,0.0005712303206818402
1325.9254829752194,1325.9254829752194,1.0001570598084804,0.0005713791039916444
1325.9324275101385,1325.9324275101385,0.9994714256810445,0.0005713503867298619
1325.9393720451164,1325.9393720451164,1.0009897087004453,0.0005717459535770789
1325.9463165801756,1325.9463165801756,0.9993786955130253,0.0005716677138041093
1325.9532611152579,1325.9532611152579,0.9996683254774131,0.0005719820571557903
1325.9607612132384,1325.9607612132384,1.0003179658600843,0.0005723293803142464
1325.9685390926788,1325.9685390926788,0.9998733389859662,0.0005725764926757901
1325.9754836279594,1325.9754836279594,0.9993636210619277,0.0005728635072344319
1325.9824281632978,1325.9824281632978,0.9994935119071947,0.0005732827286184961
1325.989372698683,1325.989372698683,1.0011803002403377,0.0005739423073110054
1325.9963172341263,1325.9963172341263,0.9999753951653562,0.0005742892510763753
1326.0032617696277,1326.0032617696277,1.0003275848048556,0.0005749035630474808
1326.0102063051759,1326.0102063051759,1.0002562355897597,0.0005757238980231749
1326.0171508407589,1326.0171508407589,0.9998605147278636,0.000576383283814782
1326.0240953764119,1326.0240953764119,0.9997424467470271,0.0005772731949640279
1326.0310399121113,1326.0310399121113,0.9992228702147807,0.0005779436554901105
1326.037984447857,1326.037984447857,1.0002415439170886,0.0005781923749589203
1326.04492898365,1326.04492898365,0.9996525208021444,0.0005784223416392907
1326.0518735195005,1326.0518735195005,1.000316812432966,0.0005789860195225646
1326.0588180554093,1326.0588180554093,1.000089638064279,0.0005794241676321191
1326.0657625913416,1326.0657625913416,1.000225891455555,0.0005799049973577876
1326.0727071273086,1326.0727071273086,0.9996881555179131,0.0005804257902305283
1326.0796516633345,1326.0796516633345,0.9998958838408019,0.0005808629847700653
1326.086596199418,1326.086596199418,1.0009801898634532,0.0005815796869566494
1326.0935407355132,1326.0935407355132,1.000688673313531,0.0005818577475398006
1326.1004852716899,1326.1004852716899,0.9999069609280429,0.0005822828373079571
1326.1074298078663,1326.1074298078663,0.9989632805994647,0.000582645891756949
1326.1143743441364,1326.1143743441364,1.000420812541175,0.0005832672293453708
1326.1213188804177,1326.1213188804177,0.9990578755956883,0.00058342445664463
1326.1282634167576,1326.1282634167576,0.9996801577048741,0.0005840522280975454
1326.1352079531205,1326.1352079531205,0.9999342571449137,0.000584636707798884
1326.14215248953,1326.14215248953,1.0005307975292224,0.0005851321453608135
1326.149097025975,1326.149097025975,1.0002958843885357,0.0005854028746213804
1326.156041562477,1326.156041562477,1.0003497454106671,0.000585734313636432
1326.162986098992,1326.162986098992,0.9998251992734174,0.0005861178138664377
1326.1699306355524,1326.1699306355524,1.0007056102067566,0.0005863367606608733
1326.17687517216,1326.17687517216,0.9993930526372085,0.0005865025222418798
1326.183819708791,1326.183819708791,0.9996160260017547,0.0005869070917282814
1326.1907642454794,1326.1907642454794,0.999767952288944,0.0005871611902670789
1326.1977087821806,1326.1977087821806,0.9996443759171025,0.0005875180920977601
1326.2046533189273,1326.2046533189273,1.0003904877174095,0.0005879665099853967
1326.2115978556983,1326.2115978556983,1.0002327710931291,0.0005882839069946828
1326.2185423925264,1326.2185423925264,1.0007863468053535,0.0005888199392423915
1326.2254869293786,1326.2254869293786,1.0003524548686613,0.0005890168685301684
1326.2324314662653,1326.2324314662653,1.0002326783782283,0.0005893665478236052
1326.2393760031869,1326.2393760031869,0.9998364851176287,0.00058968563246117
1326.2463205401323,1326.2463205401323,0.9994869575106463,0.0005900033049738302
1326.2532650771122,1326.2532650771122,0.999984706171553,0.0005905408560301823
1326.2602096141272,1326.2602096141272,0.9996596926783059,0.0005910198738786675
1326.2671541511888,1326.2671541511888,0.9998358813189624,0.0005913805353893039
1326.2740986882382,1326.2740986882382,1.0004959508779563,0.0005918648440840769
1326.2810432253816,1326.2810432253816,0.9999665942289535,0.0005924117492099861
1326.2879877625012,1326.2879877625012,1.0002700477058577,0.0005928449773589665
1326.2949322996676,1326.2949322996676,1.0003360797935685,0.0005934499680671996
1326.3018768368681,1326.3018768368681,0.9999186306412803,0.0005940420378009492
1326.3088213741048,1326.3088213741048,0.9996241966925175,0.000594671098550815
1326.3157659113526,1326.3157659113526,1.0005853400303844,0.0005954396154864748
1326.3227104486348,1326.3227104486348,0.999176731090644,0.0005961059608989665
1326.3296549859415,1326.3296549859415,0.9995551021626543,0.0005969216167679512
1326.336599523282,1326.336599523282,0.9995227539489342,0.0005978971192440466
1326.3435440606459,1326.3435440606459,1.0005618427757623,0.0005989074904995418
1326.3532664130003,1326.3532664130003,1.0006608639923655,0.0006004833162839173
1326.360210950434,1326.360210950434,0.9998293304033308,0.0006012952442806194
1326.3671554878915,1326.3671554878915,1.0004072601498353,0.000602463020519746
1326.3741000253717,1326.3741000253717,0.9999378868796489,0.0006031904870532346
1326.381044562876,1326.381044562876,0.9999961505974342,0.0006041811910428095
1326.387989100403,1326.387989100403,1.000253296553526,0.0006051913070603419
1326.394933637965,1326.394933637965,0.9995360623281716,0.0006062356577683798
1326.401878175539,1326.401878175539,1.0002209465471013,0.0006073063017767762
1326.4088227131476,1326.4088227131476,0.9992365760481358,0.0006082484811538124
1326.4157672507679,1326.4157672507679,1.0000489387435998,0.0006093600160771767
1326.4227117884348,1326.4227117884348,1.000187119533519,0.0006103726054540362
1326.4296563261134,1326.4296563261134,1.0011274317861658,0.0006114702580122105
1326.4366008637912,1326.4366008637912,1.0003738987443094,0.0006123660955133387
1326.4435454015052,1326.4435454015052,0.9986140164028185,0.0006129484795333346
1326.4504899392418,1326.4504899392418,0.999512117364904,0.0006140111565489054
1326.457434477013,1326.457434477013,0.999503752478111,0.0006149144080748573
1326.4643790147966,1326.4643790147966,1.0007844032799564,0.000616049051470062
1326.4713235526033,1326.4713235526033,1.0004323421128816,0.0006167944961311787
1326.4782680904332,1326.4782680904332,0.9998738181029051,0.0006175799646714988
1326.4852126282628,1326.4852126282628,0.9999873788098945,0.0006185846802775339
1326.4921571661275,1326.4921571661275,1.0003406315832646,0.0006195559299183573
1326.4991017040159,1326.4991017040159,1.000019887730295,0.0006202550489811276
1326.506046241915,1326.506046241915,0.9995781200104851,0.0006210577770920971
1326.5129907798382,1326.5129907798382,1.0003417654433624,0.0006222295396964494
1326.5199353177961,1326.5199353177961,0.9995998858359709,0.0006231723791030308
1326.5268798557659,1326.5268798557659,1.0003378485799341,0.0006244655975428204
1326.5338243937354,1326.5338243937354,0.9998702123689073,0.0006253984098049707
1326.5407689317165,1326.5407689317165,0.9994893776286574,0.0006264398348694814
1326.5477134697442,1326.5477134697442,1.0007019908185186,0.0006279759845979984
1326.5546580077719,1326.5546580077719,1.000693465020508,0.0006289011385009907
1326.5616025458228,1326.5616025458228,1.000576186438638,0.0006296390395157957
1326.568547083897,1326.568547083897,0.9994955278890035,0.0006299441445782564
1326.5754916219717,1326.5754916219717,1.000043005037113,0.0006308944550092916
1326.5824361600921,1326.5824361600921,1.0004071477396934,0.0006318180399203719
1326.5893806982017,1326.5893806982017,0.9985113099124119,0.0006324277838736248
1326.596325236334,1326.596325236334,1.0004848284551948,0.0006334890731048085
1326.6032697744783,1326.6032697744783,1.0001047112871997,0.0006344078891757551
1326.6102143126575,1326.6102143126575,0.9998963590488193,0.0006350986130126984
1326.6171588508364,1326.6171588508364,1.0007429249675046,0.0006359427839110857
1326.624103389027,1326.624103389027,1.0007235065101145,0.0006364643094970274
1326.631047927241,1326.631047927241,0.9999908964129807,0.0006368075484359269
1326.6379924654898,1326.6379924654898,1.0000032754864807,0.0006372701887195693
1326.6449370036923,1326.6449370036923,0.9997391053493038,0.0006377095544652389
1326.651881541953,1326.651881541953,0.9995009281708572,0.0006377970240552363
1326.6588260802487,1326.6588260802487,1.0001489910277808,0.0006381134198951677
1326.665770618532,1326.665770618532,1.0000984765611207,0.0006384250479943262
1326.672715156828,1326.672715156828,0.9994063470784779,0.0006383425736238129
1326.679659695135,1326.679659695135,1.0015702057349547,0.0006385186412583108
1326.6874375780567,1326.6874375780567,1.0002109034382263,0.0006384768208143905
1326.6949376794826,1326.6949376794826,0.9999394221478625,0.0006383538847088077
1326.7018822178363,1326.7018822178363,1.0005131287719167,0.0006385238365158628
1326.7091045377324,1326.7091045377324,0.9986723992603259,0.0006382784720953102
1326.7171602022543,1326.7171602022543,0.99977856798991,0.0006383107168311568
1326.7241047406662,1326.7241047406662,1.001020409216038,0.0006385101500024671
1326.7310492790664,1326.7310492790664,0.9999562082179579,0.0006383829046860523
1326.7379938174786,1326.7379938174786,1.0005953984962042,0.0006385098508932638
1326.7449383559137,1326.7449383559137,1.0002458008385762,0.0006384811034449362
1326.7518828943485,1326.7518828943485,0.9992373620074086,0.0006385842631301574
1326.7588274328073,1326.7588274328073,0.9996023586458792,0.0006387219721159
1326.7657719712654,1326.7657719712654,1.0003028099572888,0.0006390072689373869
1326.7727165097476,1326.7727165097476,1.0003092188993818,0.0006391262695673019
1326.7796610482292,1326.7796610482292,1.000483369892949,0.0006395435706200845
1326.7866055867341,1326.7866055867341,0.9999017914877403,0.0006399115127759209
1326.793550125251,1326.793550125251,1.0003348015748137,0.0006403571293071891
1326.8004946637561,1326.8004946637561,0.9990645866878287,0.0006407622170956378
1326.8074392023075,1326.8074392023075,1.0005000118236511,0.0006416984036193067
1326.8143837408238,1326.8143837408238,0.9997216725745336,0.0006419188337385851
1326.8213282793527,1326.8213282793527,0.9999460208333341,0.0006424906055967952
1326.8282728179624,1326.8282728179624,1.000540791043924,0.000643048164559109
1326.8352173565138,1326.8352173565138,0.9999291891802005,0.0006431904597205977
1326.8421618950774,1326.8421618950774,0.9997798771137807,0.0006434642695767188
1326.8491064336754,1326.8491064336754,1.0000364912019264,0.0006438204423345382
1326.8560509722734,1326.8560509722734,1.0004129554395207,0.000644020441452798
1326.862995510872,1326.862995510872,0.999647669846288,0.0006438545711310648
1326.8699400494934,1326.8699400494934,0.9995706283332286,0.0006436127396110789
1326.876884588103,1326.876884588103,1.0000190630859607,0.0006433755080752266
1326.883829126748,1326.883829126748,1.0001290234558764,0.0006428645856638557
1326.8907736653807,1326.8907736653807,1.00033644078565,0.0006422711039749968
1326.8977182040373,1326.8977182040373,1.0008346538499533,0.0006418989423135609
1326.9046627426935,1326.9046627426935,0.9996492235058078,0.0006409102236774093
1326.91160728135,1326.91160728135,0.9997128459263818,0.0006400734557374757
1326.9185518200181,1326.9185518200181,0.9993945323892554,0.0006391577884278197
1326.9254963587093,1326.9254963587093,1.0002712206835065,0.0006383342907040758
1326.9324408973891,1326.9324408973891,0.9995716751843597,0.0006372451534374605
1326.93938543608,1326.93938543608,1.0003364751756272,0.000636622317238584
1326.946329974783,1326.946329974783,0.999850126998238,0.0006357465367856229
1326.9532745135095,1326.9532745135095,1.0008879026562956,0.0006350416523189313
1326.9602190522126,1326.9602190522126,1.000230034546449,0.0006341115882877279
1326.9671635909388,1326.9671635909388,0.9994248373515837,0.000633128533507537
1326.9741081296647,1326.9741081296647,0.9987001844052112,0.0006324890925744873
1326.9810526684028,1326.9810526684028,1.0005358126723962,0.0006321955273534791
1326.9879972071521,1326.9879972071521,1.0002297600046952,0.0006316594352163984
1326.9949417459022,1326.9949417459022,0.9996616135419986,0.000631335314458311
1327.0018862846514,1327.0018862846514,1.0003404279479116,0.0006313295580185857
1327.0088308234124,1327.0088308234124,0.9998890702082706,0.0006310619286906936
1327.0157753621852,1327.0157753621852,1.0000080300488696,0.0006310618850176675
1327.022719900958,1327.022719900958,1.0005553418602076,0.0006312833993233158
1327.029664439731,1327.029664439731,1.0007085230847317,0.0006314860512217742
1327.0366089785268,1327.0366089785268,0.9990386526298242,0.0006315184166212734
1327.0435535173117,1327.0435535173117,0.9999323829753761,0.0006319438393058819
1327.0504980561077,1327.0504980561077,1.000917778289926,0.0006325438762389572
1327.0579981580108,1327.0579981580108,0.9999696626384533,0.0006331074029821421
1327.0657760414917,1327.0657760414917,0.9993440922421867,0.0006334824113381418
1327.0727205802762,1327.0727205802762,0.9998197724550788,0.0006340130693202064
