time,time,flux,flux_err
1325.3003479808594,1325.3003479808594,1.000037810347622,0.0003295387025988936
1325.30868135603,1325.30868135603,1.0002453937485964,0.0003296322881314132
1325.3170147313374,1325.3170147313374,0.9995956750131544,0.00032958193107037684
1325.3246536588308,1325.3246536588308,1.0003805192281976,0.0003010192486646412
1325.3315981385458,1325.3315981385458,0.9997862337435169,0.00030099431751900475
1325.3385426183079,1325.3385426183079,1.0000015622416716,0.0003010905207223697
1325.3454870982093,1325.3454870982093,0.9996672313592349,0.0003010793717307288
1325.352431578204,1325.352431578204,1.0001914277185884,0.00030121676465871486
1325.3593760583385,1325.3593760583385,1.0002843814898337,0.0003013282135394508
1325.366320538566,1325.366320538566,1.000015847787759,0.00030136248259426984
1325.3732650189097,1325.3732650189097,1.000180969441685,0.0003014585952655803
1325.3802094993703,1325.3802094993703,0.9995200244961557,0.0003014416139450868
1325.3871539799238,1325.3871539799238,1.0000980373065897,0.0003016271483807341
1325.3940984605936,1325.3940984605936,1.0003461935061044,0.0003017456403017982
1325.4010429413333,1325.4010429413333,1.0001441013912706,0.0003017784688934083
1325.407987422213,1325.407987422213,0.9994103383605466,0.00030175753446271176
1325.4149319031853,1325.4149319031853,1.0002218358014352,0.0003019314384859452
1325.4218763842512,1325.4218763842512,1.0003864146158654,0.00030207196658561
1325.428820865433,1325.428820865433,1.0004846516916674,0.00030213720522048607
1325.435765346685,1325.435765346685,0.9995399603587909,0.00030213399016656533
1325.4427098280769,1325.4427098280769,0.9998736471225304,0.0003022401273136839
1325.449654309515,1325.449654309515,1.0000181035617757,0.00030232502489409274
1325.4565987911162,1325.4565987911162,0.9997956996591375,0.0003023978915501086
1325.463543272764,1325.463543272764,0.9996894397917554,0.0003024271471305829
1325.4704877545282,1325.4704877545282,1.000285201273811,0.0003025674100403617
1325.4774322363855,1325.4774322363855,0.9998455041914511,0.0003025992207945734
1325.4843767183359,1325.4843767183359,1.0000358588013198,0.00030274773173023675
1325.4913212003098,1325.4913212003098,1.0001816070681149,0.00030283133388517476
1325.4982656824932,1325.4982656824932,0.9997053813029494,0.00030286185658660376
1325.505210164676,1325.505210164676,1.0005129786236782,0.0003030496400645213
1325.5121546469995,1325.5121546469995,1.0003423049884372,0.0003031068330199121
1325.519099129392,1325.519099129392,0.9995596721373115,0.00030310843914999974
1325.5260436118547,1325.5260436118547,1.000012494472426,0.00030324093279469986
1325.5329880944105,1325.5329880944105,1.0002233434503478,0.00030335027025003175
1325.5399325770363,1325.5399325770363,0.9997417532539601,0.00030341193686657814
1325.5468770598018,1325.5468770598018,0.9997335070924569,0.0003034641503500793
1325.5538215426136,1325.5538215426136,0.9997744469040566,0.0003035653847346602
1325.5607660254957,1325.5607660254957,1.0005760179708225,0.0003037392212584105
1325.5677105084937,1325.5677105084937,0.9999186178944501,0.00030372864016396374
1325.5746549915384,1325.5746549915384,1.0000368914689373,0.0003037905775634226
1325.5815994746997,1325.5815994746997,0.9996947638422199,0.0003038189158109709
1325.5885439579538,1325.5885439579538,1.0005867247775835,0.00030400040877249205
1325.595488441208,1325.595488441208,1.0001083569428941,0.00030395863581030675
1325.6024329245556,1325.6024329245556,1.000146015509659,0.000304008378873826
1325.609377407996,1325.609377407996,0.999717860330896,0.0003040260651652286
1325.61632189153,1325.61632189153,1.0000887488493513,0.0003040638168493507
1325.6232663751102,1325.6232663751102,1.0001182327009606,0.00030408926863833527
1325.6302108587836,1325.6302108587836,0.9998581371222544,0.0003040354397111455
1325.637155342527,1325.637155342527,0.9997834016209547,0.00030403811887796885
1325.6440998263165,1325.6440998263165,0.9999262873021687,0.00030404377557864513
1325.651044310223,1325.651044310223,0.9999485676770711,0.0003040384389651436
1325.6579887941757,1325.6579887941757,1.00026407672699,0.0003040690041655885
1325.6649332781985,1325.6649332781985,0.9996930319220946,0.00030396923971655934
1325.6718777622675,1325.6718777622675,1.000281565090295,0.0003040715697896513
1325.6788222464534,1325.6788222464534,1.0001513780809606,0.0003040231353079337
1325.6857667306624,1325.6857667306624,1.0001323944027865,0.0003040467138581783
1325.6927112149642,1325.6927112149642,1.0003443032075947,0.0003040869080149437
1325.6996556993363,1325.6996556993363,0.9999280899001945,0.0003040508695900645
1325.706600183755,1325.706600183755,1.0000959974675525,0.00030408826674849503
1325.7135446681964,1325.7135446681964,0.9995778991826498,0.00030405148573948906
1325.7204891527545,1325.7204891527545,1.0005295941105044,0.00030421685784629606
1325.7274336373594,1325.7274336373594,0.9993476320334255,0.00030406973918120796
1325.7343781220338,1325.7343781220338,1.0002677607702524,0.00030422313144297657
1325.7413226067551,1325.7413226067551,1.0000830659122948,0.0003042046071261301
1325.7482670915456,1325.7482670915456,0.9998842310688014,0.0003046593089725383
1325.7552115763835,1325.7552115763835,1.0001686800073042,0.00030429627565102145
1325.7621560613145,1325.7621560613145,0.999677129504871,0.00030426676287563975
1325.7691005462216,1325.7691005462216,0.9999129538315736,0.0003043387462557909
1325.7760450312921,1325.7760450312921,1.0003146817962114,0.00030441590997079955
1325.782989516339,1325.782989516339,1.0004565042628588,0.0003044837838180404
1325.7899340014794,1325.7899340014794,0.9997775493817558,0.00030441975748224674
1325.7968784866662,1325.7968784866662,0.9997619410242311,0.0003044450707108248
1325.8038229718763,1325.8038229718763,1.0001871452499747,0.0003045432409266416
1325.8107674571797,1325.8107674571797,0.9999978357264399,0.0003045511344331981
1325.817711942529,1325.817711942529,1.0003251883342064,0.0003045981616773874
1325.8246564279025,1325.8246564279025,1.0000554649333504,0.0003045883612811052
1325.8316009133687,1325.8316009133687,0.9997035952566865,0.0003045510646824098
1325.8385453988817,1325.8385453988817,0.99990743041428,0.00030461767804314607
1325.845489884371,1325.845489884371,1.0000380340769088,0.00030462473717434026
1325.8524343700233,1325.8524343700233,1.000161530907009,0.00030464202585866383
1325.8593788556293,1325.8593788556293,0.9997361092635337,0.0003045618512991993
1325.8663233413515,1325.8663233413515,0.9993589117941385,0.0003044998955080504
1325.8732678270742,1325.8732678270742,1.000097560248734,0.0003045175552342422
1325.8802123128662,1325.8802123128662,1.0003081931428852,0.0003044995259974181
1325.8871567986816,1325.8871567986816,1.000114574092668,0.0003044195254076845
1325.894101284567,1325.894101284567,1.0003754371311553,0.00030442151414222015
1325.9010457704758,1325.9010457704758,0.9997397943975201,0.00030427529616263674
1325.9079902564538,1325.9079902564538,1.000049181594202,0.0003042852550249214
1325.9149347424554,1325.9149347424554,0.9998175103966614,0.000304192217577241
1325.921879228527,1325.921879228527,1.000167338585166,0.00030423583071008967
1325.9288237145988,1325.9288237145988,1.0001292266064485,0.0003042299745953913
1325.9357682007635,1325.9357682007635,1.0000543866844933,0.0003041907075924905
1325.9427126869282,1325.9427126869282,1.0000762610644043,0.00030418462768064844
1325.9496571731397,1325.9496571731397,0.9998952960239407,0.0003041154365750376
1325.9566016593974,1325.9566016593974,0.9999324468830315,0.00030407767382902376
1325.964379484065,1325.964379484065,0.9996165161122905,0.0003040411831655205
1325.9718795293325,1325.9718795293325,0.9998104850489297,0.0003040799480118016
1325.9788240157066,1325.9788240157066,1.000055010551801,0.00030406712181566984
1325.9857685021038,1325.9857685021038,0.9999839825131703,0.00030409534948255444
1325.9927129885712,1325.9927129885712,1.0001587105488885,0.0003041271540231372
1325.9996574750853,1325.9996574750853,1.0003113831305288,0.000304144183554109
1326.0066019616224,1326.0066019616224,1.0004002547123452,0.00030416451952478723
1326.0135464481832,1326.0135464481832,0.9999387717661653,0.0003041569876548086
1326.02049093479,1326.02049093479,0.999838508682571,0.00030417207855096143
1326.0274354214205,1326.0274354214205,1.0000289647167855,0.0003042444246004392
1326.0343799081206,1326.0343799081206,1.0001049686204835,0.00030423791712871705
1326.0413243947742,1326.0413243947742,0.9996659137642968,0.0003042138555596669
1326.0482688815214,1326.0482688815214,0.9994835049262122,0.00030418530917963676
1326.0552133683145,1326.0552133683145,0.9998707124964195,0.00030423212040773997
1326.0621578551309,1326.0621578551309,1.0003194469325165,0.0003043292830871453
1326.069102341971,1326.069102341971,1.0007163412908553,0.00030438327308047455
1326.0760468288338,1326.0760468288338,1.0001146244644488,0.00030430722541829327
1326.0829913157443,1326.0829913157443,0.9999466964048207,0.00030429716471767085
1326.0899358026538,1326.0899358026538,0.9999778925048103,0.00030428086357218916
1326.0968802896336,1326.0968802896336,0.9997661743406511,0.00030430304532610595
1326.1038247766367,1326.1038247766367,0.9995462642523215,0.0003042615964002495
1326.1107692636624,1326.1107692636624,0.9999598969404427,0.0003042821171078074
1326.117713750712,1326.117713750712,1.0000999398860122,0.00030430623071210633
1326.1246582377612,1326.1246582377612,1.000184470597461,0.0003043017253078855
1326.1316027248808,1326.1316027248808,0.9997937247708111,0.0003042493351055333
1326.138547212023,1326.138547212023,0.9999815752939805,0.00030424276795404024
1326.145491699166,1326.145491699166,1.0002170446145269,0.000304301677432225
1326.152436186355,1326.152436186355,1.0001995905266754,0.0003042966629215118
1326.1593806735673,1326.1593806735673,1.0001607332982472,0.0003042565001671688
1326.1663251608034,1326.1663251608034,0.9996367573341214,0.00030416597680914714
1326.1732696480854,1326.1732696480854,0.9996610756484461,0.00030413046042424707
1326.1802141354142,1326.1802141354142,1.0003163910115405,0.00030423249740979265
1326.1871586226966,1326.1871586226966,0.9996912699588872,0.0003041508355470168
1326.1941031100716,1326.1941031100716,1.000259470498225,0.00030418251342865827
1326.201047597401,1326.201047597401,0.9999570055174528,0.0003041581707757863
1326.2079920847762,1326.2079920847762,1.0000784246043362,0.0003041518593727947
1326.2149365721755,1326.2149365721755,1.0003129096128371,0.00030421119532032906
1326.22188105962,1326.22188105962,1.0004242103496623,0.0003041882956620867
1326.228825547089,1326.228825547089,0.9995774181580515,0.00030408347937015167
1326.2357700345574,1326.2357700345574,0.99976426497835,0.0003041157996033268
1326.2427145220256,1326.2427145220256,1.0000360344297694,0.0003041480099350822
1326.2496590095648,1326.2496590095648,0.9997702530236552,0.0003040951914895844
1326.256603497126,1326.256603497126,1.0000980258423833,0.0003041532670463767
1326.2635479846645,1326.2635479846645,1.0000752506244484,0.000304155491764962
1326.2704924722495,1326.2704924722495,0.9999885088130279,0.00030409643274536614
1326.2774369598576,1326.2774369598576,1.0001700036131724,0.0003041132759754249
1326.284381447466,1326.284381447466,0.9996465417727289,0.0003040406517053399
1326.2913259351208,1326.2913259351208,0.9996698853909278,0.00030403489085568144
1326.2982704227757,1326.2982704227757,1.0003482279428113,0.0003041050567862205
1326.3052149104535,1326.3052149104535,1.0002418346437505,0.0003041261431407233
1326.3121593981552,1326.3121593981552,0.9999586199052686,0.0003040727162729888
1326.3191038858797,1326.3191038858797,1.000422254965546,0.0003041399423415629
1326.3260483736042,1326.3260483736042,1.0000387432522564,0.00030408418211015203
1326.3329928613527,1326.3329928613527,0.9998643275880523,0.0003040601534412416
1326.3399373491236,1326.3399373491236,0.9997041663325026,0.0003040585694489412
1326.3474373959277,1326.3474373959277,0.999255581037146,0.0003040119570034765
1326.3566041198305,1326.3566041198305,1.0002169243748908,0.0003041861007521701
1326.3635486076482,1326.3635486076482,1.000141933123754,0.00030417592448201704
1326.3704930954893,1326.3704930954893,1.000352751742763,0.0003041991445551117
1326.3774375833536,1326.3774375833536,0.9999390297731434,0.000304146133458345
1326.3843820712414,1326.3843820712414,1.0003581630509089,0.00030422440314555624
1326.3913265590593,1326.3913265590593,0.9999450751869261,0.0003041770198493046
1326.3982710469702,1326.3982710469702,0.9998225728958147,0.00030416704782691337
1326.405215534881,1326.405215534881,0.9996351252431325,0.00030413176430443524
1326.4121600227922,1326.4121600227922,1.000058839351804,0.00030420135800004257
1326.4191045107962,1326.4191045107962,1.0003092296870997,0.0003042794679405949
1326.4260489987305,1326.4260489987305,0.9997748878054671,0.00030419092910824366
1326.4329934866878,1326.4329934866878,1.000397196865587,0.0003042939277128384
1326.4399379746685,1326.4399379746685,1.000286723132398,0.0003042694740041901
1326.4468824626729,1326.4468824626729,0.9994024198158223,0.0003042114566205801
1326.4538269506768,1326.4538269506768,0.9996531811943907,0.00030422209183253814
1326.4607714386807,1326.4607714386807,1.0002400444503556,0.0003043084781243488
1326.467715926708,1326.467715926708,0.99968923492348,0.00030421576987290885
1326.4746604147588,1326.4746604147588,1.000356723045078,0.0003043594427766321
1326.4816049027863,1326.4816049027863,1.000387988960402,0.00030437974224934854
1326.48854939086,1326.48854939086,1.000262038584884,0.0003043482384556828
1326.4954938789342,1326.4954938789342,0.9996164643326815,0.00030427388439585145
1326.502438367008,1326.502438367008,1.0001782081563846,0.00030435741020286386
1326.5093828551053,1326.5093828551053,1.000178504632068,0.0003043785001684311
1326.5163273432022,1326.5163273432022,0.9994816811358527,0.00030429952706075133
1326.523271831323,1326.523271831323,0.9991219038440985,0.00030427550636710906
1326.5302163194433,1326.5302163194433,1.0002598382750376,0.00030443715035253154
1326.537160807587,1326.537160807587,0.9999639931459752,0.0003043878837272462
1326.5441052957078,1326.5441052957078,1.0004984615522408,0.0003045145248241852
1326.5510497838745,1326.5510497838745,1.0002842011686774,0.00030451017248058355
1326.5579942720415,1326.5579942720415,0.9999979375131416,0.0003044862464630568
1326.5649387601854,1326.5649387601854,1.0003951339160861,0.00030449755163425047
1326.5718832483758,1326.5718832483758,0.9999617096294259,0.00030447960652092547
1326.5788277365432,1326.5788277365432,0.9997556009377998,0.00030446390280317476
1326.5857722247329,1326.5857722247329,1.0001931316085684,0.00030452421090741016
1326.5927167129237,1326.5927167129237,0.9994440703015721,0.0003044402190691818
1326.5996612011372,1326.5996612011372,0.9998456234293787,0.00030450855437301656
1326.6066056893276,1326.6066056893276,1.0000188950785596,0.00030457620388880957
1326.6135501775877,1326.6135501775877,1.0004049296076079,0.0003046261194941251
1326.620494665801,1326.620494665801,0.9998834636049596,0.0003046040692489529
1326.6274391540385,1326.6274391540385,0.9999875376401792,0.000304586700529887
1326.6343836422516,1326.6343836422516,0.9996320915692939,0.00030455148420233395
1326.6413281305122,1326.6413281305122,1.0001994851588452,0.0003045836210799305
1326.648272618749,1326.648272618749,1.0000160726453147,0.0003045681862880896
1326.655217107009,1326.655217107009,1.0000044479003753,0.00030456493623881375
1326.6621615952695,1326.6621615952695,1.0000026722446163,0.0003045298935772433
1326.6691060835294,1326.6691060835294,0.9999933251870324,0.00030446397684428335
1326.6760505718132,1326.6760505718132,1.00016172046363,0.00030448511336548004
1326.6829950600963,1326.6829950600963,1.000460008076469,0.0003045062734976204
1326.691050666469,1326.691050666469,0.9995740259153656,0.00030434263764533246
1326.6982729343151,1326.6982729343151,1.0000024897270359,0.00030439086408540195
1326.7052174225987,1326.7052174225987,0.9999216744341746,0.0003043486039849784
1326.7127174699617,1326.7127174699617,1.0000388368844435,0.0003043071844847574
1326.7204952968646,1326.7204952968646,0.9996742602584057,0.0003042820642781371
1326.7274397851713,1326.7274397851713,1.0003969192389486,0.00030432559471901116
1326.7343842734547,1326.7343842734547,0.9995478814786845,0.0003042314419489255
1326.7413287617617,1326.7413287617617,1.0002142166033245,0.0003042356585021621
1326.748273250068,1326.748273250068,1.0004895961199343,0.0003042993778050551
1326.755217738398,1326.755217738398,0.9997871275502188,0.0003042172558574771
1326.762162226705,1326.762162226705,0.999749768785912,0.00030417482209806166
1326.7691067150115,1326.7691067150115,1.000327918475151,0.00030425387639879033
1326.7760512033417,1326.7760512033417,1.000205128105658,0.00030420037422162376
1326.7829956916717,1326.7829956916717,0.9998358440009261,0.0003041488640345494
1326.7899401800018,1326.7899401800018,0.999617439236164,0.0003041538214145868
1326.7968846683318,1326.7968846683318,0.9999921054275884,0.000304186761663545
1326.8038291566386,1326.8038291566386,0.9999671133468302,0.0003042071954581691
1326.8107736449917,1326.8107736449917,1.0003252568950045,0.00030425670169291214
1326.8177181332983,1326.8177181332983,0.999546646621136,0.00030412999686328884
1326.824662621652,1326.824662621652,1.000548869711848,0.00030425428932213765
1326.831607109982,1326.831607109982,1.0001559010346983,0.000304190182956932
1326.8385515983123,1326.8385515983123,1.0003003920395923,0.00030422301330831127
1326.8454960866652,1326.8454960866652,0.9999642954241954,0.00030418943121699544
1326.8524405749954,1326.8524405749954,0.9999243550195303,0.00030416129035547036
1326.8593850633254,1326.8593850633254,0.9998838895762658,0.0003041213075588922
1326.8663295516558,1326.8663295516558,0.9994873854610263,0.00030405195053224916
1326.873274040009,1326.873274040009,0.9999325723409422,0.000304076536184914
1326.880218528339,1326.880218528339,1.000922944226383,0.0003041598766932789
1326.887163016669,1326.887163016669,0.9999488778803183,0.0003040110813389537
1326.894107505022,1326.894107505022,1.0005785702295804,0.00030405532393005727
1326.9010519933522,1326.9010519933522,0.9997134853661498,0.0003038854711553728
1326.9079964816822,1326.9079964816822,1.0000316725499547,0.00030388861063279307
1326.9149409700356,1326.9149409700356,1.0000325644051877,0.0003038282864954164
1326.9218854583423,1326.9218854583423,0.9996911292702519,0.00030373507522678684
1326.9288299466957,1326.9288299466957,1.0000414031409852,0.0003037732468828436
1326.935774435026,1326.935774435026,0.9995912935852456,0.0003036660234053927
1326.9427189233556,1326.9427189233556,1.0001824162146884,0.00030370790273353843
1326.9496634116858,1326.9496634116858,1.000186332333444,0.0003036788454035415
1326.9566078999926,1326.9566078999926,1.0001333611311827,0.00030364394849436745
1326.9635523883462,1326.9635523883462,1.0002253320098486,0.00030361007099660053
1326.9704968766528,1326.9704968766528,1.0002012587978206,0.00030359080075662405
1326.9774413649825,1326.9774413649825,0.9996227636828856,0.00030345537359667866
1326.9843858533131,1326.9843858533131,0.9997584119497647,0.000303417108097881
1326.9913303416195,1326.9913303416195,1.0001573221441216,0.00030346669434062624
1326.9982748299267,1326.9982748299267,0.9999295999169944,0.0003034066866546976
1327.0052193182564,1327.0052193182564,1.0000522123335454,0.0003034208514376536
1327.0121638065398,1327.0121638065398,0.9995788449839331,0.00030333832404462783
1327.0191082948465,1327.0191082948465,0.999930625033356,0.0003033482501957648
1327.0260527831765,1327.0260527831765,1.0003697965120222,0.0003034190370389675
1327.0329972714835,1327.0329972714835,1.000189156947664,0.00030340228369677596
1327.0399417597898,1327.0399417597898,0.9999295377412134,0.0003033303784102944
1327.0468862480507,1327.0468862480507,0.9999818252909598,0.00030331558549661085
1327.0538307363336,1327.0538307363336,0.9999409025938724,0.00030332097665074334
1327.0616085632366,1327.0616085632366,0.9999981269910142,0.00030331383766647225
