time,time,flux,flux_err
1468.276372454285,1468.276372454285,0.9999233888161264,0.0002509791359109717
1468.2847059811572,1468.2847059811572,1.0001873446511997,0.0002510351130762901
1468.292345047427,1468.292345047427,0.9998652358599006,0.00022915889098062297
1468.2992896530843,1468.2992896530843,0.9997450189017976,0.0002290852008630713
1468.3062342587295,1468.3062342587295,1.0001295414632843,0.00022916518841289518
1468.3131788643395,1468.3131788643395,0.9998161093108642,0.00022908994293189628
1468.3201234699263,1468.3201234699263,1.0002139866623803,0.00022922851573778727
1468.3270680754904,1468.3270680754904,0.9999348000072498,0.00022912835028446104
1468.3340126810194,1468.3340126810194,1.0000358552264448,0.00022919123560254201
1468.340957286525,1468.340957286525,1.0000014547181997,0.0002290903662842254
1468.3479018920184,1468.3479018920184,0.9997380791805501,0.00022905166860451198
1468.3548464974542,1468.3548464974542,1.000096702988516,0.00022916258805879354
1468.3617911028898,1468.3617911028898,0.9999053121539081,0.00022915765532986683
1468.3687357083022,1468.3687357083022,1.000182769840687,0.00022914644907294032
1468.377624803155,1468.377624803155,1.0001497412925284,0.00022914005766955678
1468.3923473664688,1468.3923473664688,0.9998299529313271,0.0002290640428367459
1468.3992919717537,1468.3992919717537,1.0000281365868202,0.00022906340539280914
1468.406236577003,1468.406236577003,0.9999878156216262,0.00022900211121391613
1468.4131811822288,1468.4131811822288,1.000034979159806,0.00022908528117821558
1468.4201257874436,1468.4201257874436,0.9999394015457964,0.0002290555106312178
1468.4270703926347,1468.4270703926347,1.0002518223457424,0.00022909002810454453
1468.434014997791,1468.434014997791,1.0001203495758944,0.00022904710148084789
1468.440959602889,1468.440959602889,1.000155185015997,0.0002291193520481496
1468.4479042079988,1468.4479042079988,0.9998102645532019,0.00022911060654521396
1468.4548488130736,1468.4548488130736,1.0000804012484328,0.00022908553987108395
1468.4617934181133,1468.4617934181133,0.9999293147269576,0.0002290813623174219
1468.4687380231185,1468.4687380231185,1.0000613301790675,0.00022909378025788075
1468.4756826281114,1468.4756826281114,0.9997502602869399,0.00022905773266396976
1468.482627233081,1468.482627233081,1.0003205039256966,0.00022908816465595314
1468.4895718380048,1468.4895718380048,0.9997168626179247,0.00022919961969117378
1468.4965164429286,1468.4965164429286,0.9999097380553039,0.00022908639907773674
1468.5034610477937,1468.5034610477937,1.0002265603431837,0.00022912420166532396
1468.510405652647,1468.510405652647,1.0002837067556665,0.00022909058597225855
1468.5173502574894,1468.5173502574894,0.9996769227683311,0.00022904756694453357
1468.524294862296,1468.524294862296,0.9999007320527665,0.0002290589475048455
1468.5312394670568,1468.5312394670568,0.9999806991175317,0.0002291294045171989
1468.5381840718173,1468.5381840718173,1.000015221381112,0.0002291186326477918
1468.5451286765424,1468.5451286765424,1.0001705685805604,0.00022908344642388938
1468.5520732812215,1468.5520732812215,1.0000031545582606,0.00022910627242906336
1468.5590178858893,1468.5590178858893,1.0000338418804202,0.0002290946631187981
1468.5659624905334,1468.5659624905334,1.0000395284560608,0.0002290795007339468
1468.5729070951536,1468.5729070951536,0.9998306021776265,0.00022909200032501586
1468.5798516997163,1468.5798516997163,1.0004430131495814,0.000229188471861107
1468.5867963042788,1468.5867963042788,0.9996279887839851,0.00022902329569284108
1468.5937409088183,1468.5937409088183,1.0000262674552498,0.00022905465936807896
1468.6006855133228,1468.6006855133228,1.000320625260293,0.00022905875559718725
1468.607630117792,1468.607630117792,1.000351750433368,0.000229102282061016
1468.6145747222495,1468.6145747222495,0.999758614294994,0.0002289933072562513
1468.6215193266726,1468.6215193266726,0.9999425889548972,0.00022907164650053715
1468.6284639310493,1468.6284639310493,0.9999363075216617,0.00022921721794889476
1468.635408535425,1468.635408535425,0.9998254189763216,0.00022912695980290156
1468.6423531397663,1468.6423531397663,1.0005844016027847,0.00022923833287098795
1468.6492977440614,1468.6492977440614,0.9997106587755761,0.00022902541868941685
1468.6562423483329,1468.6562423483329,0.9998736153382122,0.0002291084192746047
1468.6631869526047,1468.6631869526047,1.0002487086737275,0.00022906405367648474
1468.670131556841,1468.670131556841,1.0001105939315884,0.00022908228233857797
1468.6770761610544,1468.6770761610544,1.0002444114365319,0.00022912228903899885
1468.684020765221,1468.684020765221,1.0000267275177763,0.00022908547110367
1468.6909653693644,1468.6909653693644,0.9998658040647894,0.00022908200585473014
1468.6979099734851,1468.6979099734851,0.9998687745046283,0.00022903511685098548
1468.70485457757,1468.70485457757,1.0001859296210365,0.00022906507545432782
1468.7117991816433,1468.7117991816433,0.9998971927769423,0.00022911718354138552
1468.7187437856705,1468.7187437856705,0.9998715137238227,0.00022903225170218408
1468.7256883897094,1468.7256883897094,0.9998898247352738,0.00022911542886306044
1468.73263299369,1468.73263299369,1.0003875981390966,0.00022907936909087826
1468.7395775976233,1468.7395775976233,0.9996139152780724,0.0002290294877190657
1468.7465222015574,1468.7465222015574,0.9998918921289934,0.0002291386599643643
1468.7534668054566,1468.7534668054566,1.0003751787178519,0.00022910570048173003
1468.7604114093324,1468.7604114093324,1.00022785467628,0.0002290799727086233
1468.7673560131732,1468.7673560131732,0.9998315162633619,0.00022904326813109232
1468.7743006169906,1468.7743006169906,0.9998802037691277,0.00022915589144943538
1468.7812452207731,1468.7812452207731,1.0001885173867289,0.0002290916992885569
1468.7881898245325,1468.7881898245325,0.9998409332972148,0.00022907770843290544
1468.79513442828,1468.79513442828,1.0002975182490124,0.000229099572833705
1468.802079031981,1468.802079031981,0.9994285321528682,0.00022907226750241055
1468.8090236356704,1468.8090236356704,1.0002275971318113,0.0002291052060446717
1468.815968239302,1468.815968239302,0.999755018648447,0.00022911237356887897
1468.8229128429216,1468.8229128429216,1.0000435965947285,0.00022918141835496313
1468.8298574465177,1468.8298574465177,1.0000890517283987,0.00022904312448099518
1468.8368020500907,1468.8368020500907,1.0000683916320514,0.0002291140521220474
1468.8437466536286,1468.8437466536286,1.0004228983208265,0.00022908436840324612
1468.850691257132,1468.850691257132,1.000159163609548,0.00022915132760975131
1468.857635860612,1468.857635860612,0.9998867438642609,0.0002290320897055725
1468.8645804640805,1468.8645804640805,1.0000834906915106,0.00022907341365547472
1468.8715250674784,1468.8715250674784,0.9997701014128616,0.00022906596600560277
1468.8784696708767,1468.8784696708767,0.9999549628496439,0.00022910082481673784
1468.8854142742755,1468.8854142742755,1.0001475123406258,0.00022912689885903957
1468.8923588776038,1468.8923588776038,0.9999246087396528,0.00022910253374242668
1468.8993034809328,1468.8993034809328,1.0002542465450628,0.00022910020618433462
1468.9062480842144,1468.9062480842144,1.0002700340118775,0.00022916079621083295
1468.913192687473,1468.913192687473,0.9997734702802117,0.00022908008011082235
1468.9201372907087,1468.9201372907087,0.9998955078498207,0.0002292357893199823
1468.9270818939092,1468.9270818939092,0.999815591578764,0.00022911237340494229
1468.9340264970865,1468.9340264970865,0.9997758112035482,0.0002291138549366229
1468.9409711002402,1468.9409711002402,1.0000209962217281,0.00022916423112188277
1468.9479157033475,1468.9479157033475,1.0000125172520855,0.00022915213947054968
1468.9551380905675,1468.9551380905675,1.000066945413494,0.00022917392373781798
1468.963193830114,1468.963193830114,1.0003382087888566,0.00022917564970844533
1468.9701384331397,1468.9701384331397,1.0000862549663248,0.0002291564071570424
1468.9770830361424,1468.9770830361424,0.9998498412586683,0.00022914362227948755
1468.98402763911,1468.98402763911,1.000072907214475,0.00022912791021204335
1468.9909722420662,1468.9909722420662,0.9999715457755374,0.00022910122798354272
1468.9979168449875,1468.9979168449875,0.9997591231499635,0.0002290694714717433
1469.0048614478617,1469.0048614478617,0.9996922053263008,0.00022902774721151876
1469.0118060507127,1469.0118060507127,1.0000379317126615,0.0002291408979323601
1469.0187506535294,1469.0187506535294,1.0003207249749906,0.00022914491611603118
1469.0256952563457,1469.0256952563457,1.0004165191386778,0.0002291513699149171
1469.0326398591392,1469.0326398591392,1.0000432504780303,0.00022906776851062396
1469.0395844618854,1469.0395844618854,1.0003440629611207,0.00022908606401787733
1469.0465290645966,1469.0465290645966,0.9999291009072232,0.0002291313615263745
1469.053473667285,1469.053473667285,1.0000625569743289,0.0002291443087769642
1469.0604182699499,1469.0604182699499,0.999953192086311,0.00022906179880494544
1469.0673628725804,1469.0673628725804,1.0000151022950188,0.0002290790757496351
1469.074307475187,1469.074307475187,0.9998753189197244,0.0002291261451693471
1469.0812520777704,1469.0812520777704,0.9999808645267023,0.0002290769420525371
1469.0881966802958,1469.0881966802958,1.000124141910851,0.000229116498708125
1469.095141282821,1469.095141282821,1.000123543144729,0.00022908648023221433
1469.102085885323,1469.102085885323,0.9997730150497282,0.00022902091491389595
1469.1090304877903,1469.1090304877903,1.0000280730205668,0.0002290857528680812
1469.1159750902223,1469.1159750902223,1.00027622980098,0.00022912988852201796
1469.1229196926195,1469.1229196926195,0.9998119632790348,0.00022910359893660895
1469.1298642949937,1469.1298642949937,0.9998423604276623,0.00022913317558529797
1469.1368088973559,1469.1368088973559,0.999591032993937,0.00022902103263910622
1469.1437534996717,1469.1437534996717,0.9998162649690565,0.00022907417676598123
1469.1506981019759,1469.1506981019759,1.000390027070576,0.00022926873176838577
1469.1576427042098,1469.1576427042098,1.0000775741348338,0.0002291886396724306
1469.164587306444,1469.164587306444,1.0000693746307703,0.0002291926256507695
1469.1715319086784,1469.1715319086784,1.0000437253745438,0.00022914866940962545
1469.178476510843,1469.178476510843,1.0000166649305104,0.0002291280145214879
1469.1854211129958,1469.1854211129958,1.0000292055168634,0.00022902938912218912
1469.1923657151133,1469.1923657151133,0.9999290114693874,0.0002290749777643267
1469.199310317208,1469.199310317208,0.999888062884635,0.00022909843129110928
1469.2062549192676,1469.2062549192676,1.0002392168908532,0.0002292064185500251
1469.213199521304,1469.213199521304,1.0002135480408394,0.00022911760294265518
1469.2201441233055,1469.2201441233055,0.9998164386106436,0.00022908606505903594
1469.2270887252719,1469.2270887252719,1.0001814341628443,0.0002291621887507147
1469.234033327215,1469.234033327215,0.9999786382778737,0.0002291098999099265
1469.2409779291586,1469.2409779291586,0.9999112243617002,0.00022908637295260742
1469.247922531032,1469.247922531032,0.9998261868228646,0.0002291253648371328
1469.2548671329052,1469.2548671329052,1.000200295067109,0.0002291423972767005
1469.2618117347315,1469.2618117347315,1.0001972282822864,0.00022918852149865425
1469.268756336535,1469.268756336535,0.9997255556660474,0.00022903452325108136
1469.2757009383156,1469.2757009383156,0.9999113871378682,0.00022902234908593762
1469.2826455400495,1469.2826455400495,1.0003570065086342,0.00022917904808495435
1469.2895901417717,1469.2895901417717,0.9999217829507439,0.00022907789475187652
1469.2965347434815,1469.2965347434815,1.0001140702870919,0.00022914564750680847
1469.3034793451338,1469.3034793451338,1.0002102803698465,0.00022912884502349382
1469.3104239467514,1469.3104239467514,0.9994855897938362,0.00022907094173154878
1469.3173685483569,1469.3173685483569,1.0000492285218676,0.00022905846490495213
1469.3243131499391,1469.3243131499391,0.9998902947916293,0.00022908894784020467
1469.3312577514632,1469.3312577514632,0.9997907685288636,0.00022909843031165847
1469.3382023529873,1469.3382023529873,1.0001393490267012,0.00022912486076790396
1469.3451469544768,1469.3451469544768,1.0004300337876415,0.00022916302538752807
1469.3520915559309,1469.3520915559309,1.0000646061829044,0.00022911443329848616
1469.359036157362,1469.359036157362,1.0000025257099425,0.00022920436456666093
1469.365980758758,1469.365980758758,1.0003021758143498,0.00022919401921269998
1469.3729253601423,1469.3729253601423,0.99962132107666,0.00022909086890245353
1469.379869961457,1469.379869961457,0.9995997182215246,0.00022908215752539437
1469.3868145627832,1469.3868145627832,0.9998665878878514,0.00022919343912806116
1469.393759164051,1469.393759164051,1.0000688740862327,0.00022913296697054772
1469.4007037653075,1469.4007037653075,1.0000998816335327,0.00022911320503338903
1469.407648366529,1469.407648366529,1.0002713101979104,0.0002290867481385712
1469.414592967727,1469.414592967727,1.0001518955327215,0.00022916707361275335
1469.4215375688905,1469.4215375688905,0.9997998653906934,0.0002290887612589275
1469.4284821700305,1469.4284821700305,1.0000811035255115,0.00022915344822540734
1469.435426771147,1469.435426771147,0.9996955684014367,0.00022910820071978764
1469.4423713722404,1469.4423713722404,1.000150898600433,0.0002291684741939579
1469.449315973264,1469.449315973264,1.0001859000477278,0.0002291231226055108
1469.4562605742874,1469.4562605742874,1.0000359974037254,0.00022920282990582423
1469.463205175276,1469.463205175276,0.9999327831506296,0.00022909095136000617
1469.4701497762417,1469.4701497762417,0.9998433216316954,0.00022909398586068542
1469.4770943771719,1469.4770943771719,1.0000598886294736,0.00022913868639180484
1469.4840389780788,1469.4840389780788,0.9999567310417282,0.00022912960406318013
1469.4909835789508,1469.4909835789508,1.000074365024894,0.0002291315889859982
1469.4979281798003,1469.4979281798003,0.9999140282652957,0.00022910597670409695
1469.504872780591,1469.504872780591,1.0000100249061914,0.00022913074789059513
1469.5118173813698,1469.5118173813698,0.9999329878932169,0.00022909407904215447
1469.5187619821488,1469.5187619821488,0.9999499186540612,0.00022914688627949628
1469.525706582881,1469.525706582881,0.9998916720257741,0.00022911275812448518
1469.5326511835676,1469.5326511835676,1.0006506062563265,0.0002292192988805429
1469.5395957842418,1469.5395957842418,1.0001026311200572,0.00022916325449815877
1469.546540384869,1469.546540384869,0.9995673611399598,0.00022906182464425487
1469.5534849854853,1469.5534849854853,0.9999031779282322,0.00022917710774285398
1469.5604295860664,1469.5604295860664,1.0000126834001275,0.00022911693878072337
1469.5673741866126,1469.5673741866126,0.9999639986643182,0.00022913024292578558
1469.5743187871474,1469.5743187871474,1.0001717633985634,0.00022921279623209172
1469.5812633876474,1469.5812633876474,0.99965671091151,0.00022912306984455415
1469.5882079880769,1469.5882079880769,0.9998632682838245,0.0002291477935040561
1469.59515258853,1469.59515258853,1.00010742086347,0.00022917973398892369
1469.6020971889134,1469.6020971889134,1.000067068588646,0.0002291458025031117
1469.6090417892967,1469.6090417892967,1.0003079782081206,0.00022921132128499508
1469.6159863896332,1469.6159863896332,1.0001704453736617,0.00022921888341381367
1469.6229309899586,1469.6229309899586,1.0001070314896308,0.00022916859903214076
1469.6298755902367,1469.6298755902367,1.0000504653638753,0.00022913748328717682
1469.636820190492,1469.636820190492,0.9997216662529885,0.00022911014639291448
1469.643764790701,1469.643764790701,0.9999547785096267,0.00022918482062733126
1469.6507093908974,1469.6507093908974,0.9996389074776934,0.0002290824858913692
1469.6576539910832,1469.6576539910832,1.0001083165505418,0.00022914797992843453
1469.66459859121,1469.66459859121,0.9997323605634566,0.00022917341466714014
1469.671543191314,1469.671543191314,1.0002434227525592,0.0002292141865626269
1469.6784877913947,1469.6784877913947,0.9999522677703325,0.00022919281454701875
1469.6854323914404,1469.6854323914404,1.000040375785662,0.00022916521158726573
1469.6923769914629,1469.6923769914629,1.0001365360881338,0.00022919303917948267
1469.6993215914385,1469.6993215914385,1.0001195357158328,0.00022922263393640249
1469.7062661914024,1469.7062661914024,0.999887928074757,0.00022914219970607245
1469.713210791332,1469.713210791332,0.9998830270126164,0.00022915462416124886
1469.7201553912378,1469.7201553912378,1.000186493535765,0.00022915558767682597
1469.7270999910857,1469.7270999910857,1.0001488175468825,0.00022915674364703403
1469.7340445909335,1469.7340445909335,0.9999437948598627,0.0002291498749755399
1469.7409891907341,1469.7409891907341,1.0000842104115701,0.0002291366217050853
1469.7479337905238,1469.7479337905238,0.9997886021172961,0.0002291535138618643
1469.754878390267,1469.754878390267,1.0000744327092446,0.00022912493500050262
1469.7618229899867,1469.7618229899867,0.9997184965850406,0.00022913893986576295
1469.7687675896711,1469.7687675896711,0.9998913111892451,0.00022913505220310379
1469.7757121893214,1469.7757121893214,0.9999104110525984,0.00022914827901772614
1469.7826567889358,1469.7826567889358,1.0001637651275577,0.00022917296453147003
1469.789601388551,1469.789601388551,1.0002381364521655,0.00022916784447893582
1469.7965459881311,1469.7965459881311,1.0002041009369562,0.00022916707692426336
1469.8034905876646,1469.8034905876646,0.9999782163894751,0.0002291967365494455
1469.810435187175,1469.810435187175,0.9999306851985119,0.00022916346614652131
1469.81737978665,1469.81737978665,0.9994627790453485,0.00022913244403478247
1469.8243243861016,1469.8243243861016,1.0005239818305458,0.00022925884893909413
1469.8312689855188,1469.8312689855188,1.0001548687754118,0.0002292446413753463
1469.8382135849129,1469.8382135849129,1.000174104844033,0.00022936850117689488
1469.8451581842485,1469.8451581842485,0.9997213926930387,0.00022916329575404197
1469.8521027835723,1469.8521027835723,0.9995811260504537,0.00022914429164263092
1469.8590473828956,1469.8590473828956,1.0000873649785633,0.00022918185062198652
1469.8659919821498,1469.8659919821498,0.9998739440409512,0.00022924964859813841
1469.872936581404,1469.872936581404,1.0001858008423317,0.000229300262456985
1469.8798811806114,1469.8798811806114,0.9994972560478592,0.00022909868597606285
1469.886825779784,1469.886825779784,1.0005107990020703,0.00022922113219185275
1469.8937703789331,1469.8937703789331,1.0000787622205756,0.00022921654587154528
1469.9007149780475,1469.9007149780475,0.999889624465631,0.00022917009083405523
1469.907659577127,1469.907659577127,1.0000608706058947,0.0002291428603436672
1469.9146041762062,1469.9146041762062,1.000269367391994,0.00022918223966173355
1469.9215487752276,1469.9215487752276,0.9999949437027992,0.00022925905624508573
1469.9284933742142,1469.9284933742142,1.0000637557753813,0.00022915310385641227
1469.9354379731767,1469.9354379731767,0.9999694389941631,0.00022909404236159977
1469.9423825721167,1469.9423825721167,0.9997615213829685,0.0002290654589273123
1469.9493271710096,1469.9493271710096,0.9998239741271776,0.00022914657894947062
1469.9562717698914,1469.9562717698914,0.9999268709359412,0.00022921440079204294
1469.963216368738,1469.963216368738,1.0002758780569903,0.00022915702235417219
1469.9701609675499,1469.9701609675499,0.9998793674103794,0.00022913281470980732
1469.977105566338,1469.977105566338,1.000132277915641,0.0002291879788419968
1469.9840501650795,1469.9840501650795,0.9999184578404938,0.00022917137093820395
1469.9909947638212,1469.9909947638212,1.000258127068257,0.00022917671318492894
1469.9979393625053,1469.9979393625053,0.9998939111113117,0.00022916408918215907
1470.0048839611657,1470.0048839611657,0.9998935671653866,0.0002291203831733219
1470.0118285598026,1470.0118285598026,0.9999734144289416,0.00022914360229350138
1470.0187731583926,1470.0187731583926,0.9999465667579944,0.00022921535420253295
1470.0257177569715,1470.0257177569715,0.9999425695638798,0.0002291920588265961
1470.0326623555043,1470.0326623555043,1.0000801907324206,0.00022917239318510788
