time,time,flux,flux_err,quality,centroid_col,centroid_row
2559.068607601068,2559.068607601068,,,524288,825.0303402063953,997.5215205618757
2559.0890399405253,2559.0890399405253,1.0005769,8.002126e-05,0,824.945087694432,997.5277169904557
2559.109472279517,2559.109472279517,1.0006331,8.004526e-05,0,824.862769069757,997.5325685632127
2559.1299046180357,2559.1299046180357,1.0001712,8.006641e-05,0,824.7704290840559,997.5358208172063
2559.1503369556303,2559.1503369556303,0.9998982,8.006741e-05,0,824.6730338631812,997.5386799899256
2559.1707692927594,2559.1707692927594,0.99951804,8.007418e-05,0,824.5778294689349,997.5438491951797
2559.1912016294154,2559.1912016294154,0.9989307,8.002208e-05,0,824.4756485124572,997.5513525964001
2559.2116340651482,2559.2116340651482,0.99834204,7.999343e-05,0,824.370568175292,997.5572719914074
2559.232066300414,2559.232066300414,0.9980055,7.9928104e-05,0,824.2741317019253,997.5622406084858
2559.272931069543,2559.272931069543,1.0000302,8.003904e-05,0,824.742510638775,997.5236093419352
2559.293363302946,2559.293363302946,0.9996079,8.0080536e-05,0,824.6558385765059,997.5264082319022
2559.3137957358776,2559.3137957358776,0.9996434,8.0061574e-05,0,824.5700796327213,997.5309513645819
2559.33422806835,2559.33422806835,0.99936384,8.005849e-05,0,824.4744465759263,997.5356674414081
2559.354660300356,2559.354660300356,0.998627,8.0019985e-05,0,824.3711429324574,997.540791948152
2559.375092731425,2559.375092731425,0.9984042,7.9941216e-05,0,824.270335548382,997.5464939047558
2559.3955250620347,2559.3955250620347,0.9985327,7.9886915e-05,0,824.1841712994791,997.5501327404545
2559.415957292178,2559.415957292178,0.9993386,7.9760226e-05,0,824.1075581668393,997.553252185449
2559.4363897213843,2559.4363897213843,1.0005918,7.9600584e-05,0,824.0300845532225,997.5571126232228
2559.456822050597,2559.456822050597,,,0,823.950028572402,997.562532171172
2559.477254278878,2559.477254278878,1.0036836,7.988935e-05,2048,823.871323918064,997.5691689344061
2559.518119034037,2559.518119034037,1.0002929,7.9915706e-05,0,825.017832090266,997.479319087679
2559.538551360456,2559.538551360456,1.0005583,7.997809e-05,0,824.9413796585242,997.485402572334
2559.558983686402,2559.558983686402,1.0005594,7.999745e-05,0,824.8641829833168,997.4909884387594
2559.5794160118894,2559.5794160118894,1.0006061,8.0032165e-05,0,824.7834974212836,997.4946594911946
2559.599848336904,2559.599848336904,0.9999294,8.0010956e-05,0,824.7004965349117,997.4989410739706
2559.6202806609945,2559.6202806609945,0.9998863,8.003905e-05,0,824.616648439318,997.5035769214466
2559.6407129846193,2559.6407129846193,0.999536,8.0028185e-05,0,824.5298752988236,997.5095184917559
2559.661145307313,2559.661145307313,0.99920475,8.0047306e-05,0,824.4380427209317,997.5138361217225
2559.681577629999,2559.681577629999,0.9983234,7.9991354e-05,0,824.3453620902392,997.5193776837777
2559.7020099517613,2559.7020099517613,0.9984943,7.9933336e-05,0,824.2560404240573,997.5255154932319
2559.7224423730513,2559.7224423730513,0.9990577,7.983002e-05,0,824.1674168767289,997.5309520470262
2559.763306913781,2559.763306913781,0.9995236,8.002052e-05,0,824.5107067831591,997.5031979207088
2559.7837393332084,2559.7837393332084,0.9990684,7.999331e-05,0,824.4270345958596,997.5089958378842
2559.804171552176,2559.804171552176,0.9987844,7.992877e-05,0,824.3463890687307,997.5153077532021
2559.8246038706784,2559.8246038706784,0.99853593,7.9917496e-05,0,824.2587788307837,997.5217863595204
2559.845036288243,2559.845036288243,0.9990915,7.98371e-05,8192,824.1749314605584,997.526517752553
2559.865468505348,2559.865468505348,0.9997552,7.9684534e-05,0,824.0955703023312,997.5311869553218
2559.885900821988,2559.885900821988,1.0015494,7.9482714e-05,0,824.0166047260018,997.5364982559736
2559.9063332381556,2559.9063332381556,1.0028851,7.922415e-05,0,823.9462972286751,997.542000954788
2559.926765453398,2559.926765453398,,,0,823.8775918072571,997.5494780747168
2559.947197868176,2559.947197868176,,,0,823.8110964412807,997.5539922965313
2559.96763018248,2559.96763018248,,,0,823.743130035883,997.560655517175
2560.008494809241,2560.008494809241,1.0005016,7.995652e-05,0,824.8155774482188,997.4729377623756
2560.0289271216825,2560.0289271216825,1.0005962,7.9987505e-05,0,824.7359798720029,997.4787136805576
2560.049359433666,2560.049359433666,0.9998748,7.994513e-05,0,824.6569553504896,997.4836427250543
2560.0697917451835,2560.0697917451835,0.9996824,7.994287e-05,0,824.5782101672405,997.4900452910015
2560.0902240557625,2560.0902240557625,0.99961776,7.996414e-05,0,824.4972316896392,997.4956715326095
2560.110656365883,2560.110656365883,0.999087,7.994077e-05,0,824.4112462909956,997.5015764095848
2560.131088675538,2560.131088675538,0.99885875,7.988512e-05,0,824.3207540240815,997.5093389322827
2560.1515209847203,2560.1515209847203,0.9988096,7.981042e-05,0,824.230242430755,997.5148344162828
2560.1719532929783,2560.1719532929783,0.99945253,7.971617e-05,0,824.1472097625108,997.5202008409315
2560.1923857007714,2560.1923857007714,1.0006498,7.9546066e-05,0,824.0684782506339,997.5255598832825
2560.21281790809,2560.21281790809,,,0,823.9911231704491,997.530997688721
2560.2536826208816,2560.2536826208816,1.000479,7.9881735e-05,0,824.8431725672214,997.4649938332819
2560.2741148263376,2560.2741148263376,1.0002934,7.989952e-05,0,824.7606207382717,997.471191340013
2560.2945472313368,2560.2945472313368,1.0001342,7.9902864e-05,0,824.6782093275015,997.4768796906203
2560.3149795358695,2560.3149795358695,0.9997828,7.9913254e-05,0,824.5985189283947,997.4822622895865
2560.335411739463,2560.335411739463,0.9996724,7.991624e-05,0,824.5149963571773,997.4883378833272
2560.355844143065,2560.355844143065,0.9991861,7.9890444e-05,0,824.4281706584786,997.4947106814826
2560.3762764452695,2560.3762764452695,0.99904805,7.985716e-05,0,824.3336602049367,997.5010139530873
2560.396708647466,2560.396708647466,0.9990655,7.980203e-05,0,824.2446838863763,997.5076553042582
2560.4171410492054,2560.4171410492054,0.9995513,7.967952e-05,0,824.1610425792911,997.5126337058266
2560.437573250012,2560.437573250012,1.0005187,7.955793e-05,0,824.0815238774783,997.5183293311802
2560.4580055503466,2560.4580055503466,,,0,824.0047909334654,997.5242035621766
2560.4988701491675,2560.4988701491675,0.9993749,7.987606e-05,0,824.4285574114488,997.4913049322408
2560.5193024476393,2560.5193024476393,0.9992252,7.9819205e-05,0,824.3349960000318,997.4977419933867
2560.5397348456536,2560.5397348456536,0.9988451,7.975854e-05,0,824.2459572497575,997.503930273808
2560.5601671432014,2560.5601671432014,0.9994293,7.968756e-05,0,824.1609258194464,997.5093190923662
2560.6010317359614,2560.6010317359614,1.0026017,7.926523e-05,0,823.9953170252052,997.5223132653686
2560.6214640316466,2560.6214640316466,1.0047547,7.897266e-05,0,823.9147523028086,997.5285193521584
2560.641896226858,2560.641896226858,,,0,823.8346525468212,997.536333704026
2560.6623286216127,2560.6623286216127,,,0,823.7527686313506,997.5432207300457
2560.682760915435,2560.682760915435,,,8192,823.6736484913306,997.5512620288956
2560.7031933087856,2560.7031933087856,,,8192,823.5968285770948,997.5576251922826
2560.744057793636,2560.744057793636,1.0005535,7.97524e-05,0,824.9513040150579,997.4427946955275
2560.7644901855892,2560.7644901855892,1.0005018,7.982007e-05,0,824.8663284360014,997.4497488228773
2560.784922376617,2560.784922376617,1.0006515,7.986138e-05,0,824.7859254253792,997.4561375298695
2560.80535466718,2560.80535466718,1.0003091,7.988664e-05,0,824.7027537248384,997.4624213386359
2560.825787056805,2560.825787056805,1.0001092,7.985279e-05,0,824.6188414067481,997.4681575035515
2560.846219246436,2560.846219246436,1.0000864,7.9890495e-05,0,824.539609276046,997.4730727624641
2560.866651535136,2560.866651535136,0.99963987,7.985886e-05,0,824.4537261430377,997.4787984278687
2560.887083923364,2560.887083923364,0.99930227,7.983894e-05,0,824.3631794850197,997.4860904760089
2560.9075161106666,2560.9075161106666,0.99916387,7.977082e-05,0,824.2749964454132,997.4919430603286
2560.92794839797,2560.92794839797,0.9996164,7.966758e-05,0,824.1879688940999,997.4974364891656
2560.9483807843353,2560.9483807843353,1.0004238,7.953571e-05,0,824.1043532657994,997.5031633794258
2561.0096776401842,2561.0096776401842,1.000346,7.974648e-05,0,824.9500766122799,997.439036488352
2561.030109924228,2561.030109924228,1.0006537,7.9799196e-05,0,824.8910079874236,997.4445337329937
2561.050542107805,2561.050542107805,1.0005715,7.983319e-05,0,824.8295028149485,997.4499060895697
2561.070974490911,2561.070974490911,1.000692,7.982837e-05,0,824.7645605284836,997.4552588709265
2561.0914067735575,2561.0914067735575,1.0003697,7.986728e-05,0,824.6969663579557,997.4589250416012
2561.111838955272,2561.111838955272,1.0001224,7.9863836e-05,0,824.6286454965377,997.4632935358663
2561.1322713365153,2561.1322713365153,0.9999709,7.984656e-05,0,824.5582413321717,997.4684555743038
2561.1527035172985,2561.1527035172985,0.9998323,7.983557e-05,0,824.4825381492296,997.4729412517402
2561.1731358971447,2561.1731358971447,0.99947757,7.984299e-05,0,824.4037432019778,997.4778551308603
2561.1935681769974,2561.1935681769974,0.9993918,7.976307e-05,0,824.3199994355646,997.4832946022925
2561.2344327343744,2561.2344327343744,1.0005898,7.982632e-05,0,824.8261593528357,997.4463413445392
2561.254865012357,2561.254865012357,1.0007105,7.983637e-05,0,824.755329115876,997.4516152756412
2561.275297189415,2561.275297189415,1.0003705,7.986354e-05,0,824.6782640196985,997.456609939229
2561.2957295660017,2561.2957295660017,1.0001495,7.9852674e-05,0,824.6020329273824,997.4632164929967
2561.316161842129,2561.316161842129,1.0000746,7.984789e-05,0,824.5265750295679,997.4684470071081
2561.33659401779,2561.33659401779,0.99989045,7.983727e-05,0,824.4491572771324,997.4740213222186
2561.357026392987,2561.357026392987,0.99950284,7.9777754e-05,0,824.3707698128642,997.4792852937951
2561.3774586672444,2561.3774586672444,0.99927264,7.972216e-05,0,824.2952101103826,997.4842380347492
2561.3978909410434,2561.3978909410434,0.99953943,7.966236e-05,0,824.2189988943222,997.4894542219661
2561.4183232143696,2561.4183232143696,0.9999806,7.9565616e-05,0,824.146832296173,997.4941599231657
2561.4387554867717,2561.4387554867717,1.0009913,7.945715e-05,0,824.079881998349,997.4978972322803
2561.4796200306373,2561.4796200306373,1.0002058,7.985804e-05,0,824.6781902196972,997.4547636654263
2561.5000523016424,2561.5000523016424,1.0000271,7.984255e-05,0,824.6141554228623,997.4601928812858
2561.520484572182,2561.520484572182,1.0002923,7.984067e-05,0,824.5452005978505,997.4658483587207
2561.5409169417835,2561.5409169417835,1.0000029,7.982722e-05,0,824.4710462592094,997.4720438401621
2561.561349110925,2561.561349110925,0.99964267,7.97874e-05,0,824.3927423294492,997.4761112227433
2561.581781379602,2561.581781379602,0.9992789,7.971962e-05,0,824.3139348029733,997.482435152019
2561.6022137478067,2561.6022137478067,0.9994,7.966014e-05,0,824.2360138003469,997.4876147794131
2561.6226459155514,2561.6226459155514,0.99983776,7.957575e-05,0,824.1632052790201,997.4921731867986
2561.6430781823656,2561.6430781823656,1.0007225,7.94523e-05,0,824.0927211140674,997.4965735876654
2561.6635105487076,2561.6635105487076,1.0023755,7.9283105e-05,0,824.0264380891017,997.5015080090164
2561.6839427145896,2561.6839427145896,1.0038886,7.9504534e-05,2048,823.9569308557585,997.507303427407
2561.724807344952,2561.724807344952,1.0000377,7.983052e-05,0,824.56100116369,997.4619767640277
2561.7452395089713,2561.7452395089713,0.99995434,7.98113e-05,0,824.4808516903418,997.4683409003482
2561.7656718725266,2561.7656718725266,0.999757,7.9772435e-05,0,824.3982680994968,997.4752247135723
2561.786104135608,2561.786104135608,0.9992997,7.970961e-05,0,824.3137016315832,997.4809232816198
2561.806536297765,2561.806536297765,0.9992634,7.96432e-05,0,824.231551279303,997.4870604311418
2561.8269686599233,2561.8269686599233,0.9998969,7.952727e-05,0,824.1517699125666,997.4923928800963
2561.8474009211423,2561.8474009211423,1.0011492,7.941219e-05,0,824.0772520104442,997.498180828404
2561.867833181903,2561.867833181903,1.0028093,7.923613e-05,0,824.0058818257306,997.5044818135793
2561.888265441732,2561.888265441732,,,0,823.9300841108518,997.5109775429394
2561.908697701554,2561.908697701554,,,0,823.8580197033186,997.5179533287528
2561.929129860451,2561.929129860451,,,0,823.7874240110721,997.5234180903266
2561.9699944768436,2561.9699944768436,0.99999344,7.9619436e-05,0,825.0087373549104,997.4262096141548
2561.9904266343437,2561.9904266343437,1.0004574,7.969953e-05,0,824.9362260649991,997.4320747864246
2562.010858990914,2562.010858990914,1.0004308,7.975636e-05,0,824.8668051548283,997.438580210056
2562.031291247011,2562.031291247011,1.0004733,7.979088e-05,0,824.7986691389583,997.4447875754612
2562.0517234026483,2562.0517234026483,1.0005754,7.982917e-05,0,824.728557468607,997.4489827287415
2562.0721557578217,2562.0721557578217,1.0001479,7.98172e-05,0,824.6578944921686,997.4545823635874
2562.0925880125214,2562.0925880125214,0.999943,7.980933e-05,0,824.5837369079311,997.4598773428665
2562.1130201662963,2562.1130201662963,1.0000528,7.9806945e-05,0,824.5101126525899,997.4652026509614
2562.133452519607,2562.133452519607,0.99967563,7.97842e-05,0,824.434713424643,997.4688197930261
2562.153884772444,2562.153884772444,0.9994571,7.9740625e-05,0,824.3548153421912,997.4760941978178
2562.174316924822,2562.174316924822,0.999297,7.966736e-05,0,824.2733400058521,997.482696140921
2562.2151815272446,2562.2151815272446,1.0004232,7.9807316e-05,0,824.7399171452645,997.446048909692
2562.2356137777606,2562.2356137777606,1.0001733,7.980627e-05,0,824.6633442200603,997.4508329024917
2562.256046027811,2562.256046027811,1.0001578,7.981402e-05,0,824.5873296624231,997.4578293339055
2562.2764782773884,2562.2764782773884,1.0001335,7.979033e-05,0,824.5057583396774,997.4641300137212
2562.2969105260418,2562.2969105260418,0.9995996,7.977462e-05,0,824.4226196651604,997.4718329374583
2562.3173427742295,2562.3173427742295,0.9993555,7.970048e-05,0,824.3377156811079,997.4786896736691
2562.3377750219443,2562.3377750219443,0.99938655,7.964463e-05,0,824.2600601351793,997.4835260353653
2562.3582072692006,2562.3582072692006,0.9996806,7.9553705e-05,0,824.1848475306704,997.4878484469409
2562.378639615985,2562.378639615985,1.0003867,7.944637e-05,0,824.114018295346,997.4933869193828
2562.3990717618435,2562.3990717618435,1.001853,7.930341e-05,0,824.0447502732229,997.5001929945481
2562.4195040072373,2562.4195040072373,1.0034703,7.950578e-05,2048,823.9809923811883,997.5062309313017
2562.4603684966205,2562.4603684966205,1.0002345,7.980155e-05,0,824.6751502380512,997.451539467497
2562.4808008401524,2562.4808008401524,1.0002121,7.982538e-05,0,824.6053090280354,997.4576676422028
2562.5012330832105,2562.5012330832105,1.0001093,7.978326e-05,0,824.5253171173347,997.4637324008377
2562.5216652258096,2562.5216652258096,0.9997627,7.976844e-05,0,824.4418664094413,997.4687810675438
2562.5420975679444,2562.5420975679444,0.99927324,7.9724305e-05,0,824.3604751668465,997.4753731563056
2562.562529809613,2562.562529809613,0.99930626,7.9647085e-05,0,824.2755178685336,997.4816051802443
2562.582961950342,2562.582961950342,0.9996606,7.9551115e-05,0,824.1903747854496,997.4870921318047
2562.60339429108,2562.60339429108,1.0006831,7.940399e-05,0,824.1044640526338,997.4946821406611
2562.6238265308784,2562.6238265308784,1.002465,7.924023e-05,0,824.0240142755652,997.5014174485282
2562.644258670218,2562.644258670218,,,0,823.9477497942153,997.507237609048
2562.6646910086274,2562.6646910086274,,,0,823.8776737423645,997.5141546491454
2562.7055553845057,2562.7055553845057,1.0004368,7.979491e-05,0,824.7003938661662,997.4490459012366
2562.7259877215183,2562.7259877215183,1.0001726,7.982332e-05,8192,824.6227060049811,997.4540377777703
2562.7464199580572,2562.7464199580572,1.0000479,7.9799844e-05,0,824.5474783841142,997.4606650735166
2562.7668520936713,2562.7668520936713,0.99987817,7.977627e-05,0,824.4655889207133,997.4661461290905
2562.787284429287,2562.787284429287,0.9996764,7.9739366e-05,0,824.3856002137447,997.4723777429708
2562.8077166639705,2562.8077166639705,0.9990836,7.9658974e-05,0,824.3031044452487,997.4781472604132
2562.8281487981803,2562.8281487981803,0.9996795,7.958832e-05,0,824.2237464785433,997.4850566662561
2562.8485811319333,2562.8485811319333,0.99987864,7.948944e-05,0,824.1479217661526,997.4900411099944
2562.869013364747,2562.869013364747,1.0013722,7.9378566e-05,0,824.0731382063802,997.495718210479
2562.889445497567,2562.889445497567,,,0,824.0008288017361,997.5022950902191
2562.9098778294574,2562.9098778294574,1.0049024,7.939824e-05,2048,823.9280187115121,997.5085166549596
2562.9507421918315,2562.9507421918315,1.000313,7.967005e-05,0,824.9582441883884,997.4265784479576
2562.971174521859,2562.971174521859,1.0002882,7.9697835e-05,0,824.9130818638423,997.4295649799739
2562.991606751413,2562.991606751413,1.0004383,7.974673e-05,0,824.8617930775841,997.4340672247214
2563.0120388809737,2563.0120388809737,1.000379,7.97712e-05,0,824.8101988256839,997.4370396381828
2563.0324712096044,2563.0324712096044,1.0005069,7.977971e-05,0,824.7589117612484,997.440236906936
2563.052903437303,2563.052903437303,1.0003588,7.980407e-05,0,824.7025727945079,997.4461256117743
2563.0733356649944,2563.0733356649944,1.000114,7.980258e-05,0,824.6418308876739,997.4507582318847
2563.0937678917617,2563.0937678917617,1.0002054,7.9808546e-05,0,824.5804754516853,997.4563918677485
2563.1142001185217,2563.1142001185217,0.9999895,7.978113e-05,0,824.5173536770644,997.4589866708169
2563.1346323443577,2563.1346323443577,0.99982893,7.9741294e-05,0,824.4481392620755,997.4639486805788
2563.1550645692623,2563.1550645692623,0.99950045,7.9719764e-05,8192,824.3709652864883,997.4698774355296
2563.195929118134,2563.195929118134,1.0000778,7.9623824e-05,0,824.9799175619125,997.42377068229
2563.2163613416415,2563.2163613416415,1.00022,7.967714e-05,0,824.913317112349,997.4295572999297
2563.236793465141,2563.236793465141,1.0005146,7.975129e-05,0,824.8471179574317,997.4353323379125
2563.2572257872525,2563.2572257872525,1.0005038,7.978767e-05,0,824.7827510997705,997.4401771909644
2563.277658009363,2563.277658009363,1.0005641,7.979918e-05,0,824.7166187128696,997.4451075994555
2563.298090130542,2563.298090130542,1.0001847,7.977528e-05,0,824.6465175581691,997.44873020408
2563.3185224517147,2563.3185224517147,0.99995255,7.98e-05,0,824.580489323625,997.4559448518494
2563.3389546719627,2563.3389546719627,0.9999288,7.978476e-05,0,824.5143021141291,997.4621670749564
2563.3593867912714,2563.3593867912714,0.9999248,7.976276e-05,0,824.4479972752679,997.4671622485153
2563.379819110589,2563.379819110589,0.9995479,7.972669e-05,0,824.3797972798258,997.4719192007005
2563.4002512289735,2563.4002512289735,0.9991358,7.965595e-05,0,824.3022654156218,997.4778856412926
2563.4411157648065,2563.4411157648065,1.0001875,7.979911e-05,0,824.6757695877309,997.4496838998482
2563.461547881794,2563.461547881794,1.0001163,7.980093e-05,0,824.6072442508331,997.4534434862048
2563.481980097844,2563.481980097844,0.99998444,7.978469e-05,0,824.5446220181691,997.4587181963788
2563.5024124139018,2563.5024124139018,0.9999258,7.977783e-05,0,824.482460918146,997.4634982957066
2563.5228445290268,2563.5228445290268,0.9997455,7.9744656e-05,0,824.4184453415173,997.4683479500857
2563.5432767436796,2563.5432767436796,0.9995067,7.970922e-05,0,824.3519337832631,997.4718109859922
2563.563709057875,2563.563709057875,0.9992961,7.963603e-05,0,824.2862791969247,997.4760398761603
2563.5841412716036,2563.5841412716036,0.9996102,7.956424e-05,0,824.2195710081932,997.4816068052434
2563.604573384393,2563.604573384393,0.99984884,7.9485435e-05,0,824.1537305634533,997.4868544684424
2563.625005697191,2563.625005697191,1.0009301,7.9371355e-05,0,824.0892611543767,997.4929202572368
2563.6454379090574,2563.6454379090574,,,0,824.0242061332385,997.4973299586029
2563.6863023313854,2563.6863023313854,1.0007434,7.979824e-05,0,824.7209285787886,997.444978141586
