time,time,flux,flux_err
1354.1148088127602,1354.1148088127602,1.0000317951962758,0.0002872211474167533
1354.1236053209195,1354.1236053209195,1.000186331588967,0.0002873425766329907
1354.131938855092,1354.131938855092,0.9999497433270776,0.0002873224975798634
1354.1402723893907,1354.1402723893907,0.9999198072889519,0.00028729632110894177
1354.1479114626186,1354.1479114626186,1.0001764703342633,0.00026231098520284213
1354.1548560747092,1354.1548560747092,1.0000106951328225,0.0002623032051486773
1354.1618006869164,1354.1618006869164,0.9997890207398944,0.0002622740431802677
1354.1687452991823,1354.1687452991823,0.9993514421266092,0.0002621992239578603
1354.1756899115292,1354.1756899115292,0.9996419624801858,0.000262245378710059
1354.1826345239579,1354.1826345239579,1.0000478311334677,0.0002622728708609627
1354.1895791364564,1354.1895791364564,1.0000159682243484,0.00026227560454017857
1354.1965237490363,1354.1965237490363,1.0000268302613804,0.00026225309660292347
1354.2034683616857,1354.2034683616857,1.0002469419942106,0.00026228863838237057
1354.2104129744052,1354.2104129744052,0.9999006624351645,0.00026226134773008855
1354.2173575872062,1354.2173575872062,1.000303460697197,0.0002622765799060594
1354.2243022000655,1354.2243022000655,1.00029669467675,0.0002622791736891104
1354.231246812983,1354.231246812983,0.9999363344314058,0.00026223224296345393
1354.2381914259818,1354.2381914259818,0.9994444137299974,0.00026221306034322073
1354.2451360390628,1354.2451360390628,1.0002807314513782,0.00026231216989632927
1354.2520806521777,1354.2520806521777,1.000096524268945,0.0002622777416772356
1354.2590252653629,1354.2590252653629,0.9997832958724542,0.0002622325024468531
1354.265969878618,1354.265969878618,1.0001632626403736,0.0002622775681061139
1354.2729144919313,1354.2729144919313,0.9999442187630587,0.0002622483669097907
1354.2798591053147,1354.2798591053147,1.0000152200977852,0.0002622699907465705
1354.286803718744,1354.286803718744,0.9997291243654939,0.0002622311574641093
1354.29374833222,1354.29374833222,0.9995945622925907,0.0002622232488218464
1354.3006929457665,1354.3006929457665,1.0000029883599342,0.0002622937929756948
1354.3076375593707,1354.3076375593707,1.000451539496412,0.00026231187545211015
1354.3145821730218,1354.3145821730218,1.0002611168513924,0.0002623097415827929
1354.3215267867308,1354.3215267867308,1.000077229559237,0.00026228120451184426
1354.3284714004747,1354.3284714004747,1.0001777368776017,0.0002622899313478201
1354.3354160142887,1354.3354160142887,1.0002323543900933,0.0002622989958716245
1354.3423606281258,1354.3423606281258,0.9994276986259832,0.0002622223249915872
1354.3493052420442,1354.3493052420442,0.9995993988688436,0.00026222057310763835
1354.3562498559863,1354.3562498559863,1.0001581335309893,0.00026233517745158396
1354.3631944699864,1354.3631944699864,1.0001197542954092,0.0002623227642492965
1354.3701390840213,1354.3701390840213,0.9996737174769746,0.0002622703273706891
1354.3770836981148,1354.3770836981148,1.0000089162908607,0.00026230697082766275
1354.384028312231,1354.384028312231,1.0002809208258636,0.0002623474381931221
1354.3909729263946,1354.3909729263946,1.0001798435677869,0.0002623533608655907
1354.3979175406155,1354.3979175406155,0.9995455218399416,0.0002622741360784158
1354.4048621548604,1354.4048621548604,0.9998233803703943,0.00026231642403480116
1354.4118067691634,1354.4118067691634,1.000027508802669,0.0002623243372492952
1354.4187513834777,1354.4187513834777,1.0000889513791318,0.000262327789805938
1354.4256959978386,1354.4256959978386,0.9997776983166122,0.00026229779628309695
1354.4326406122461,1354.4326406122461,0.9998856055009723,0.00026229529190020904
1354.4395852266766,1354.4395852266766,1.000125458056579,0.00026230709865192266
1354.4465298411544,1354.4465298411544,1.0002570778365292,0.00026235503123213394
1354.4534744556436,1354.4534744556436,1.0000631121796568,0.00026230882479458153
1354.460419070179,1354.460419070179,1.000327380579194,0.0002623411197198842
1354.4673636847383,1354.4673636847383,0.9994584830309201,0.0002622736842962388
1354.4743082993318,1354.4743082993318,1.0001977944266174,0.0002623306680949632
1354.4812529139724,1354.4812529139724,1.000505670431569,0.00026238060684706884
1354.4881975286128,1354.4881975286128,0.9997669286185182,0.0002623022941542536
1354.4951421432995,1354.4951421432995,0.9998688498156788,0.00026232270755463733
1354.5020867580101,1354.5020867580101,0.9998645222687012,0.00026231723827034337
1354.5090313727549,1354.5090313727549,0.9994842266534214,0.00026227682362789986
1354.5159759875,1354.5159759875,1.0001833322739555,0.00026234687215163867
1354.5229206023039,1354.5229206023039,0.9999911437676469,0.00026233327705194357
1354.5298652171186,1354.5298652171186,1.0003778282201004,0.00026238495508802337
1354.5368098319454,1354.5368098319454,0.9999553767986082,0.00026231992494483015
1354.5437544468073,1354.5437544468073,0.9998804835971219,0.00026233577349579274
1354.5506990616802,1354.5506990616802,1.0001152034982066,0.00026234341154852253
1354.557643676589,1354.557643676589,1.0000208763341636,0.0002623258504498169
1354.5645882915082,1354.5645882915082,1.0003571936399167,0.0002623859478532722
1354.571532906451,1354.571532906451,0.9999348689507487,0.00026233850458951794
1354.5784775214063,1354.5784775214063,0.9997180796142491,0.00026233187775800775
1354.5854221363957,1354.5854221363957,0.9999258671972127,0.00026235480026332047
1354.5923667513853,1354.5923667513853,0.9997590635411541,0.0002623291848410713
1354.599311366422,1354.599311366422,1.0004594317406306,0.00026240790828018434
1354.6062559814575,1354.6062559814575,0.9994924287065935,0.00026230179260090683
1354.6132005964942,1354.6132005964942,0.9998257284946905,0.00026236020698787834
1354.6201452115417,1354.6201452115417,1.0004561710773208,0.00026239418956179106
1354.6270898266246,1354.6270898266246,1.0000788283053499,0.0002623876226793721
1354.6340344417192,1354.6340344417192,1.0002458166513266,0.00026241028614908693
1354.6409790568252,1354.6409790568252,1.0000221695084321,0.0002623836872783744
1354.6479236719429,1354.6479236719429,0.9999969699236078,0.00026239598461646997
1354.654868287072,1354.654868287072,0.9999812730152415,0.0002623865763464923
1354.6618129022133,1354.6618129022133,0.9996648902596975,0.0002623525455796748
1354.6687575173662,1354.6687575173662,0.9996056401783837,0.0002623642617361142
1354.6757021325302,1354.6757021325302,1.0003124144255575,0.00026247460947343787
1354.6826467477176,1354.6826467477176,1.000071209015141,0.0002624050732377292
1354.689591362894,1354.689591362894,0.9999035581666975,0.00026238378168157666
1354.696535978081,1354.696535978081,1.000096221856557,0.0002624119964685932
1354.7034805932803,1354.7034805932803,1.0000269273597269,0.0002624316512211477
1354.7104252084798,1354.7104252084798,0.9999010286810097,0.00026239234476247407
1354.7173698237025,1354.7173698237025,1.00003363200597,0.0002623921363229486
1354.7243144389133,1354.7243144389133,1.0001822031604772,0.00026242852777667543
1354.7312590541474,1354.7312590541474,0.9999171512208911,0.0002623764038369626
1354.7382036693814,1354.7382036693814,0.9999372340725626,0.0002624289160397352
1354.745148284627,1354.745148284627,1.0002957892699675,0.000262475338175861
1354.7520928998613,1354.7520928998613,1.0002323692657284,0.0002624673739936933
1354.7590375151185,1354.7590375151185,1.0000064735942555,0.00026245358478051487
1354.7659821303646,1354.7659821303646,0.9996483799246372,0.00026241535036384596
1354.7729267456218,1354.7729267456218,0.9997528543518603,0.00026242462341294744
1354.7798713608795,1354.7798713608795,1.0000794891863438,0.0002624664263361926
1354.7868159761367,1354.7868159761367,0.9998537691227576,0.00026243121821123216
1354.7937605914055,1354.7937605914055,0.9996560963507715,0.00026242379758645865
1354.8007052066746,1354.8007052066746,0.9999448754823772,0.00026245052057822236
1354.8076498219323,1354.8076498219323,1.0003679168842148,0.0002625273243194014
1354.8145944372013,1354.8145944372013,1.0002708519897083,0.0002624830155873645
1354.8215390524704,1354.8215390524704,1.000501619268219,0.00026250910496799146
1354.8284836677396,1354.8284836677396,0.999534424092758,0.00026238743022200087
1354.8354282829973,1354.8354282829973,0.9999886541880443,0.000262433959295053
1354.8423728982657,1354.8423728982657,0.9997045793105785,0.00026241789567074897
1354.849317513535,1354.849317513535,0.9999484842688918,0.0002624647580091281
1354.8562621287924,1354.8562621287924,1.0002683326160269,0.000262477317129899
1354.8632067440499,1354.8632067440499,1.000248998372711,0.0002624603792528608
1354.8701513593192,1354.8701513593192,0.9997632950403972,0.00026244626021285213
1354.8770959745764,1354.8770959745764,1.000175363041193,0.0002624916190835938
1354.884040589822,1354.884040589822,0.9999856965354562,0.000262465578123023
1354.8909852050679,1354.8909852050679,1.0000312759223207,0.00026248675497214104
1354.897929820314,1354.897929820314,0.999760612233818,0.000262452647983076
1354.9048744355591,1354.9048744355591,0.9995643211511489,0.0002624282781893883
1354.9118190507936,1354.9118190507936,1.000420303367828,0.0002625375628466233
1354.9187636660276,1354.9187636660276,0.9998346846563401,0.00026249304205292254
1354.9257082812503,1354.9257082812503,1.000340128446878,0.00026256630445790707
1354.9332084656992,1354.9332084656992,1.0003242429511279,0.0002625013991765394
1354.9409864347258,1354.9409864347258,0.9997749265492633,0.00026246716836524493
1354.9479310499369,1354.9479310499369,0.9999106712053886,0.00026249703400565126
1354.954875665136,1354.954875665136,0.9998873614629913,0.0002625181706448701
1354.9618202803235,1354.9618202803235,0.9999058546250001,0.0002624733791724314
1354.9687648955228,1354.9687648955228,0.9996496564854288,0.00026242655921659335
1354.975709510687,1354.975709510687,1.0003457102377091,0.00026254419645459323
1354.982654125863,1354.982654125863,1.000143954898757,0.000262543589437837
1354.989598741027,1354.989598741027,0.9998179104081103,0.00026246813941620516
1354.9965433561915,1354.9965433561915,1.0003127837451682,0.0002625654959404455
1355.0034879713323,1355.0034879713323,0.9999186367409176,0.00026251186675447233
1355.010432586462,1355.010432586462,0.99996591710128,0.0002624881881769099
1355.0173772015912,1355.0173772015912,0.9999470867547224,0.00026250073401367063
1355.0243218167207,1355.0243218167207,1.0002720702840993,0.0002624910400221848
1355.0312664318267,1355.0312664318267,0.9997855522086713,0.0002624853317128606
1355.0382110469327,1355.0382110469327,0.9997805886135758,0.0002625044589680709
1355.045155662016,1355.045155662016,0.9998622827585877,0.0002625082227526639
1355.0521002770868,1355.0521002770868,1.000334923974588,0.0002625613737039612
1355.0590448921696,1355.0590448921696,1.0000226238468533,0.0002625024508212942
1355.0659895072179,1355.0659895072179,1.0000229626371133,0.0002625499611530426
1355.0729341222534,1355.0729341222534,0.9995977946649652,0.0002624789698780507
1355.07987873729,1355.07987873729,1.00029541835023,0.0002625732379542301
1355.0868233523258,1355.0868233523258,1.0000151201346896,0.0002625196586842031
1355.0937679673275,1355.0937679673275,1.000091904161326,0.0002625198302681906
1355.1007125823405,1355.1007125823405,0.9998629798715125,0.0002624895139905027
1355.1076571973185,1355.1076571973185,1.000344423780134,0.00026254730635048515
1355.114601812285,1355.114601812285,0.9998065196699496,0.00026251723572661616
1355.1215464272514,1355.1215464272514,0.9999202220013664,0.0002625439857370074
1355.1284910421941,1355.1284910421941,0.9999882326675517,0.00026255354514492194
1355.1354356571376,1355.1354356571376,1.000073790720564,0.00026255775235279575
1355.1423802720456,1355.1423802720456,1.0001411407787155,0.00026257076893508314
1355.1493248869654,1355.1493248869654,1.0000161646211803,0.0002625631803967832
1355.156269501862,1355.156269501862,0.9997164874317687,0.0002625285095531354
1355.1632141167236,1355.1632141167236,1.0002433338705106,0.00026258019117022483
1355.170158731597,1355.170158731597,1.0000768280127414,0.00026255810299205616
1355.1771033464352,1355.1771033464352,0.999298052378613,0.0002624761613891643
1355.1840479612852,1355.1840479612852,0.9998597681373769,0.0002625388691755555
1355.1909925761006,1355.1909925761006,0.9996930913874948,0.0002624863284978479
1355.1979371909038,1355.1979371909038,1.0002997870940589,0.00026255988153413035
1355.2048818056837,1355.2048818056837,1.0006066595083072,0.0002625891805318446
1355.2118264204757,1355.2118264204757,1.0002514460888334,0.0002625328581723732
1355.2187710352207,1355.2187710352207,0.999960890078038,0.0002625043618189665
1355.2257156499659,1355.2257156499659,1.000248627519085,0.0002625417267726152
1355.2326602647113,1355.2326602647113,0.9999977565166043,0.00026255634888676187
1355.2396048793983,1355.2396048793983,0.999729050746717,0.0002624936388812882
1355.2465494940966,1355.2465494940966,0.99965500351825,0.0002624961311585449
1355.2534941087838,1355.2534941087838,0.9999484842530346,0.0002625302286946675
1355.2604387234362,1355.2604387234362,1.0000963543688386,0.00026256781915430825
1355.267383338088,1355.267383338088,0.9998015526915125,0.00026257011555751815
1355.274327952705,1355.274327952705,1.0002736610899565,0.0002625854043788792
1355.2812725673339,1355.2812725673339,0.9999711445767308,0.0002625807219477056
1355.2882171819163,1355.2882171819163,1.0000227691084183,0.00026256149808784313
1355.2951617964868,1355.2951617964868,0.999783366413142,0.00026251060849683455
1355.3021064110458,1355.3021064110458,1.000322944650741,0.0002625668672358166
1355.309051025593,1355.309051025593,0.9996302622016406,0.00026245988230266484
1355.3159956401053,1355.3159956401053,0.9999343971659226,0.0002625394124983485
1355.3229402546062,1355.3229402546062,1.0000165945821358,0.00026254195486701063
1355.329884869107,1355.329884869107,1.0006833308896217,0.0002626191142258606
1355.3382184064517,1355.3382184064517,0.999907396445528,0.0002625601248038546
1355.345163020906,1355.345163020906,0.9996062843108737,0.0002624931994587953
1355.3521076353254,1355.3521076353254,1.000153213481352,0.00026258394663514326
1355.359052249733,1355.359052249733,0.9999071759485021,0.00026256289938948784
1355.3659968641289,1355.3659968641289,1.000039195313597,0.00026256141012738504
1355.3729414784898,1355.3729414784898,0.9998892428096902,0.0002625370959772077
1355.3798860928512,1355.3798860928512,1.0000700891027123,0.0002625722094462951
1355.3868307071768,1355.3868307071768,0.999967308780081,0.00026253385534695084
1355.394053106058,1355.394053106058,1.0003176827856284,0.0002626281734207119
1355.4021088586385,1355.4021088586385,0.9996284498868426,0.0002625243429374287
1355.409053472918,1355.409053472918,0.999830337158792,0.0002625390079502404
1355.4159980871511,1355.4159980871511,1.0002765167607521,0.00026261827670773013
1355.4229427013843,1355.4229427013843,0.9998853109597755,0.0002625674858932448
1355.4298873155938,1355.4298873155938,0.9998585048230767,0.00026252497846868973
1355.4368319297803,1355.4368319297803,1.0003025643483292,0.0002625965318374623
1355.4437765439434,1355.4437765439434,1.0000799771309032,0.00026254427839129935
1355.4507211581063,1355.4507211581063,0.9996002232378007,0.0002625270830568279
1355.4576657722232,1355.4576657722232,1.0005519368680484,0.00026263438055315445
1355.464610386328,1355.464610386328,0.9998937720564228,0.0002625738936112809
1355.4715550004214,1355.4715550004214,1.0001444294146662,0.0002625640418060442
1355.47849961448,1355.47849961448,1.0000027331435342,0.00026255589391903876
1355.4854442285264,1355.4854442285264,0.999635092713058,0.0002625335469041416
1355.4923888425499,1355.4923888425499,1.0002769021857363,0.00026257815108521933
1355.49933345655,1355.49933345655,0.9996032315591931,0.0002625038365710696
1355.5062780705382,1355.5062780705382,0.9997300643036793,0.0002625316990585457
1355.5132226844921,1355.5132226844921,1.000206737347844,0.0002626022950758132
1355.520167298434,1355.520167298434,1.0000618028414932,0.00026259426255134064
1355.527111912341,1355.527111912341,1.0003010130762626,0.0002625972153883786
1355.5340565262595,1355.5340565262595,1.0000081629180757,0.00026257634282843636
1355.5410011401316,1355.5410011401316,0.9997847614530782,0.0002625115827307599
1355.5479457539573,1355.5479457539573,1.000405908598418,0.00026258869901556664
1355.5548903677943,1355.5548903677943,0.9997564429066029,0.00026254050943426557
1355.5618349816082,1355.5618349816082,0.9997554357318759,0.0002625437342340782
1355.5687795953872,1355.5687795953872,0.999989341122596,0.0002625801343271562
1355.5757242091545,1355.5757242091545,1.000202687804689,0.00026260842549428776
1355.582668822887,1355.582668822887,0.9998984574495038,0.0002625674436544603
1355.5896134366078,1355.5896134366078,0.9999065019167663,0.0002625600111016953
1355.5965580503052,1355.5965580503052,0.9999883053681268,0.00026258152575000355
1355.6035026639793,1355.6035026639793,1.0004280832636276,0.00026264846307684893
1355.6104472776303,1355.6104472776303,1.0000828221914202,0.00026260744024421173
1355.6173918912698,1355.6173918912698,0.9997735123281345,0.0002625883200621886
1355.6243365048506,1355.6243365048506,0.9997262755135988,0.0002625530766017459
1355.6312811184314,1355.6312811184314,1.0004743034749997,0.00026265285095230704
1355.6382257320129,1355.6382257320129,0.9994438071335645,0.00026252154279755044
1355.6451703455473,1355.6451703455473,0.9995054493272072,0.0002625562427364233
1355.6521149590585,1355.6521149590585,0.9998869388694425,0.0002625703267718825
1355.659059572546,1355.659059572546,1.0001631160391689,0.0002625885888267588
1355.6660041860112,1355.6660041860112,1.0001642217339164,0.00026263558854813394
1355.6729487994644,1355.6729487994644,1.0002483228502683,0.00026264582603672767
1355.679893412882,1355.679893412882,1.0000296142588057,0.00026259017627867194
1355.6868380262883,1355.6868380262883,1.0001196524109939,0.00026260370875042904
1355.693782639649,1355.693782639649,0.9998300039573949,0.000262568347319371
1355.7007272530082,1355.7007272530082,0.9996391132020255,0.0002625323377797035
1355.70767186631,1355.70767186631,1.0000927718078363,0.00026254828824607776
1355.7146164796584,1355.7146164796584,1.000061732109729,0.00026255357922056225
1355.7215610928902,1355.7215610928902,1.0002986469119628,0.00026259890619052654
1355.7285057061686,1355.7285057061686,0.9997354344478403,0.00026253246154443066
1355.7354503194001,1355.7354503194001,1.0005370324394236,0.00026262953784982534
1355.7429505016603,1355.7429505016603,0.9997527003123057,0.0002625620693172052
1355.7507284684289,1355.7507284684289,1.000144776134929,0.0002625771649909225
1355.757673081579,1355.757673081579,0.9999064509076524,0.0002625439556194241
1355.7646176947062,1355.7646176947062,0.999680466162028,0.00026254880788343727
1355.7715623078216,1355.7715623078216,0.9998761335212286,0.0002625896290278723
1355.7785069209017,1355.7785069209017,1.000386679071945,0.00026266354298491967
1355.7854515339475,1355.7854515339475,1.0000442719967486,0.00026258398175333546
1355.7923961469933,1355.7923961469933,0.9999584650667055,0.0002625818179028904
1355.7993407599922,1355.7993407599922,0.999945325758017,0.00026260346766340093
1355.8062853729912,1355.8062853729912,1.0000923248986915,0.00026259707625859167
1355.8132299859437,1355.8132299859437,1.0000999258644796,0.0002626013687429939
1355.8201745988843,1355.8201745988843,1.0002152695901876,0.0002625976192166148
1355.8271192117904,1355.8271192117904,0.9998390036842881,0.00026257430152612786
1355.834063824673,1355.834063824673,0.9997751904280318,0.0002625392719473353
1355.8410084375319,1355.8410084375319,1.0002671396482599,0.0002625957804221602
1355.8479530503682,1355.8479530503682,1.0002580148508442,0.0002626164016600046
1355.8548976631926,1355.8548976631926,0.9997749011380683,0.00026260365218582204
1355.8618422759703,1355.8618422759703,0.999898646752645,0.0002625918358819858
1355.8687868887366,1355.8687868887366,1.0001161965141214,0.0002626102929771467
1355.8757315014677,1355.8757315014677,0.9995490513021477,0.00026255764592882536
