time,time,flux,flux_err
1325.3001796629499,1325.3001796629499,0.9999981736289795,0.0003706794542451438
1325.308513029108,1325.308513029108,0.9996480314126618,0.0003707780443107611
1325.3168463954319,1325.3168463954319,1.000344287178818,0.00037100486344901105
1325.3244853147316,1325.3244853147316,0.9998630007511258,0.0003386869064752065
1325.3314297869497,1325.3314297869497,0.9998189002982143,0.0003387831732309568
1325.3383742593076,1325.3383742593076,1.0001371778376045,0.0003389735005046549
1325.3453187317702,1325.3453187317702,1.0007906840847456,0.0003391535686082718
1325.352263204361,1325.352263204361,1.0000326469005028,0.0003392284021652641
1325.3592076770913,1325.3592076770913,0.999670727957767,0.0003393246903540077
1325.3661521499148,1325.3661521499148,0.9998635451919752,0.0003394843255607746
1325.3730966228661,1325.3730966228661,1.0001948274983623,0.00033965293399319465
1325.3800410959343,1325.3800410959343,0.9997494274346493,0.0003397654170900633
1325.3869855691187,1325.3869855691187,1.0000005696592538,0.00033998634037420177
1325.393930042431,1325.393930042431,0.9995235264508944,0.00034003690419458265
1325.4008745158367,1325.4008745158367,1.0003606871399051,0.00034031268239434557
1325.407818989359,1325.407818989359,1.0000312353096636,0.0003403945409444167
1325.4147634629971,1325.4147634629971,0.9996362498759384,0.00034045451576789233
1325.421707936752,1325.421707936752,1.0006345924315034,0.00034073210683785714
1325.428652410623,1325.428652410623,0.9998489386651392,0.00034075873674947315
1325.4355968845757,1325.4355968845757,1.000058517767354,0.0003409189949252819
1325.442541358645,1325.442541358645,0.9998480944543908,0.00034098430637770073
1325.4494858328537,1325.4494858328537,0.9996141528337825,0.0003410374130633121
1325.4564303071209,1325.4564303071209,1.0006372331883249,0.0003413224618836925
1325.4633747815158,1325.4633747815158,0.9998421956431788,0.00034136532756978135
1325.470319256016,1325.470319256016,1.0001615626859923,0.000341535525015917
1325.477263730609,1325.477263730609,0.9994902082357108,0.00034159084741054095
1325.4842082053065,1325.4842082053065,1.0003758665570064,0.0003418846109682777
1325.4911526801093,1325.4911526801093,1.0000531108633703,0.00034195383314904084
1325.4980971549935,1325.4980971549935,1.0002327243318256,0.0003420998796244041
1325.5050416299935,1325.5050416299935,0.9999632061658204,0.0003422196650668177
1325.511986105076,1325.511986105076,0.9996486098750254,0.00034234326686665236
1325.5189305802855,1325.5189305802855,0.9996951582656619,0.0003425098277480203
1325.5258750555538,1325.5258750555538,1.0001249174635032,0.0003426953027722307
1325.5328195309266,1325.5328195309266,1.0001751270608135,0.00034281447719113035
1325.539764006393,1325.539764006393,1.0002714170921054,0.00034297882192542493
1325.546708481964,1325.546708481964,0.9997539264677039,0.0003430319424690953
1325.553652957628,1325.553652957628,1.0004946798364487,0.00034329690173727154
1325.5605974333505,1325.5605974333505,1.0008338027889425,0.00034341620383838945
1325.5675419091774,1325.5675419091774,1.000466570285266,0.0003434890481206569
1325.5744863850973,1325.5744863850973,1.0001017940488421,0.00034358567100532843
1325.5814308610993,1325.5814308610993,0.9998923803523111,0.0003436402795172791
1325.5883753371822,1325.5883753371822,1.0002713596359223,0.00034384267674504273
1325.59531981337,1325.59531981337,1.0002026284531482,0.0003438573026305214
1325.6022642896162,1325.6022642896162,0.9993247377402706,0.0003438032936362347
1325.6092087659667,1325.6092087659667,1.0000039130176943,0.00034394703363191983
1325.616153242388,1325.616153242388,0.9997199136692837,0.0003439471795740845
1325.6230977188784,1325.6230977188784,0.9999665985359624,0.0003439882804654225
1325.6300421954736,1325.6300421954736,0.9998888649414335,0.0003439720232185187
1325.6369866721507,1325.6369866721507,0.9996812935271782,0.0003439434188733375
1325.643931148874,1325.643931148874,1.0000420414206148,0.0003439907324655526
1325.6508756256906,1325.6508756256906,1.0004864693211568,0.000343999633880888
1325.6578201025884,1325.6578201025884,1.0000113087447422,0.00034393936736759904
1325.6647645795565,1325.6647645795565,1.0003688828216446,0.000343934567231764
1325.6717090566058,1325.6717090566058,1.0001932827727749,0.00034385840930428995
1325.6786535337367,1325.6786535337367,0.9998652533274163,0.00034379100895291467
1325.6855980109144,1325.6855980109144,1.0001175671277838,0.00034383824303754366
1325.6925424881847,1325.6925424881847,0.9998005972659921,0.0003438522517069329
1325.6994869655252,1325.6994869655252,0.9994236501486448,0.0003438064818217734
1325.7064314429474,1325.7064314429474,0.9998373476679655,0.0003438969279934386
1325.713375920404,1325.713375920404,1.0002655941314265,0.0003440010726448716
1325.720320397942,1325.720320397942,1.0005246550522007,0.0003440514183527763
1325.727264875562,1325.727264875562,1.0004937995291887,0.00034414610339094856
1325.7342093532166,1325.7342093532166,1.0001955024193587,0.00034413368874498123
1325.7411538309764,1325.7411538309764,0.999606745581948,0.00034407765831662694
1325.7480983087937,1325.7480983087937,0.9998881942846725,0.00034422776140071966
1325.7550427866584,1325.7550427866584,1.0000841976581258,0.00034433467627604456
1325.7619872645926,1325.7619872645926,0.9998099096612172,0.00034432711096014305
1325.7689317425848,1325.7689317425848,0.9999806026607041,0.0003444201373053566
1325.7758762206704,1325.7758762206704,1.0000961107687532,0.00034450964176954745
1325.782820698779,1325.782820698779,0.9999762792356519,0.000344563922070009
1325.7897651769808,1325.7897651769808,0.9993042666679324,0.0003445196698439343
1325.7967096552293,1325.7967096552293,1.001082646735831,0.00034477123345454835
1325.8036541335362,1325.8036541335362,1.0001322175841565,0.0003446486663808165
1325.8105986118778,1325.8105986118778,0.9990774870540156,0.00034456153017598326
1325.817543090312,1325.817543090312,0.9999401720286457,0.0003446896753572857
1325.824487568782,1325.824487568782,1.000612025040222,0.00034477765489777343
1325.8314320473214,1325.8314320473214,1.0006223870101616,0.0003448308283293491
1325.8383765259077,1325.8383765259077,0.9996086858819802,0.0003447272826718051
1325.8453210045636,1325.8453210045636,1.0000126410444516,0.00034472095019913153
1325.852265483254,1325.852265483254,1.0003618553890874,0.0003447722123011664
1325.859209962015,1325.859209962015,0.9993519236661751,0.0003446486879705183
1325.8661544408105,1325.8661544408105,0.999693196043637,0.00034464339993611423
1325.873098919688,1325.873098919688,1.000125337404898,0.0003445659121456448
1325.8800433985882,1325.8800433985882,1.0003640256709727,0.000344528043525669
1325.8869878775467,1325.8869878775467,1.0000908716893693,0.00034441067744573836
1325.8939323565635,1325.8939323565635,1.0002122125891737,0.0003443578984057549
1325.9008768356155,1325.9008768356155,1.0004569472795057,0.0003443237162768644
1325.907821314725,1325.907821314725,0.9993903144768952,0.00034409175171373177
1325.9147657938931,1325.9147657938931,0.9998401896731632,0.00034413066785403255
1325.9217102730845,1325.9217102730845,1.0002792347167642,0.0003441424615645722
1325.9286547523461,1325.9286547523461,0.9997110870223335,0.00034403311983793265
1325.9355992316537,1325.9355992316537,1.0003909963527686,0.0003440752987386962
1325.942543710985,1325.942543710985,0.9994860641042262,0.00034392911719636566
1325.949488190386,1325.949488190386,1.0008531095857292,0.0003440792749177852
1325.9564326698103,1325.9564326698103,0.9999380856565914,0.0003439242740023579
1325.964210486841,1325.964210486841,0.9995703138154077,0.00034384219655835577
1325.9717105247278,1325.9717105247278,1.0002212735165688,0.0003439300184367345
1325.978655004315,1325.978655004315,1.0003042542817089,0.00034394672764728436
1325.985599483925,1325.985599483925,0.9999578017387446,0.00034391056476893453
1325.9925439635822,1325.9925439635822,0.9996842586485583,0.00034388070099825756
1325.9994884432745,1325.9994884432745,0.9999472837951556,0.0003439772220125895
1326.0064329230245,1326.0064329230245,0.9996143130523982,0.00034392766317023314
1326.0133774027981,1326.0133774027981,1.000366180325376,0.0003441292141587011
1326.0203218826296,1326.0203218826296,1.000063897846336,0.00034412947813768313
1326.0272663624849,1326.0272663624849,1.0000235548717757,0.0003441977399619627
1326.0342108423747,1326.0342108423747,0.9996098514628347,0.0003441707140564103
1326.0411553223225,1326.0411553223225,1.0009422575308278,0.0003442717851599389
1326.0480998022826,1326.0480998022826,1.0002294531453053,0.0003441542581263836
1326.055044282289,1326.055044282289,1.0000083770013344,0.0003441215084029063
1326.0619887623416,1326.0619887623416,0.9999957045398989,0.00034417120588342386
1326.0689332424297,1326.0689332424297,0.999925931008058,0.0003441523005372943
1326.0758777225403,1326.0758777225403,0.9995678210078627,0.00034406882166346876
1326.0828222026987,1326.0828222026987,0.9996728268654449,0.00034411061278811903
1326.089766682891,1326.089766682891,1.0002468966014522,0.0003441981171690486
1326.096711163107,1326.096711163107,0.9998257358968653,0.00034412784788117045
1326.1036556433696,1326.1036556433696,1.0002659403242156,0.00034419167629348024
1326.1106001236435,1326.1106001236435,1.0001182331304348,0.0003441649553801628
1326.1175446039874,1326.1175446039874,1.0002395773200194,0.00034417520418792634
1326.1244890843311,1326.1244890843311,1.0000522956775426,0.00034411444492485175
1326.1314335647105,1326.1314335647105,0.999899044220235,0.0003440844989624673
1326.138378045112,1326.138378045112,0.9999784903196083,0.00034410071167074205
1326.145322525573,1326.145322525573,0.9996437799695151,0.00034408289667227875
1326.1522670060447,1326.1522670060447,1.0005028799697946,0.00034418472239982115
1326.1592114865514,1326.1592114865514,0.9999827590224527,0.0003441260834313953
1326.1661559670936,1326.1661559670936,0.9999060158635207,0.0003441320857484869
1326.1731004476583,1326.1731004476583,0.9999491094327515,0.00034409126109768377
1326.1800449282468,1326.1800449282468,1.0000023830864773,0.00034407345578032377
1326.186989408882,1326.186989408882,0.9999922024340956,0.0003440859201020365
1326.1939338895165,1326.1939338895165,0.9997256592831217,0.0003440244787723931
1326.2008783701986,1326.2008783701986,0.9999543490317351,0.00034404619924797855
1326.207822850903,1326.207822850903,1.000005019659999,0.0003440055396828837
1326.2147673316317,1326.2147673316317,1.0003518110690708,0.00034409829023935445
1326.2217118123942,1326.2217118123942,0.9998962678004617,0.00034394609365248445
1326.228656293169,1326.228656293169,1.0000020035854802,0.00034399230956537805
1326.2356007739904,1326.2356007739904,0.9998209142571648,0.00034392365588497697
1326.2425452548111,1326.2425452548111,1.000362018404776,0.00034393661562896895
1326.249489735668,1326.249489735668,0.9996156229679164,0.00034378180704640993
1326.2564342165704,1326.2564342165704,1.0004002377973564,0.00034394016059627135
1326.2633786974384,1326.2633786974384,0.999699706768965,0.00034378019931805687
1326.2703231783876,1326.2703231783876,0.9991000855909821,0.0003436593225567174
1326.2772676593484,1326.2772676593484,1.0000415544934398,0.0003437634309977582
1326.2842121403214,1326.2842121403214,1.0005096526150932,0.000343818629536938
1326.2911566213286,1326.2911566213286,1.000203887901471,0.0003437283656188114
1326.2981011023362,1326.2981011023362,0.9998822421732083,0.00034367825762809045
1326.30504558339,1326.30504558339,1.0000523002980688,0.00034373827685971615
1326.311990064456,1326.311990064456,1.0003763912324863,0.0003438070550884036
1326.3189345455332,1326.3189345455332,1.0000933635613047,0.00034379438085820546
1326.3258790266452,1326.3258790266452,0.9996981554203653,0.00034373824959151364
1326.33282350777,1326.33282350777,0.9997793168021968,0.0003437642158863881
1326.3397679889167,1326.3397679889167,0.9999705199241022,0.000343820530511278
1326.3472680285613,1326.3472680285613,0.9997492098034991,0.00034380876943683155
1326.3564347437327,1326.3564347437327,1.000312894586417,0.0003439309557310011
1326.3633792249266,1326.3633792249266,0.999884062799444,0.00034383372826959517
1326.3703237062018,1326.3703237062018,0.999284782013983,0.00034381136385601424
1326.3772681874188,1326.3772681874188,1.0002542572689677,0.0003439298548574131
1326.384212668694,1326.384212668694,1.0003359236135134,0.0003439746653043147
1326.3911571499812,1326.3911571499812,1.0001019288543396,0.0003439559828202221
1326.3981016312796,1326.3981016312796,0.9999486007131428,0.0003439428608657952
1326.4050461126014,1326.4050461126014,1.0004118771325736,0.0003440378826723502
1326.4119905939353,1326.4119905939353,1.0003666253114132,0.0003440420989453787
1326.4189350752918,1326.4189350752918,0.9996179788797575,0.0003439885328781239
1326.4258795566602,1326.4258795566602,0.9995325844459952,0.00034394513976770946
1326.43282403804,1326.43282403804,1.0000811000392182,0.00034404418861917714
1326.4397685194433,1326.4397685194433,0.9999288769716769,0.0003440597252894268
1326.4467130008586,1326.4467130008586,0.999837507272408,0.00034407028620712514
1326.453657482285,1326.453657482285,1.0002062355960137,0.0003441544414260339
1326.460601963735,1326.460601963735,0.9999344463540367,0.00034413042570830097
1326.4675464451964,1326.4675464451964,1.0000282368092877,0.0003441067089944021
1326.4744909266697,1326.4744909266697,1.0000291976888744,0.00034415395460241327
1326.481435408178,1326.481435408178,1.0003715628663306,0.0003441890033033583
1326.4883798896858,1326.4883798896858,1.0002287496528572,0.00034417667839508676
1326.495324371194,1326.495324371194,0.9998706106802224,0.0003441705695928035
1326.502268852702,1326.502268852702,1.000000073854908,0.0003442182616937463
1326.5092133342453,1326.5092133342453,0.9993103020999035,0.00034410642686312975
1326.5161578157997,1326.5161578157997,0.9996929670729884,0.00034421137984168374
1326.5231022973662,1326.5231022973662,1.0000189536518793,0.0003442615779466917
1326.530046778944,1326.530046778944,1.0008447205953614,0.00034442936722406544
1326.5369912605333,1326.5369912605333,0.9995525328453405,0.00034426777695318646
1326.543935742135,1326.543935742135,1.0002107352099046,0.00034440916282634654
1326.5508802237478,1326.5508802237478,1.000375810712573,0.00034447865206875045
1326.557824705372,1326.557824705372,1.000094762602307,0.0003444401539364964
1326.56476918702,1326.56476918702,0.999859693175347,0.00034441139900839586
1326.5717136686676,1326.5717136686676,0.9997450228028206,0.0003444277097595572
1326.5786581503276,1326.5786581503276,0.9997973759045683,0.00034444567258290964
1326.5856026319864,1326.5856026319864,0.9999844099849786,0.0003444612775541331
1326.5925471136695,1326.5925471136695,1.000230841254402,0.0003445892323339081
1326.599491595352,1326.599491595352,1.0001337870561682,0.0003445717740154147
1326.6064360770465,1326.6064360770465,0.9997427093404172,0.0003444932360225343
1326.6133805587526,1326.6133805587526,1.0001830532938547,0.00034457881685377885
1326.6203250404699,1326.6203250404699,1.000077072475831,0.00034455009604131113
1326.6272695221996,1326.6272695221996,0.9998157139977163,0.00034449055807156414
1326.6342140039283,1326.6342140039283,0.9996817627161023,0.0003445334349496329
1326.6411584856698,1326.6411584856698,0.999758946705048,0.0003445136030315131
1326.6481029674105,1326.6481029674105,1.0002337696791108,0.0003445696830550502
1326.6550474491746,1326.6550474491746,1.000236088715895,0.00034453609331855503
1326.6619919309392,1326.6619919309392,1.0004419552629904,0.00034454741540089137
1326.6689364127146,1326.6689364127146,1.0000117380480835,0.00034440653182003523
1326.6758808944792,1326.6758808944792,0.9998831689482696,0.0003443526620856868
1326.6828253762783,1326.6828253762783,0.9989313331335256,0.000344184563455559
1326.6908809751653,1326.6908809751653,1.0002349767825165,0.0003443445669480848
1326.698103236236,1326.698103236236,1.000082860814979,0.00034423779912534115
1326.7050477180353,1326.7050477180353,1.0006390087608037,0.000344262997241156
1326.7125477584018,1326.7125477584018,1.0000063046429777,0.00034417833460653085
1326.7203255780519,1326.7203255780519,0.9999984525652404,0.00034411632881010533
1326.7272700598744,1326.7272700598744,1.0001083330432174,0.00034406779686434977
1326.7342145417083,1326.7342145417083,0.9998951962104012,0.0003440019762632787
1326.7411590235658,1326.7411590235658,0.9996230904569454,0.00034396055562404637
1326.7481035053995,1326.7481035053995,1.000301261361765,0.0003439924751019852
1326.7550479872566,1326.7550479872566,0.9994765072461902,0.00034387857620425373
1326.7619924691028,1326.7619924691028,1.0002179264785425,0.0003439718526635019
1326.7689369509715,1326.7689369509715,1.0007120079624556,0.00034404920406351416
1326.775881432829,1326.775881432829,1.0000844733725847,0.0003439113314852652
1326.782825914698,1326.782825914698,1.000010700583554,0.0003438944225639291
1326.7897703965787,1326.7897703965787,0.9998523474281689,0.0003438589175494341
1326.7967148784592,1326.7967148784592,0.9998475715353179,0.00034388238576177707
1326.80365936034,1326.80365936034,0.9996654978059242,0.00034387416163031025
1326.8106038422204,1326.8106038422204,1.0004561296237664,0.000343966927145332
1326.8175483241125,1326.8175483241125,1.000205361725555,0.00034393064781535246
1326.8244928060049,1326.8244928060049,0.9999399150470435,0.0003438488382543533
1326.831437287909,1326.831437287909,1.0004477117070327,0.0003439778063477012
1326.8383817698013,1326.8383817698013,0.9994742836699222,0.00034382998623127636
1326.845326251705,1326.845326251705,0.9998607152708612,0.0003438920362935856
1326.8522707336092,1326.8522707336092,1.0006373287259243,0.0003439619680130802
1326.8592152155245,1326.8592152155245,0.9989385962738702,0.00034371794064211796
1326.8661596974289,1326.8661596974289,1.0002528298010103,0.0003438196221445137
1326.8731041793442,1326.8731041793442,1.000206466185416,0.0003437580972486004
1326.8800486612595,1326.8800486612595,0.9995379786602973,0.0003436104666115854
1326.8869931431752,1326.8869931431752,0.9996195407393872,0.00034356498449312925
1326.8939376250905,1326.8939376250905,1.0003582621114933,0.00034361329966374737
1326.9008821070179,1326.9008821070179,1.0006865491203398,0.0003435489187318115
1326.907826588945,1326.907826588945,1.0005324636234152,0.00034348404149940566
1326.9147710708608,1326.9147710708608,0.9998975528937528,0.00034334781338607337
1326.9217155527879,1326.9217155527879,1.0000926153737428,0.0003432382956551665
1326.928660034715,1326.928660034715,0.9997237267121101,0.00034310732117298105
1326.935604516631,1326.935604516631,0.9999837289406723,0.00034311694871237724
1326.9425489985692,1326.9425489985692,0.9991608479008713,0.00034289859645905604
1326.9494934804966,1326.9494934804966,1.000201149951339,0.0003429808013952925
1326.956437962412,1326.956437962412,1.0001913581037054,0.00034293897845033154
1326.9633824443513,1326.9633824443513,0.9998397031834484,0.00034282422782608757
1326.9703269262784,1326.9703269262784,0.9999696915900488,0.00034278836119752156
1326.977271408217,1326.977271408217,1.0004979737508102,0.00034275814480688857
1326.984215890133,1326.984215890133,0.9997998722015243,0.00034263353221933665
1326.9911603720716,1326.9911603720716,0.9991369348319523,0.00034249218645609613
1326.9981048539873,1326.9981048539873,1.0001735964065985,0.00034259248134572696
1327.005049335926,1327.005049335926,1.000163417497761,0.00034259566201802667
1327.0119938178532,1327.0119938178532,1.0003022415580476,0.0003425602065668648
1327.0189382997803,1327.0189382997803,0.9997117148984153,0.0003425202132697008
1327.0258827817074,1327.0258827817074,1.000215701460532,0.00034255159624310265
1327.0328272636232,1327.0328272636232,0.9996980341254327,0.0003424740833279352
1327.03977174555,1327.03977174555,1.0003097886183034,0.000342605207156751
1327.0467162274776,1327.0467162274776,0.999949080027366,0.0003425107474494879
1327.053660709393,1327.053660709393,0.9996585525536308,0.00034247536646780745
1327.0614385291478,1327.0614385291478,0.9997148013735927,0.00034249007388033185
