time,time,flux,flux_err
1325.298479340231,1325.298479340231,0.9999103149710215,0.00021569040880945094
1325.306812651315,1325.306812651315,0.9999590912473137,0.0002157533123339024
1325.3144515200659,1325.3144515200659,1.0001701808888597,0.00019698935317171432
1325.3213959464279,1325.3213959464279,0.9998537687857694,0.00019700450107579785
1325.3283403730343,1325.3283403730343,0.9999294897370922,0.00019704563553129244
1325.3352847998274,1325.3352847998274,1.0002667233340339,0.00019711744782923836
1325.3422292268533,1325.3422292268533,1.0000039218652383,0.00019716900293904085
1325.349173654065,1325.349173654065,1.000148434851217,0.0001972179758385567
1325.3561180814752,1325.3561180814752,1.0000184651993158,0.00019727775641270232
1325.363062509106,1325.363062509106,0.9996013261536392,0.00019730821936454252
1325.3700069369352,1325.3700069369352,1.0002139149365454,0.00019740652255980376
1325.3769513649736,1325.3769513649736,0.9999464865764948,0.0001974664907350491
1325.383895793187,1325.383895793187,1.0001486800375448,0.00019752950669930242
1325.3908402216211,1325.3908402216211,0.9998921257333991,0.00019757510734625135
1325.397784650218,1325.397784650218,0.9999242181157036,0.00019763217924148845
1325.4047290790138,1325.4047290790138,1.000001966430243,0.0001976991168754061
1325.4116735080065,1325.4116735080065,1.0000452573309266,0.00019774941670183598
1325.4186179372095,1325.4186179372095,1.000279538170698,0.00019781047600680654
1325.4255623665636,1325.4255623665636,0.9998040960541967,0.00019781457087777554
1325.4325067961267,1325.4325067961267,1.0000666804589688,0.0001978864405854111
1325.439451225842,1325.439451225842,1.0001392888284988,0.00019793214881618691
1325.4463956557547,1325.4463956557547,0.9997494777589685,0.00019793862196131187
1325.4533400858538,1325.4533400858538,0.9998322189971282,0.00019798909993661018
1325.4602845161157,1325.4602845161157,0.9996565395750446,0.00019799960466209665
1325.4672289465639,1325.4672289465639,1.0003533238630007,0.00019810013446906212
1325.4741733771757,1325.4741733771757,1.000311537475295,0.00019813349588181426
1325.4811178079378,1325.4811178079378,0.9998796251580252,0.00019815165445759937
1325.4880622389105,1325.4880622389105,0.9999362843865505,0.0001981880926844276
1325.4950066700226,1325.4950066700226,1.0001954695910202,0.0001982568354815146
1325.5019511013084,1325.5019511013084,1.000117153979049,0.00019830342795495055
1325.5088955327583,1325.5088955327583,1.0000087494688488,0.00019833179893502433
1325.5158399643706,1325.5158399643706,0.9997204666319259,0.00019835432972143975
1325.5227843961345,1325.5227843961345,0.9999648834463392,0.0001984178435413536
1325.5297288280376,1325.5297288280376,1.0000424950917373,0.00019848724938230827
1325.5366732601278,1325.5366732601278,0.9997053269118924,0.00019849823041161166
1325.5436176923806,1325.5436176923806,1.000151008324094,0.00019858719341333885
1325.5505621247496,1325.5505621247496,1.0000779371886046,0.00019862892696923578
1325.5575065573169,1325.5575065573169,1.0000512100317573,0.00019866428297453685
1325.564450989977,1325.564450989977,1.0000519164088306,0.00019871212892159335
1325.5713954228352,1325.5713954228352,1.0001754376066059,0.00019876459859498747
1325.57833985581,1325.57833985581,1.0001390365702012,0.00019879916673695824
1325.5852842889356,1325.5852842889356,0.9998738963085984,0.00019881575840039172
1325.5922287222008,1325.5922287222008,0.9998753267347421,0.00019884273519736134
1325.599173155618,1325.599173155618,0.9997565423040402,0.0001988603848842144
1325.6061175891627,1325.6061175891627,0.9998853509762388,0.00019889446309629023
1325.6130620228591,1325.6130620228591,1.0001536214129214,0.0001989210034915513
1325.6200064566838,1325.6200064566838,0.9998599597465265,0.00019892352841224928
1325.626950890636,1325.626950890636,0.9999561192619335,0.0001989305142470449
1325.6338953247398,1325.6338953247398,1.0002531253305726,0.00019895559124653294
1325.6408397589719,1325.6408397589719,1.0001674002003098,0.000198944168236774
1325.6477841933197,1325.6477841933197,0.9999201359161521,0.00019894332457525777
1325.6547286278196,1325.6547286278196,0.9998732903555307,0.00019891695072776953
1325.6616730624235,1325.6616730624235,0.9999318307066585,0.00019892176059009813
1325.668617497168,1325.668617497168,1.0000070105993764,0.00019894720123659658
1325.6755619320631,1325.6755619320631,1.0001862923389344,0.0001989607023335861
1325.6825063670287,1325.6825063670287,1.0002969552242253,0.00019898124156236393
1325.689450802145,1325.689450802145,0.9998730409792718,0.00019896606010739635
1325.696395237378,1325.696395237378,0.999793481061287,0.00019896975078131747
1325.7033396727395,1325.7033396727395,1.0000192183085914,0.00019898732250281351
1325.7102841082283,1325.7102841082283,0.9998273816087785,0.0001989919149183098
1325.717228543799,1325.717228543799,0.9999626064343922,0.00019903158830730954
1325.7241729795091,1325.7241729795091,0.9998524581504631,0.0001990433226332951
1325.7311174153242,1325.7311174153242,1.000037846643198,0.00019907825652469097
1325.7380618512557,1325.7380618512557,1.0003654110860989,0.0001991205282213282
1325.7450062873036,1325.7450062873036,0.9999349256906171,0.00019912350014259002
1325.751950723456,1325.751950723456,1.000066550919733,0.00019916502941955924
1325.758895159714,1325.758895159714,1.0001818762564332,0.00019920039200315478
1325.7658395960873,1325.7658395960873,1.000018988176072,0.00019921299952215237
1325.7727840325665,1325.7727840325665,0.999655267438188,0.0001992152128127481
1325.7797284691492,1325.7797284691492,0.9998115197011813,0.00019926419335366397
1325.7866729058383,1325.7866729058383,1.000327335781371,0.00019933801644607591
1325.793617342631,1325.793617342631,1.000222109126137,0.00019935226857448405
1325.8005617795286,1325.8005617795286,0.9997300665173828,0.00019934367730761277
1325.8075062165196,1325.8075062165196,0.9999920968513777,0.00019939120038819257
1325.8144506536148,1325.8144506536148,0.9998132509112969,0.00019938646385846796
1325.8213950908157,1325.8213950908157,0.9997726076956639,0.00019940026557972273
1325.8283395280973,1325.8283395280973,1.0002936702445975,0.00019945557861200734
1325.835283965484,1325.835283965484,0.9999175440727506,0.0001994179527585435
1325.842228402976,1325.842228402976,0.9998807211171881,0.0001994193965633508
1325.8491728405484,1325.8491728405484,1.0000947934194224,0.00019943293864331277
1325.8561172782029,1325.8561172782029,1.0003484328294014,0.00019944915805681732
1325.8630617159738,1325.8630617159738,1.0001261197380766,0.00019942207877548306
1325.8700061538261,1325.8700061538261,0.9999263920708474,0.00019937340866178736
1325.8769505917717,1325.8769505917717,0.9999703887120914,0.00019933110824452556
1325.88389502981,1325.88389502981,0.9998899627796749,0.0001992959434256173
1325.8908394679422,1325.8908394679422,0.9997111604783628,0.00019925222884342476
1325.8977839061317,1325.8977839061317,0.999949956947393,0.00019925161145163922
1325.9047283444265,1325.9047283444265,1.000108485617481,0.00019925629671311158
1325.9116727828143,1325.9116727828143,1.000054572985141,0.00019922145184864416
1325.9186172212835,1325.9186172212835,0.9999549990185198,0.0001992007955883243
1325.9255616598232,1325.9255616598232,1.0003129802041701,0.00019921533897951805
1325.9325060984552,1325.9325060984552,0.9999097877742157,0.0001991719133190605
1325.9394505371577,1325.9394505371577,0.999998593650135,0.00019917243218218295
1325.9463949759645,1325.9463949759645,1.0002700322615976,0.00019917783872199982
1325.9533394148414,1325.9533394148414,0.9997533035888473,0.00019913876895356544
1325.9608394089212,1325.9608394089212,0.9996884953219466,0.00019913780539017128
1325.9686171806309,1325.9686171806309,1.0000851882824229,0.00019915673405844844
1325.975561619764,1325.975561619764,1.0002533750771445,0.00019919373917446208
1325.9825060589549,1325.9825060589549,1.000181281726282,0.00019916910637561122
1325.9894504982508,1325.9894504982508,0.9997598624908697,0.00019914323037135262
1325.9963949375817,1325.9963949375817,0.9997351075172375,0.0001991626380518998
1326.003339376994,1326.003339376994,1.0001182097377015,0.00019920462929378367
1326.0102838164996,1326.0102838164996,0.9998637672268531,0.00019921870301078717
1326.0172282560632,1326.0172282560632,1.0000341427876176,0.0001992419508399323
1326.0241726957083,1326.0241726957083,1.000251711220964,0.00019929745148728048
1326.0311171354235,1326.0311171354235,1.0002215343719663,0.00019930976888718425
1326.0380615751963,1326.0380615751963,1.000160261787297,0.00019929763012253607
1326.0450060150397,1326.0450060150397,0.9997158196287828,0.00019925828964060226
1326.051950454964,1326.051950454964,0.9997416855250041,0.00019927101965895553
1326.0588948949467,1326.0588948949467,1.0003001609093527,0.00019931231511636512
1326.0658393349993,1326.0658393349993,1.0000812090800053,0.00019932310013599108
1326.0727837751215,1326.0727837751215,0.9997719679506327,0.00019930351883841704
1326.0797282153028,1326.0797282153028,0.9999136188101243,0.00019932114787348673
1326.0866726555646,1326.0866726555646,0.9997400419122628,0.00019928490410550743
1326.0936170958619,1326.0936170958619,0.9999902534692608,0.0001993242347151866
1326.1005615362403,1326.1005615362403,1.0001525673422869,0.00019933983937316422
1326.1075059766652,1326.1075059766652,1.000239135031514,0.00019932509074926645
1326.1144504171837,1326.1144504171837,0.9998490787563472,0.00019931820988482464
1326.1213948577365,1326.1213948577365,0.999697094671925,0.00019929437733280636
1326.1283392983598,1326.1283392983598,1.0003439260525522,0.00019934479779290846
1326.135283739041,1326.135283739041,1.000219615273987,0.0001993405290930458
1326.1422281797804,1326.1422281797804,0.9999866384408465,0.00019931989346081485
1326.14917262059,1326.14917262059,0.999909931898628,0.000199322508202998
1326.1561170614455,1326.1561170614455,0.9999302193420648,0.00019932635074593284
1326.16306150236,1326.16306150236,1.0001577601708773,0.00019933911353993498
1326.170005943332,1326.170005943332,1.0000962227351564,0.00019934234990615115
1326.176950384351,1326.176950384351,1.0000072571976595,0.0001993289085130654
1326.1838948254513,1326.1838948254513,1.000096003768149,0.00019931630573479024
1326.1908392665862,1326.1908392665862,0.9999910965154959,0.00019929972586010873
1326.1977837077918,1326.1977837077918,0.9998975562473769,0.00019932470947254508
1326.2047281490316,1326.2047281490316,0.9995907977026836,0.0001992706765615294
1326.2116725903186,1326.2116725903186,0.9999452732461659,0.00019930340716142384
1326.2186170316745,1326.2186170316745,1.000464213860261,0.00019933945372502628
1326.2255614730893,1326.2255614730893,1.0002424894392912,0.0001993346143328881
1326.232505914539,1326.232505914539,0.9998216647436793,0.00019929167353803824
1326.2394503560695,1326.2394503560695,1.0003404965318323,0.00019932526904801787
1326.2463947976244,1326.2463947976244,0.9999150510167443,0.0001992800974022072
1326.253339239202,1326.253339239202,0.9999334560941815,0.00019930334166946717
1326.260283680896,1326.260283680896,0.9997587697227633,0.00019929136265150202
1326.2672281225903,1326.2672281225903,1.0001008138574283,0.00019929602932114836
1326.2741725643536,1326.2741725643536,1.0000220941127582,0.00019931359436552707
1326.281117006153,1326.281117006153,0.9997944980024778,0.00019928833815461867
1326.2880614480098,1326.2880614480098,1.0003113983988057,0.00019933070938027214
1326.2950058898903,1326.2950058898903,0.9998080055720724,0.0001993071220416442
1326.3019503318515,1326.3019503318515,0.9998541479975473,0.00019930913113645407
1326.3088947738372,1326.3088947738372,0.9999658180525642,0.00019931943481932821
1326.3158392158805,1326.3158392158805,1.0000455259033156,0.00019931694908780314
1326.3227836579583,1326.3227836579583,1.0002002727969843,0.00019934480014028154
1326.3297281000837,1326.3297281000837,0.9998523172253352,0.0001993232789774991
1326.3366725422663,1326.3366725422663,0.9999327758786014,0.00019934907206510828
1326.343616984484,1326.343616984484,1.0001633785130086,0.00019937466333294764
1326.3533392036359,1326.3533392036359,1.0001073950288575,0.0001993898386217808
1326.3602836459584,1326.3602836459584,1.0000723827187878,0.00019939190797460218
1326.367228088316,1326.367228088316,0.9999635908968353,0.00019941444052596342
1326.3741725307202,1326.3741725307202,1.0000863207382593,0.0001994326941833247
1326.3811169731596,1326.3811169731596,0.9996250876773536,0.00019940109317605068
1326.3880614156685,1326.3880614156685,0.9998565791990043,0.000199437641836697
1326.3950058581775,1326.3950058581775,1.0000082389612657,0.00019948054389826202
1326.4019503007214,1326.4019503007214,1.0002014623808813,0.00019948602812902178
1326.4088947433352,1326.4088947433352,1.0002123420965279,0.00019949994243569614
1326.415839185984,1326.415839185984,0.9998989410883234,0.00019949154438097264
1326.422783628656,1326.422783628656,0.9999527051321098,0.00019952223531676376
1326.4297280713745,1326.4297280713745,0.9999477711148991,0.00019953323346111204
1326.4366725141274,1326.4366725141274,1.0002985048575526,0.00019958156389980616
1326.443616956916,1326.443616956916,1.0000765125393354,0.00019957147419849905
1326.4505613997626,1326.4505613997626,0.9998063640412409,0.00019955397119584954
1326.4575058426321,1326.4575058426321,0.9997655387747736,0.00019957187688143287
1326.4644502855372,1326.4644502855372,0.9999799357245012,0.0001995948947933106
1326.4713947284654,1326.4713947284654,0.9997231509124692,0.00019959973929167617
1326.4783391714516,1326.4783391714516,1.0001124250140663,0.00019964777091074733
1326.4852836144728,1326.4852836144728,1.0001429460620215,0.00019966639382484308
1326.4922280575056,1326.4922280575056,1.0002988042878949,0.00019968458654352262
1326.4991725005852,1326.4991725005852,1.0002031968864011,0.00019969359853165455
1326.5061169437108,1326.5061169437108,1.000064248159863,0.0001996755316387751
1326.51306138686,1326.51306138686,0.9998158502080721,0.00019968744393185275
1326.5200058300443,1326.5200058300443,0.9998715875102242,0.00019969998894548742
1326.5269502732522,1326.5269502732522,0.9997934190169607,0.00019973236812293442
1326.533894716506,1326.533894716506,0.999868316113121,0.0001997571304018215
1326.5408391597948,1326.5408391597948,0.9999537411665479,0.000199783365562486
1326.547783603107,1326.547783603107,1.00023451243089,0.0001998505721701586
1326.5547280464775,1326.5547280464775,1.0001068336379084,0.00019983940238390728
1326.5616724898478,1326.5616724898478,0.999809206608526,0.000199819346713367
1326.5686169332416,1326.5686169332416,1.0000733545364708,0.00019982826399700653
1326.5755613766937,1326.5755613766937,0.999968433869352,0.00019983474219861593
1326.5825058201567,1326.5825058201567,0.9999262917981765,0.0001998472014282467
1326.5894502636675,1326.5894502636675,1.0001240050361653,0.00019986717721106562
1326.5963947071891,1326.5963947071891,1.0003911218712953,0.00019988733650564447
1326.6033391507576,1326.6033391507576,0.9999852893128145,0.00019988627760539465
1326.6102835943375,1326.6102835943375,1.0000644711662932,0.00019989634978288356
1326.6172280379637,1326.6172280379637,0.9997655508158184,0.00019988824467086984
1326.624172481602,1326.624172481602,0.9998130253596138,0.00019988850627661471
1326.6311169252983,1326.6311169252983,0.999719668588455,0.00019988267708163465
1326.638061368983,1326.638061368983,0.9998060183071642,0.0001998970342816756
1326.6450058127261,1326.6450058127261,0.9999320989196605,0.00019989294684136144
1326.6519502564809,1326.6519502564809,0.9999739504503443,0.0001998720735964635
1326.6588947002824,1326.6588947002824,1.0003470768821185,0.0001999125554711277
1326.6658391440947,1326.6658391440947,1.0001454623537578,0.00019989837438075454
1326.6727835879312,1326.6727835879312,0.9999387598125979,0.00019984994429490333
1326.679728031802,1326.679728031802,0.9999732481904686,0.00019983112301705247
1326.687505808972,1326.687505808972,1.0001323310888233,0.00019982761107399546
1326.6950058083949,1326.6950058083949,0.9998248463615009,0.00019979412358047283
1326.7019502523474,1326.7019502523474,0.9999168958040128,0.00019977402638971317
1326.7091724740937,1326.7091724740937,0.9997750937913811,0.00019975220027386542
1326.7172280291386,1326.7172280291386,1.0001119664024491,0.00019977117707309936
1326.7241724731725,1326.7241724731725,1.0000081056482482,0.00019974412360808705
1326.7311169172299,1326.7311169172299,1.00009983077248,0.00019974676895158
1326.7380613613223,1326.7380613613223,0.9999687693944554,0.00019972151065214251
1326.7450058054378,1326.7450058054378,0.999808295568082,0.00019968471792870666
1326.751950249553,1326.751950249553,1.0003157858876606,0.00019971478673028813
1326.7588946937035,1326.7588946937035,0.9997929639487413,0.0001996777603789873
1326.7658391378886,1326.7658391378886,1.0001109724706634,0.00019969252689217644
1326.772783582086,1326.772783582086,1.0000204320234265,0.00019967145807319275
1326.7797280263178,1326.7797280263178,0.9999885964482755,0.0001996578191361024
1326.786672470573,1326.786672470573,1.0001412656313606,0.0001996879854331823
1326.7936169148281,1326.7936169148281,1.000127441246763,0.00019970090618394155
1326.80056135913,1326.80056135913,0.9997106416889807,0.00019968054266861077
1326.8075058034315,1326.8075058034315,0.9995262923525552,0.00019966983952708124
1326.814450247768,1326.814450247768,1.000019073449212,0.00019970059518655873
1326.8213946921283,1326.8213946921283,1.0003645429864343,0.00019974226046001335
1326.8283391365117,1326.8283391365117,1.0001107610880076,0.00019973424993017895
1326.8352835809062,1326.8352835809062,0.9998763230423015,0.00019972247150541479
1326.8422280253365,1326.8422280253365,0.9997690026280642,0.00019970291543898352
1326.8491724697776,1326.8491724697776,0.9999111369117127,0.00019972237032985554
1326.8561169142424,1326.8561169142424,0.9999099976335574,0.00019971861643857387
1326.863061358719,1326.863061358719,1.0002610177068205,0.0001997120806744808
1326.8700058032186,1326.8700058032186,0.9998789703912273,0.00019966697357044058
1326.876950247753,1326.876950247753,0.9999888887868554,0.0001996609239449588
1326.8838946922995,1326.8838946922995,1.0000484731871153,0.00019962922138868836
1326.8908391368454,1326.8908391368454,1.000198496263246,0.00019962540496038777
1326.89778358145,1326.89778358145,0.999821169174991,0.00019956025252803626
1326.9047280260427,1326.9047280260427,1.0003382139114945,0.00019956249426252327
1326.9116724706705,1326.9116724706705,0.9996297798039023,0.00019944004934140808
1326.9186169152986,1326.9186169152986,1.0000416402850885,0.0001994621584263734
1326.925561359961,1326.925561359961,1.0001170961586012,0.00019942981397412055
1326.9325058046354,1326.9325058046354,0.9997304049788933,0.00019936746992717168
1326.9394502493328,1326.9394502493328,1.0001050415392718,0.00019934851570352314
1326.9463946940537,1326.9463946940537,0.9999352372209149,0.0001993030024922262
1326.9533391387745,1326.9533391387745,0.9999267728189662,0.0001992849821166441
1326.9602835835306,1326.9602835835306,1.0002393471884177,0.0001992848086874709
1326.967228028298,1326.967228028298,0.9999689613812051,0.00019923279235218298
1326.9741724730884,1326.9741724730884,1.0001290095714865,0.00019920355142742703
1326.9811169178677,1326.9811169178677,1.0000116539440058,0.00019917460751966417
1326.9880613627047,1326.9880613627047,0.9999771498370604,0.00019915829141999245
1326.9950058075424,1326.9950058075424,0.9997123795238265,0.0001991141007102229
1327.0019502523794,1327.0019502523794,1.0000525166818712,0.00019914316196452012
1327.0088946972633,1327.0088946972633,1.0000081790015063,0.00019913420347840628
1327.015839142147,1327.015839142147,0.9999979990091038,0.0001991381003947226
1327.0227835870423,1327.0227835870423,1.000225039463802,0.00019915590569480535
1327.0297280319614,1327.0297280319614,0.9999848134989706,0.00019915274639400706
1327.0366724768915,1327.0366724768915,1.000039638006522,0.00019914952487993677
1327.0436169218458,1327.0436169218458,0.9998765129726038,0.0001991392614091189
1327.0505613668108,1327.0505613668108,1.0001480665659817,0.00019915128134697174
