time,time,flux,flux_err
1544.099421474302,1544.099421474302,0.9998331106792956,0.0011520866954072195
1544.1077549418922,1544.1077549418922,1.000676508871409,0.001148847546316538
1544.116088409541,1544.116088409541,0.999602777265522,0.0011458120797630785
1544.1244218772863,1544.1244218772863,0.9995707285676007,0.0011434970340022292
1544.1320608893943,1544.1320608893943,0.9986525770859425,0.001041754980464393
1544.1390054459343,1544.1390054459343,1.000807895602887,0.0010405964875729418
1544.1459500024744,1544.1459500024744,0.999649538765057,0.0010373203456079507
1544.1540056881558,1544.1540056881558,1.0007366677475966,0.0010358374382582445
1544.161228027086,1544.161228027086,0.9991540078561532,0.00103351490757122
1544.1681725837425,1544.1681725837425,1.000172882057924,0.0010333441782744304
1544.1751171404685,1544.1751171404685,0.9994043900707889,0.0010308578275294183
1544.1820616972182,1544.1820616972182,0.9995063041438087,0.0010298940628164885
1544.1890062540378,1544.1890062540378,1.0000800142719573,0.001029591014238628
1544.195950810787,1544.195950810787,1.0008805138826915,0.0010278965726300251
1544.2028953677002,1544.2028953677002,0.9998513570374762,0.0010270908141234948
1544.209839924589,1544.209839924589,0.9998369702635793,0.0010262821495313588
1544.216784481502,1544.216784481502,0.9998521589100458,0.0010263285528572435
1544.2237290384378,1544.2237290384378,1.0002637169056188,0.0010261273702626473
1544.2306735954198,1544.2306735954198,1.0008929744752704,0.0010247298544706668
1544.2376181524255,1544.2376181524255,0.9992146765129819,0.0010246354191230322
1544.2445627094544,1544.2445627094544,1.000680843546074,0.0010234547373301308
1544.2515072665299,1544.2515072665299,0.9993783806814175,0.0010224606791271766
1544.2584518236295,1544.2584518236295,1.0005413249542379,0.0010234301661606142
1544.265396380751,1544.265396380751,0.9992915543177292,0.0010217360883944154
1544.2723409378964,1544.2723409378964,0.9995919541510994,0.001021238845481005
1544.279285495065,1544.279285495065,1.000049726990709,0.0010211618429190592
1544.286230052257,1544.286230052257,1.0005644198974533,0.0010189477895057289
1544.2931746094491,1544.2931746094491,0.9990108691363302,0.0010186212116195144
1544.300119166711,1544.300119166711,1.0012290379262567,0.0010176873387608017
1544.3070637239728,1544.3070637239728,0.9990623865695742,0.0010164580977159942
1544.3140082812579,1544.3140082812579,0.9999198595964327,0.0010162823872340084
1544.3209528385664,1544.3209528385664,1.0008174487887112,0.0010148412038157536
1544.3278973958975,1544.3278973958975,1.0006313940060432,0.0010145405787926787
1544.3348419532297,1544.3348419532297,0.999412730908612,0.0010126882359429421
1544.341786510631,1544.341786510631,0.9996544443243129,0.0010123946847351655
1544.3487310679625,1544.3487310679625,1.0004815899226243,0.0010103304205146865
1544.3556756253874,1544.3556756253874,0.9992300593214551,0.0010084398989239124
1544.3626201828122,1544.3626201828122,1.0008119806973919,0.0010080450939140757
1544.369564740237,1544.369564740237,0.9996305066419264,0.0010068623430609079
1544.3765092977317,1544.3765092977317,1.0010088439892697,0.0010056577621043374
1544.383453855203,1544.383453855203,1.000578214021822,0.0010048069447633993
1544.3903984126978,1544.3903984126978,1.0000665935618376,0.0010034703885962882
1544.3973429701923,1544.3973429701923,0.9989801643419136,0.0010021261231216304
1544.4042875277105,1544.4042875277105,1.0005218826954159,0.001002128466074287
1544.4112320852514,1544.4112320852514,0.999676744483445,0.0009996635836607012
1544.418176642816,1544.418176642816,0.9997247748022898,0.0009988617470716504
1544.4251212003803,1544.4251212003803,0.9994612563649243,0.0009973855927987887
1544.4320657579449,1544.4320657579449,1.0012182236281588,0.0009982777714149496
1544.4390103155326,1544.4390103155326,1.0000614536523003,0.000997271630396765
1544.4459548731202,1544.4459548731202,1.0003448353737008,0.0009966223306016834
1544.4528994307316,1544.4528994307316,1.0011016438823677,0.0009947672106473422
1544.4598439883425,1544.4598439883425,0.9990792357240993,0.0009929130262799062
1544.4667885460003,1544.4667885460003,0.9992753308115603,0.0009925672507004667
1544.4737331036345,1544.4737331036345,1.0000082593644037,0.0009920578863591373
1544.480677661292,1544.480677661292,0.9994582158554479,0.0009916397462192365
1544.4876222189496,1544.4876222189496,1.0006306424701983,0.0009917604199797174
1544.49456677663,1544.49456677663,1.0004523477741425,0.0009912323550564442
1544.5015113343113,1544.5015113343113,0.9994528236614467,0.0009916596597843107
1544.508455891969,1544.508455891969,1.000637718643967,0.00098999899729359
1544.5154004496733,1544.5154004496733,1.0020461134510383,0.0009910541893521751
1544.5223450074006,1544.5223450074006,0.9996230145288598,0.0009898726009907781
1544.5292895651048,1544.5292895651048,1.0004506945885352,0.0009898901719313975
1544.5362341228324,1544.5362341228324,0.9990872907016556,0.0009887179209457316
1544.5431786805366,1544.5431786805366,1.0012602858252586,0.0009896601478461737
1544.550123238264,1544.550123238264,1.0004188581564286,0.0009898025639030763
1544.5570677959681,1544.5570677959681,0.9995251965902835,0.0009882656617280718
1544.564012353719,1544.564012353719,1.0006464062645861,0.0009888477229084564
1544.5709569114692,1544.5709569114692,0.9993669483650305,0.000988187586238131
1544.5779014691973,1544.5779014691973,0.9994511773348235,0.0009880585909789416
1544.5848460269476,1544.5848460269476,0.9999223017653657,0.0009871667377883027
1544.5917905846984,1544.5917905846984,0.9992163950576529,0.0009869643634104884
1544.5987351424492,1544.5987351424492,0.9997435952004547,0.0009862278387515932
1544.6056797002232,1544.6056797002232,1.000383162676574,0.000986453756044074
1544.612624257974,1544.612624257974,1.0007944176544936,0.000986153597161928
1544.6195688157484,1544.6195688157484,1.0004383109340431,0.000985774911258971
1544.626513373499,1544.626513373499,0.9996534743538847,0.0009857620684648927
1544.6334579312497,1544.6334579312497,1.0009121942336427,0.0009853036349967057
1544.6417914005783,1544.6417914005783,1.000270454802562,0.0009856305449645222
1544.6487359583523,1544.6487359583523,0.9999041414824245,0.0009848926043429787
1544.655680516103,1544.655680516103,0.9984647551739421,0.0009849933856335177
1544.662625073877,1544.662625073877,1.0000130251612636,0.0009848252472994402
1544.6695696316278,1544.6695696316278,1.001592882382941,0.0009852955239185467
1544.6765141894016,1544.6765141894016,0.9993434863794228,0.0009835462931273744
1544.6834587471528,1544.6834587471528,0.9973915370608356,0.0009840851700550198
1544.6904033049266,1544.6904033049266,1.0005744230064828,0.0009838535630378657
1544.6973478626776,1544.6973478626776,1.000024106572834,0.0009837016497682431
1544.7042924204281,1544.7042924204281,1.001329842281638,0.0009830635805327587
1544.7112369782021,1544.7112369782021,0.9994104515975929,0.0009832318340858128
1544.718181535953,1544.718181535953,1.0012519077330313,0.0009829654846806642
1544.7251260936805,1544.7251260936805,1.0016443060280378,0.0009830126739280238
1544.7320706514543,1544.7320706514543,0.9997684558579145,0.000982921430165803
1544.7390152091818,1544.7390152091818,0.9991268754271324,0.0009835452274625492
1544.7459597669094,1544.7459597669094,0.9988243452306055,0.0009819014117410222
1544.75290432466,1544.75290432466,0.9997373425781312,0.000982310749822834
1544.7598488823876,1544.7598488823876,0.999854799845003,0.0009820027060874164
1544.7667934400918,1544.7667934400918,0.9998215736447819,0.0009832846734839078
1544.7737379978191,1544.7737379978191,1.0005959170752867,0.000983573702812004
1544.7806825555235,1544.7806825555235,1.000224082193319,0.000982565091884813
1544.7876271132504,1544.7876271132504,1.0003578449333652,0.0009830536986628747
1544.794571670955,1544.794571670955,0.9998915875525013,0.0009827452525286123
1544.8015162286592,1544.8015162286592,1.0005619007291373,0.00098229652406794
1544.8084607863395,1544.8084607863395,0.9992922243814961,0.0009817494557644948
1544.8154053440442,1544.8154053440442,0.9993912449803364,0.000981895442936817
1544.8223499017015,1544.8223499017015,0.9997074386668636,0.0009823786848243321
1544.8292944593825,1544.8292944593825,1.00056890916678,0.000982110484771637
1544.8362390170398,1544.8362390170398,0.9993069287431796,0.0009821909380498032
1544.8431835746978,1544.8431835746978,1.0001219271739745,0.0009810260207287302
1544.8501281323552,1544.8501281323552,1.0014527310741255,0.0009810175730271555
1544.85707268999,1544.85707268999,1.000026043740837,0.0009804827340450155
1544.864017247624,1544.864017247624,1.0007186267239707,0.0009799857847433045
1544.8709618052353,1544.8709618052353,0.9984878115084183,0.0009802242139365276
1544.8779063628695,1544.8779063628695,1.0007639644813464,0.0009795980925248874
1544.8848509204572,1544.8848509204572,0.99837671621631,0.0009788775689387273
1544.8917954780682,1544.8917954780682,1.0002568463096049,0.000979042157176097
1544.8987400356327,1544.8987400356327,0.9992985596383142,0.0009783182473975642
1544.9056845932437,1544.9056845932437,1.0003311783947768,0.0009801627106603408
1544.9126291507848,1544.9126291507848,1.0008322999710901,0.000978161736915996
1544.919573708349,1544.919573708349,1.0003999728515935,0.000977783578811787
1544.9265182658905,1544.9265182658905,1.0001305186022316,0.0009779817476230621
1544.9334628234317,1544.9334628234317,1.00088118537899,0.0009767994406998843
1544.9404073809494,1544.9404073809494,0.999268126888728,0.0009779558922598122
1544.9473519384676,1544.9473519384676,0.9997506399385208,0.0009764132386347799
1544.9542964960087,1544.9542964960087,0.9995188894156962,0.0009759242743702715
1544.961241053457,1544.961241053457,1.000113391722146,0.0009759480511133763
1544.9681856109746,1544.9681856109746,1.0006896703100672,0.0009760345498477056
1544.9751301683996,1544.9751301683996,1.0000034290727293,0.0009752106003517866
1544.9820747258939,1544.9820747258939,0.9999904422774778,0.0009750537569314611
1544.9890192833652,1544.9890192833652,0.9996159437367244,0.0009750492398890433
1544.99596384079,1544.99596384079,0.9993580776940844,0.000974207047581671
1545.002908398215,1545.002908398215,0.9987205686525638,0.0009733494031351627
1545.0098529556394,1545.0098529556394,1.000618450878365,0.0009735669106700291
1545.0167975129482,1545.0167975129482,1.0011764030025336,0.0009736526251619669
1545.0237420703725,1545.0237420703725,0.9998566209514465,0.0009735329505605944
1545.030686627751,1545.030686627751,1.0007144137254627,0.0009728350065095785
1545.0376311851055,1545.0376311851055,1.0000832647018645,0.000973117243695751
1545.0445757424375,1545.0445757424375,0.999722301765491,0.0009727652222127133
1545.051520299769,1545.051520299769,0.9994547878533819,0.0009729815852458032
1545.0584648570773,1545.0584648570773,0.9997616979082002,0.0009729311668593219
1545.065409414386,1545.065409414386,1.0001797088991615,0.0009718165621053992
1545.072353971671,1545.072353971671,0.9992719149923325,0.0009717629396262011
1545.0792985289327,1545.0792985289327,1.00133295956926,0.0009727026648046075
1545.0862430861946,1545.0862430861946,0.999419632507807,0.0009723118915059899
1545.093187643456,1545.093187643456,1.0006678502720636,0.0009713002960716951
1545.1001322006948,1545.1001322006948,1.0011121700380254,0.0009720799938225018
1545.1070767578865,1545.1070767578865,0.9989631749117354,0.0009711629084947762
1545.1140213150782,1545.1140213150782,0.9991311267205495,0.0009716845021031101
1545.1209658722705,1545.1209658722705,0.9992752675430413,0.0009721715640444708
1545.127910429439,1545.127910429439,1.0007496576930222,0.0009712800321451165
1545.1348549865845,1545.1348549865845,0.9994841667692198,0.0009711127237021104
1545.1417995437066,1545.1417995437066,1.0004532428869424,0.000970444112415232
1545.1487441008517,1545.1487441008517,1.0011831851073758,0.0009715440431775869
1545.1556886579276,1545.1556886579276,0.9994389341277718,0.000970539544461247
1545.1626332150263,1545.1626332150263,0.9993239135377927,0.0009699861757175522
1545.1695777721015,1545.1695777721015,0.9998644581103908,0.0009701655679123794
1545.1765223291309,1545.1765223291309,1.00036172890346,0.0009698723050188795
1545.1834668861827,1545.1834668861827,1.000590534325449,0.0009709648661484169
1545.1904114431886,1545.1904114431886,1.0003434652655017,0.0009698142816986055
1545.1973560002175,1545.1973560002175,0.9986899647435873,0.0009693569087488302
1545.2043005572,1545.2043005572,1.0000840830410058,0.0009696785200958822
1545.2112451141588,1545.2112451141588,1.0008628263768582,0.0009698762173434709
1545.218189671095,1545.218189671095,0.999233747986157,0.0009688123886323777
1545.2251342280306,1545.2251342280306,1.000057500256716,0.0009686946067633715
1545.2320787849665,1545.2320787849665,1.0008434174135596,0.0009690226596306408
1545.2390233418091,1545.2390233418091,0.999862935890756,0.000967909225212117
1545.2459678987677,1545.2459678987677,1.0007958361044405,0.000968880992996892
1545.2529124556108,1545.2529124556108,1.0004688325720559,0.0009686521572093698
1545.2598570124533,1545.2598570124533,1.000361444000546,0.0009680503438748624
1545.266801569273,1545.266801569273,0.9989219770118674,0.0009681085817800576
1545.2737461260226,1545.2737461260226,1.000606729271394,0.0009689296453499439
1545.280690682842,1545.280690682842,0.998400710465895,0.0009679347518505193
1545.2876352395915,1545.2876352395915,1.0004042249751954,0.0009679916738933744
1545.2945797963412,1545.2945797963412,0.9996216120745494,0.0009673585325092904
1545.301524353067,1545.301524353067,1.0006223729416388,0.0009676583669596492
1545.3084689097936,1545.3084689097936,1.0008462017820552,0.0009680022644041547
1545.3154134664496,1545.3154134664496,0.9997337027330166,0.0009673491789654063
1545.322358023153,1545.322358023153,1.0002453775710778,0.0009677247181627442
1545.3293025797861,1545.3293025797861,0.9991946156503586,0.0009664011807281137
1545.3362471364192,1545.3362471364192,1.0011638249822847,0.0009674030885756565
1545.3431916930288,1545.3431916930288,0.9989475418541419,0.0009662986415164547
1545.3501362496158,1545.3501362496158,0.9997507997150619,0.0009668358470955775
1545.3570808061788,1545.3570808061788,1.000856521896616,0.0009670692310483267
1545.3640253627423,1545.3640253627423,0.9994993909922396,0.0009657642288940253
1545.3709699192589,1545.3709699192589,1.0013140202727615,0.0009660058717177709
1545.3779144757752,1545.3779144757752,0.9995051837580486,0.0009675152705193018
1545.3848590322457,1545.3848590322457,0.9991597062455775,0.0009664562902454519
1545.3918035887389,1545.3918035887389,1.0010878375809944,0.0009672092312265001
1545.3987481451627,1545.3987481451627,1.000279078437314,0.0009656159620304259
1545.4056927015865,1545.4056927015865,0.9993147281534156,0.0009652015351275772
1545.41263725801,1545.41263725801,0.9999761599965924,0.0009658237016865317
1545.4195818143871,1545.4195818143871,1.0005930452749392,0.0009648738189379088
1545.4265263707405,1545.4265263707405,1.0001025307439153,0.000965244390306514
1545.4334709270943,1545.4334709270943,1.000427199800706,0.0009655206423694886
1545.440415483378,1545.440415483378,1.0001707214167053,0.0009655454631419241
1545.4473600396855,1545.4473600396855,0.9994900244407539,0.000964693011368715
1545.4543045960158,1545.4543045960158,1.0008166890096937,0.0009646012774266825
1545.461249152253,1545.461249152253,0.9994706516876519,0.0009638719234667711
1545.4681937084206,1545.4681937084206,0.999779720171967,0.0009655182291027503
1545.4751382646814,1545.4751382646814,0.99945228745697,0.0009652900426998437
1545.4820828208253,1545.4820828208253,1.0004149927496007,0.000964136814916843
1545.4890273770156,1545.4890273770156,1.0002157980847923,0.0009650140485923748
1545.4959719331605,1545.4959719331605,0.9998517751509205,0.0009644467213408007
1545.502916489281,1545.502916489281,0.9993356621013915,0.000964143998233201
1545.5098610453556,1545.5098610453556,1.0010396361682334,0.000964756727866109
1545.51680560143,1545.51680560143,0.9995531156768361,0.0009655575464403276
1545.5237501575043,1545.5237501575043,1.0000427680159536,0.0009648549056835477
1545.5306947135318,1545.5306947135318,1.0001668476011585,0.0009644567279441461
1545.5376392695366,1545.5376392695366,0.9998354121893092,0.0009654778297589941
1545.5445838255175,1545.5445838255175,1.00013712009946,0.0009646562468950725
1545.5515283814755,1545.5515283814755,1.0007194304783442,0.0009653337298467102
1545.55847293741,1545.55847293741,0.9989861911784466,0.0009645494712471027
1545.5654174933213,1545.5654174933213,1.0004162608533311,0.0009653097743585927
1545.5723620492329,1545.5723620492329,1.0012729230872837,0.0009656011703883546
1545.5793066050742,1545.5793066050742,0.9980382200291636,0.0009648186578439519
1545.5862511609162,1545.5862511609162,1.000455384847565,0.0009666457550469501
1545.593195716734,1545.593195716734,0.9992366929464879,0.0009653333644686253
1545.600140272529,1545.600140272529,0.9999859008096965,0.0009648894878198606
1545.6070848282773,1545.6070848282773,1.0001097554371516,0.0009650578610324448
1545.6140293840722,1545.6140293840722,1.0000723375391325,0.0009658225074034757
1545.6209739397505,1545.6209739397505,1.0003212300997923,0.0009655582225330912
1545.6279184954296,1545.6279184954296,1.0005005014576442,0.0009656468668407577
1545.6348630511077,1545.6348630511077,1.0000263200341462,0.0009644266217800843
1545.6418076067864,1545.6418076067864,1.0004958943020559,0.0009647187441445594
1545.6487521624185,1545.6487521624185,0.9996134487830002,0.0009655712410984434
1545.655696718027,1545.655696718027,1.0005159062798326,0.000964176933437134
1545.662641273589,1545.662641273589,1.0000772366787567,0.0009652405070183483
1545.6695858291282,1545.6695858291282,0.9983977144545497,0.0009650477226084561
1545.6765303846664,1545.6765303846664,1.0008046976096743,0.0009654941578661179
1545.6834749401592,1545.6834749401592,0.9994095968687822,0.0009643326523368198
1545.6904194956512,1545.6904194956512,1.0007475858046753,0.0009655950812028837
1545.6973640510969,1545.6973640510969,0.9995783306802999,0.0009649181225712931
1545.7043086065194,1545.7043086065194,1.0002265202316551,0.000965367103429903
1545.7112531619182,1545.7112531619182,1.0009369699360424,0.0009646963389465969
1545.7181977172945,1545.7181977172945,0.9992374518901748,0.0009645727661085106
1545.72514227267,1545.72514227267,0.9992415580804888,0.0009651830027331999
1545.7320868279992,1545.7320868279992,0.9996925676977128,0.0009652741235231238
1545.7390313833055,1545.7390313833055,1.0004036598060932,0.0009652447040895481
1545.7459759385647,1545.7459759385647,1.000700234299081,0.0009648318380003345
1545.7529204938241,1545.7529204938241,0.9995906457134556,0.0009647139989275402
1545.759865049037,1545.759865049037,1.000346992909496,0.0009644376413393355
1545.7668096042262,1545.7668096042262,0.9998702435185862,0.0009660233022025365
1545.7737541594163,1545.7737541594163,1.0007183705405038,0.0009642351948893488
1545.780698714536,1545.780698714536,1.0004296961290748,0.0009649204106852622
1545.787643269632,1545.787643269632,0.9997205111635168,0.0009645083041137778
1545.7945878247288,1545.7945878247288,0.9992878306503241,0.0009648557582440274
1545.801532379825,1545.801532379825,0.9994189838927456,0.0009641774626658314
1545.8084769348748,1545.8084769348748,0.9999152271662991,0.0009643825206605382
1545.8154214899016,1545.8154214899016,1.000326833874706,0.0009644857459935905
1545.8223660448816,1545.8223660448816,0.9993948158657462,0.000965313188050519
1545.829310599838,1545.829310599838,1.0003558658453076,0.0009655515012856327
1545.8362551547718,1545.8362551547718,1.0003419330350134,0.0009640949564169688
1545.843199709705,1545.843199709705,1.0005918454845357,0.0009649927867129288
1545.8501442645688,1545.8501442645688,1.0007005828542406,0.0009640911251792667
1545.8570888194322,1545.8570888194322,0.9989433733286329,0.0009649238528604689
1545.8640333742726,1545.8640333742726,0.999870494780845,0.0009652500025956322
1545.8709779290664,1545.8709779290664,0.9995037141974141,0.0009647490954115779
