time,time,flux,flux_err
1569.7131803998473,1569.7131803998473,1.0000132744610355,0.0006766590292781103
1569.7215138520105,1569.7215138520105,0.9996221353848694,0.000675997346425163
1569.7298473045612,1569.7298473045612,1.0003069658048391,0.0006755719139807045
1569.7381807574614,1569.7381807574614,0.9999277083189098,0.0006751818892953727
1569.7458197562341,1569.7458197562341,1.0001330127531303,0.0006161102722380045
1569.7527643008077,1569.7527643008077,1.000124537303049,0.0006161509431190402
1569.7597088455677,1569.7597088455677,1.0003538333469406,0.0006158703305141173
1569.7666533906067,1569.7666533906067,0.9998758410422145,0.0006149338057471322
1569.7735979358338,1569.7735979358338,1.0001818327703966,0.0006145037368551733
1569.7805424812923,1569.7805424812923,0.9994726250571718,0.0006140762580829047
1569.7874870269366,1569.7874870269366,1.0001316422985522,0.0006137838023949546
1569.7944315728141,1569.7944315728141,0.9996488103111016,0.0006135692814042089
1569.8013761188317,1569.8013761188317,1.0004100391362043,0.0006132716519074928
1569.8083206651759,1569.8083206651759,1.0002097394622125,0.0006129832011135577
1569.8152652116587,1569.8152652116587,1.0004992660379706,0.0006126164104905576
1569.8222097583741,1569.8222097583741,0.9985519505160972,0.0006119845249301945
1569.8291543053226,1569.8291543053226,1.000309998345158,0.0006116858285529992
1569.836098852412,1569.836098852412,0.9990548058369988,0.000610997015263422
1569.8430433995932,1569.8430433995932,1.0000098406918903,0.0006107259111288652
1569.8499879471938,1569.8499879471938,0.9998481838442445,0.0006099044982925427
1569.8569324947941,1569.8569324947941,1.000180703637422,0.0006088269384007998
1569.8638770427212,1569.8638770427212,1.000429528240057,0.0006080184816268504
1569.8708215907413,1569.8708215907413,0.9998998432400041,0.0006073284493355813
1569.87776613904,1569.87776613904,1.000556589654505,0.0006062497375180995
1569.8847106873855,1569.8847106873855,1.001195173168122,0.0006058028850016452
1569.8916552360574,1569.8916552360574,0.999456913717722,0.0006046271870222433
1569.8985997848226,1569.8985997848226,1.0007105888923626,0.00060381089529499
1569.9055443337734,1569.9055443337734,0.9991037096820454,0.0006028931747614748
1569.9124888829106,1569.9124888829106,0.9991101406279874,0.0006017849721937993
1569.919433432234,1569.919433432234,1.0002061627902035,0.000601042603524512
1569.9263779816981,1569.9263779816981,1.0001749682513696,0.0006000137656887251
1569.933878095327,1569.933878095327,1.0001874676264122,0.0005986962140679855
1569.9416559911315,1569.9416559911315,1.0002791818430152,0.0005977282938058246
1569.9486005411534,1569.9486005411534,0.9999326967832813,0.0005966247895227316
1569.9563784373775,1569.9563784373775,0.9996641563469328,0.0005952112783599485
1569.9638785517523,1569.9638785517523,1.000274753940123,0.0005939168544196533
1569.9708231022396,1569.9708231022396,1.0001766237087977,0.0005927721150665417
1569.9786009990687,1569.9786009990687,1.0002182741041807,0.0005915160440934688
1569.9861011140486,1569.9861011140486,0.9989920836419305,0.0005900193077451002
1569.9933234470384,1569.9933234470384,1.0012011370032834,0.0005890475504301701
1570.0024902545615,1570.0024902545615,0.9990594500046829,0.0005867610002057941
1570.009712588016,1570.009712588016,0.9999135710313457,0.0005856039112888855
1570.016657139529,1570.016657139529,0.9998922405924118,0.0005843674247380046
1570.024157255347,1570.024157255347,1.000318020377859,0.0005829817308782327
1570.03193515334,1570.03193515334,0.9990892020514126,0.0005811740444915385
1570.0388797053643,1570.0388797053643,0.9995504127440611,0.0005797867114616431
1570.0472131678962,1570.0472131678962,0.9993087027402676,0.0005783121260770072
1570.0569355410757,1570.0569355410757,1.000315185703124,0.0005769124717883705
1570.0638800935187,1570.0638800935187,1.0008991805932408,0.0005757971909221588
1570.0708246461015,1570.0708246461015,1.0000961260255148,0.0005745627221413178
1570.0788803272958,1570.0788803272958,0.9997488060468347,0.0005731658063063297
1570.0861026621951,1570.0861026621951,1.0001825351013138,0.0005717117925011823
1570.0930472152438,1570.0930472152438,0.998812383926243,0.0005709693780466537
1570.1005473325508,1570.1005473325508,1.0001872122443782,0.0005696850644501586
1570.108325232221,1570.108325232221,0.9993400576017952,0.000568058012985076
1570.1152697856435,1570.1152697856435,1.0000601460637504,0.000567613494491757
1570.1247143784617,1570.1247143784617,1.0008040217412,0.0005663859584728257
1570.1319367142448,1570.1319367142448,1.0001490774980772,0.000565195301528443
1570.1394368323442,1570.1394368323442,1.000178522541761,0.0005638515322363234
1570.1472147327138,1570.1472147327138,0.9998677898193777,0.0005630156195357634
1570.1541592867866,1570.1541592867866,1.0002580760176252,0.0005622094843264005
1570.1611038409062,1570.1611038409062,0.9996883109483162,0.0005611390395918412
1570.1680483951193,1570.1680483951193,0.9989902872071484,0.0005601094460938021
1570.1749929494722,1570.1749929494722,0.9992540843652534,0.0005595943762889603
1570.1819375039652,1570.1819375039652,1.0007449314286636,0.0005588289678366048
1570.191382098227,1570.191382098227,1.0002419512734555,0.0005573558345015815
1570.199993346101,1570.199993346101,1.000334976498546,0.000556473561092505
1570.20693790092,1570.20693790092,1.0001249319276995,0.0005557274785461657
1570.214438020323,1570.214438020323,0.9996370868680291,0.0005535506651860164
1570.2224937041713,1570.2224937041713,0.9993488991892399,0.0005532815254022786
1570.2305493881122,1570.2305493881122,1.0002188506559078,0.0005523676635473303
1570.2374939433967,1570.2374939433967,1.0003398741531042,0.000551835723629063
1570.2499941430851,1570.2499941430851,0.9997626897481234,0.0005500632738273287
1570.2574942630467,1570.2574942630467,0.9987830106531623,0.0005487109996356327
1570.2652721654636,1570.2652721654636,1.0011938145448056,0.0005486705104858257
1570.2722167211678,1570.2722167211678,1.0006620191028053,0.0005477113624853768
1570.2791612769643,1570.2791612769643,1.0003035252416297,0.0005467792448656877
1570.2877725262815,1570.2877725262815,0.9996043198032559,0.0005454341464295749
1570.2958282112936,1570.2958282112936,0.9998180887179459,0.0005444014783083786
1570.3027727673693,1570.3027727673693,1.000257527903788,0.0005438118406782183
1570.3108284526152,1570.3108284526152,0.9987271017780298,0.0005423885854907013
1570.3180507911459,1570.3180507911459,0.9999624024841939,0.0005415380984743007
1570.3263842587999,1570.3263842587999,0.9998395258131897,0.0005404576742596818
1570.3333288152478,1570.3333288152478,0.9999035131316111,0.0005398041265569151
1570.3402733717899,1570.3402733717899,0.9999398608545658,0.0005389566506069765
1570.3483290574543,1570.3483290574543,0.9995316495808533,0.0005379030394976039
1570.3555513964504,1570.3555513964504,1.0001709628539575,0.0005374641157944026
1570.3630515177629,1570.3630515177629,0.9997681026727083,0.0005365066402915274
1570.3708294214844,1570.3708294214844,1.0003610987289868,0.0005358770450161843
1570.3788851075678,1570.3788851075678,1.000953675406409,0.0005349690350771451
1570.3869407936975,1570.3869407936975,0.9999083697460233,0.0005341910507720788
1570.3944409153821,1570.3944409153821,1.0001627257344388,0.0005338198688523995
1570.4041632954536,1570.4041632954536,1.0000954054453768,0.000532715513794411
1570.4111078527862,1570.4111078527862,0.9993901139282404,0.0005323873533169645
1570.4180524100725,1570.4180524100725,0.9999715419575651,0.0005316209034477118
1570.4255525320832,1570.4255525320832,0.9994900482218292,0.0005308724200742824
1570.4347193479418,1570.4347193479418,0.9997612246557711,0.0005311311131344692
1570.4449972931561,1570.4449972931561,0.9995118478186915,0.0005302259829563791
1570.4527751977153,1570.4527751977153,0.9994834363418101,0.0005303378969161834
1570.4597197554672,1570.4597197554672,1.0014103638681537,0.0005302291957329613
1570.4666643131727,1570.4666643131727,1.0007395208521292,0.0005297834213520222
1570.473608871065,1570.473608871065,0.9996655618414616,0.0005295619135572427
1570.4805534289567,1570.4805534289567,1.0007736076242024,0.0005291727488766461
1570.487497986848,1570.487497986848,0.9993000475665965,0.0005286645321691391
1570.4944425449721,1570.4944425449721,0.9995836417809889,0.000528451511051225
1570.501387102958,1570.501387102958,0.9995978023273524,0.000528436615114916
1570.5083316610826,1570.5083316610826,0.9988893957839349,0.0005275264424641936
1570.5152762192533,1570.5152762192533,0.99991522370923,0.0005281458955408703
1570.5224985597863,1570.5224985597863,1.0013689566733102,0.0005280945067884108
1570.5305542474064,1570.5305542474064,1.0000541584599032,0.0005276100075523181
1570.537498805765,1570.537498805765,1.0003076852795796,0.0005273312036734116
1570.5469434051492,1570.5469434051492,0.9999389353323686,0.0005273272389297225
1570.5541657459153,1570.5541657459153,0.9999828566686559,0.0005270230214110134
1570.5611103044585,1570.5611103044585,1.0007491187951536,0.0005269641908462576
1570.5680548630028,1570.5680548630028,0.9997699077975915,0.0005271048110802219
1570.5749994215935,1570.5749994215935,0.9994729080662837,0.0005269074093307345
1570.5819439802297,1570.5819439802297,0.9989600435117799,0.0005267042655394534
1570.5888885389131,1570.5888885389131,1.0004175747654256,0.0005269614997164287
1570.5958330976894,1570.5958330976894,1.0011402154132312,0.0005267828978073347
1570.6027776564197,1570.6027776564197,1.000539482496976,0.0005266189456740037
1570.6108333446452,1570.6108333446452,1.0007579426875763,0.0005264970536880498
1570.6180556858767,1570.6180556858767,0.9993571472182884,0.0005259495541307172
1570.6250002447464,1570.6250002447464,1.0000098559693629,0.0005261599912187189
1570.6330559331577,1570.6330559331577,0.9999965402941919,0.0005258949570194669
1570.6402782744374,1570.6402782744374,0.9993330470554718,0.0005255805802242715
1570.6472228334928,1570.6472228334928,1.0000381102492133,0.0005253801961391281
1570.6541673925483,1570.6541673925483,0.999217812421494,0.0005252686659980221
1570.6611119516974,1570.6611119516974,0.9997448218818838,0.000524946049116187
1570.6680565108932,1570.6680565108932,1.0007865445058821,0.0005247867350180261
1570.6750010700428,1570.6750010700428,1.001066285394682,0.0005247353236811175
1570.681945629238,1570.681945629238,1.0001621583971305,0.0005242961564083095
1570.6888901885263,1570.6888901885263,0.9987904012610578,0.0005236912178717824
1570.695834747815,1570.695834747815,0.9993534288957058,0.0005237609909541569
1570.7027793071506,1570.7027793071506,1.000529162079988,0.0005235791271648421
1570.7097238664865,1570.7097238664865,1.0008782902041724,0.0005233861802338155
1570.7166684258216,1570.7166684258216,1.0001796694642804,0.0005230022679821318
1570.7236129852965,1570.7236129852965,0.9997180291024568,0.0005230086973600346
1570.730557544724,1570.730557544724,1.0003316083006566,0.000522800033695279
1570.7375021041998,1570.7375021041998,1.0002086586351253,0.0005224165277856461
1570.7444466637216,1570.7444466637216,0.999456819440239,0.0005220013869011756
1570.751391223243,1570.751391223243,0.9996819744275166,0.0005218325635582505
1570.758335782811,1570.758335782811,0.9992340542796871,0.0005214721132641015
1570.765280342379,1570.765280342379,1.0007534875507385,0.0005213901530314138
1570.7722249020403,1570.7722249020403,1.000468562914423,0.0005210102331879715
1570.7791694616553,1570.7791694616553,0.9996852174156438,0.0005209214933458238
1570.7861140213165,1570.7861140213165,0.9995542330345751,0.0005205950493489801
1570.7930585810707,1570.7930585810707,1.0004024305904982,0.0005203489916434608
1570.800003140778,1570.800003140778,0.9999864653893141,0.0005205054757318341
1570.806947700533,1570.806947700533,0.9997029291865397,0.0005200546756263813
1570.813892260288,1570.813892260288,1.0006095703992002,0.0005198812016723129
1570.8208368200417,1570.8208368200417,0.9998735169767128,0.0005196346501507541
1570.8277813798895,1570.8277813798895,0.9999608120475084,0.0005196110368237718
1570.8347259397365,1570.8347259397365,1.0002685903422672,0.0005194692067488122
1570.8416704996312,1570.8416704996312,1.0003613798040314,0.0005193303643346958
1570.8486150594792,1570.8486150594792,0.9999370402610717,0.000519169635768841
1570.8555596194192,1570.8555596194192,0.9989493354133654,0.0005188492209351012
1570.8625041793134,1570.8625041793134,0.9997105632550435,0.0005189060863824882
1570.8694487392536,1570.8694487392536,1.0002956826187162,0.0005190028503198029
1570.8766710816496,1570.8766710816496,0.9995165728994166,0.0005187496814444822
1570.8847267712263,1570.8847267712263,1.0005580033647192,0.000518863294778116
1570.8916713312597,1570.8916713312597,1.0005832232005898,0.0005186535736803612
1570.898615891293,1570.898615891293,1.0003022872322256,0.0005185783101471026
1570.9055604513264,1570.9055604513264,0.9999370038701818,0.0005184369196349548
1570.912505011361,1570.912505011361,0.9997082942411829,0.0005181535179325713
1570.9194495714883,1570.9194495714883,0.999527830731855,0.0005178388685124857
1570.9263941315216,1570.9263941315216,0.9996157984833894,0.0005176937009963689
1570.933338691695,1570.933338691695,1.0002941005164079,0.0005175880547484356
1570.9402832517287,1570.9402832517287,1.00082316948163,0.0005177967127092031
1570.947227811949,1570.947227811949,0.9993765696684399,0.0005170765711880422
1570.954172372123,1570.954172372123,0.9993471218776342,0.0005171300801477903
1570.9611169321565,1570.9611169321565,1.0005281762738174,0.000517051779641681
1570.968061492376,1570.968061492376,1.000369251144233,0.0005169310472407197
1570.975006052596,1570.975006052596,1.0004956036042094,0.0005166014450424632
1570.9819506128165,1570.9819506128165,0.9992980088747198,0.0005165641051546853
1570.9888951730368,1570.9888951730368,0.9998294788861856,0.000516558630542786
1570.9958397332568,1570.9958397332568,1.0002224139575584,0.0005162006206925398
1571.0027842934765,1571.0027842934765,1.0006016925146397,0.0005161639988575965
1571.0097288536963,1571.0097288536963,0.999431490107024,0.0005156961047049298
1571.0166734139627,1571.0166734139627,0.9994307546421316,0.0005155077320122719
1571.0236179743702,1571.0236179743702,1.0003899513552583,0.0005154795342775817
1571.03056253459,1571.03056253459,1.000455666280968,0.0005155428045636067
1571.0375070948094,1571.0375070948094,1.0001456501209853,0.0005152492911570279
1571.0444516551693,1571.0444516551693,0.9998228174381874,0.0005150910902157305
1571.0513962154823,1571.0513962154823,0.9996284242341463,0.0005148662740326684
1571.0583407757495,1571.0583407757495,1.0002797813480413,0.0005148310000998347
1571.065285336156,1571.065285336156,0.9998791972464481,0.0005146435697573244
1571.0722298963758,1571.0722298963758,0.9996749458318253,0.0005144554892085207
1571.0791744568282,1571.0791744568282,1.000283530137391,0.0005143260450406662
1571.086119017095,1571.086119017095,0.9998391691197053,0.0005140920814267023
1571.0930635775014,1571.0930635775014,1.0002505289971815,0.0005141153868365008
1571.100008137815,1571.100008137815,1.000073242294803,0.0005138822861221039
1571.1069526981746,1571.1069526981746,0.9998550911319934,0.000513698826721596
1571.1138972585802,1571.1138972585802,1.000548436203093,0.0005135645655122611
1571.1208418188933,1571.1208418188933,0.9999414187731057,0.0005135260463982234
1571.1277863793002,1571.1277863793002,0.9990921086782849,0.0005132737235173245
1571.1347309397067,1571.1347309397067,1.0001272793593972,0.0005133231025829484
1571.1416755000198,1571.1416755000198,0.999756615870982,0.0005130289187352811
1571.148620060426,1571.148620060426,1.0003810171096055,0.0005129517947396651
1571.1555646208315,1571.1555646208315,0.9996344926118435,0.0005128838428366723
1571.1625091812384,1571.1625091812384,1.0009212776427172,0.0005128115881555238
1571.1694537415988,1571.1694537415988,0.9996130233923985,0.000512590699940815
1571.1763983020046,1571.1763983020046,0.9999374659227153,0.000512650541075269
1571.183342862411,1571.183342862411,0.9997578920653394,0.0005124120783239444
1571.190287422817,1571.190287422817,1.0001982397165423,0.0005124519772090456
1571.1972319831764,1571.1972319831764,1.0002984470907141,0.0005122488774531893
1571.2041765435838,1571.2041765435838,1.0000631053083389,0.0005123010848480828
1571.2111211040367,1571.2111211040367,0.9990645080911607,0.0005121260560897792
1571.218065664396,1571.218065664396,0.9998962417320486,0.0005120653881160389
1571.225010224802,1571.225010224802,0.999979893916738,0.00051189445906028
1571.2319547851614,1571.2319547851614,0.9998232069814186,0.0005118297895768713
1571.2388993456152,1571.2388993456152,1.000744021247678,0.0005120334864376152
1571.2458439059749,1571.2458439059749,0.998823814802788,0.0005115478522534156
1571.252788466381,1571.252788466381,1.0002072794673251,0.0005117007734884509
1571.2597330267404,1571.2597330267404,1.000129851404458,0.00051185839242556
1571.2666775871928,1571.2666775871928,1.0008993482530635,0.0005116753577476933
1571.2736221475532,1571.2736221475532,0.9997145275677534,0.0005115797859081414
1571.2805667079133,1571.2805667079133,0.9999043805946031,0.0005112957782442494
1571.2875112683193,1571.2875112683193,0.9999905070409676,0.0005114408593601709
1571.2944558287259,1571.2944558287259,1.0001756569884743,0.000511213416805387
1571.3014003890385,1571.3014003890385,0.9995896497342883,0.0005111415686839113
1571.3083449494447,1571.3083449494447,0.9995474602959616,0.0005109436867656299
1571.315289509805,1571.315289509805,0.9993480059241365,0.0005106956646651285
1571.3222340701182,1571.3222340701182,1.000894321619657,0.0005108488613999611
1571.3291786305708,1571.3291786305708,0.9998369764794791,0.0005106574033379934
1571.336123190837,1571.336123190837,1.0008453543377482,0.0005106894950267833
1571.343067751243,1571.343067751243,1.000026850728844,0.0005105210477623841
1571.3500123115568,1571.3500123115568,0.9997011604235718,0.0005103934331229562
1571.356956871917,1571.356956871917,1.0004171845029783,0.0005105304888337244
1571.3639014321834,1571.3639014321834,0.99961885596476,0.0005101460742936044
1571.3708459925897,1571.3708459925897,0.9996560994539626,0.0005099505265112295
1571.377790552809,1571.377790552809,0.999713364761897,0.0005099378351454321
1571.3847351132154,1571.3847351132154,1.0004796129550857,0.0005099851798988586
1571.391679673483,1571.391679673483,0.9996169396617388,0.000509654711152123
1571.3986242337028,1571.3986242337028,0.9998024489359473,0.000509605772916432
1571.4055687941088,1571.4055687941088,0.9998418273118563,0.0005094923649664673
1571.4125133543753,1571.4125133543753,1.000902005529256,0.000509493043057215
1571.419457914595,1571.419457914595,1.0005118640598478,0.0005093341720874883
1571.4264024748154,1571.4264024748154,0.9993833101637971,0.0005093139776631212
1571.433347035036,1571.433347035036,0.9993131723750371,0.000509248732229164
1571.4402915953021,1571.4402915953021,1.0006717623780765,0.0005092481142742798
1571.4472361557084,1571.4472361557084,0.9998856177178483,0.0005091548405562472
1571.454180715928,1571.454180715928,1.0000968321059474,0.000509127176867143
1571.4611252761479,1571.4611252761479,1.0006567602520375,0.0005091746337861285
1571.4680698362295,1571.4680698362295,0.9993580702465927,0.0005089481152382503
1571.475014396356,1571.475014396356,1.000190702239371,0.0005091112867175308
1571.4819589565755,1571.4819589565755,0.9993981621567126,0.0005090759933372883
1571.4889035167955,1571.4889035167955,1.0000823597168078,0.0005090877618850209
1571.4958480770154,1571.4958480770154,0.9999507873363476,0.0005090596861614332
1571.5027926371426,1571.5027926371426,1.0003502796975368,0.0005090855252998675
1571.5097371972236,1571.5097371972236,0.9999596771685667,0.0005090773142825665
1571.5166817574432,1571.5166817574432,0.999963196246959,0.0005088994338772921
1571.5236263174768,1571.5236263174768,1.0000618746879506,0.0005088975997745602
1571.53057087765,1571.53057087765,0.9991799080128857,0.0005087782945326566
1571.5375154376834,1571.5375154376834,1.0004731489143481,0.0005088507445795493
1571.5444599978114,1571.5444599978114,1.0005375161714292,0.0005087155318202236
