time,time,flux,flux_err
1354.1172718502555,1354.1172718502555,1.0001819455904857,0.0001479531795743699
1354.1260682753618,1354.1260682753618,1.0000108789136155,0.00014794805771195632
1354.1337072760452,1354.1337072760452,0.9998893806745912,0.00013504763666538047
1354.140651822024,1354.140651822024,0.9996859510318284,0.00013503514530699412
1354.1475963679095,1354.1475963679095,0.9998672176610806,0.00013505341503684197
1354.154540913795,1354.154540913795,1.0001575131803249,0.00013506936392122438
1354.1614854595873,1354.1614854595873,1.0000049223043255,0.0001350546411053302
1354.1684300053334,1354.1684300053334,1.000117445810945,0.00013506327085735132
1354.1753745509857,1354.1753745509857,1.0000314839436877,0.00013506131733759345
1354.1823190966388,1354.1823190966388,0.9998605819277449,0.0001350466620085408
1354.189263642198,1354.189263642198,0.9999992631859016,0.00013505115228456
1354.1962081876645,1354.1962081876645,1.0001085248888375,0.0001350497258716719
1354.2031527330844,1354.2031527330844,1.00005875638561,0.00013505575578351132
1354.2100972784112,1354.2100972784112,1.000034385225947,0.00013505904893469856
1354.2170418238309,1354.2170418238309,1.0000605184516445,0.00013506444982478463
1354.2239863690181,1354.2239863690181,0.99982336352279,0.0001350450227170789
1354.230930914205,1354.230930914205,0.9998389159319275,0.00013504990424815236
1354.2378754592992,1354.2378754592992,1.0001469126218896,0.00013507002161695298
1354.2448200043461,1354.2448200043461,1.0000039249066206,0.00013505714600441765
1354.2517645493003,1354.2517645493003,1.0000682257366074,0.0001350617760926434
1354.258709094208,1354.258709094208,0.9999919146339653,0.00013506569650113576
1354.2656536391157,1354.2656536391157,0.9999283917804476,0.0001350552820502747
1354.2725981839299,1354.2725981839299,1.0000524392986296,0.0001350647889171147
1354.2795427286517,1354.2795427286517,1.0000899186797327,0.00013506280595007762
1354.2864872733262,1354.2864872733262,0.9999712005807483,0.00013506037135581158
1354.2934318179082,1354.2934318179082,0.9999496310500884,0.00013506002412533275
1354.3003763624897,1354.3003763624897,0.9998840172347865,0.00013506207400219682
1354.3073209069314,1354.3073209069314,0.9999782156614925,0.0001350595775765148
1354.3142654514202,1354.3142654514202,0.9999112221585109,0.00013505046078540623
1354.3212099957225,1354.3212099957225,1.0000958877783563,0.00013506547166900165
1354.3281545400246,1354.3281545400246,1.000099719906817,0.00013506975438613646
1354.3350990842805,1354.3350990842805,1.0000987669518318,0.00013507615145057588
1354.3420436283964,1354.3420436283964,1.0001184609819513,0.00013507054359000368
1354.348988172606,1354.348988172606,0.9997909737421835,0.00013505038016981425
1354.3559327166283,1354.3559327166283,1.0000217843621073,0.00013506236040843013
1354.3628772606512,1354.3628772606512,0.9999499375760944,0.00013505909972848755
1354.3698218044415,1354.3698218044415,1.0000260417708087,0.00013506145057961557
1354.376766348371,1354.376766348371,1.0000647138012742,0.00013506711664254865
1354.3837108921612,1354.3837108921612,0.9996680783317403,0.0001350437808269169
1354.3906554359048,1354.3906554359048,1.0001778737516998,0.0001350695873477662
1354.3975999795082,1354.3975999795082,1.0000479950337364,0.00013506674499923874
1354.4045445231588,1354.4045445231588,1.0000793852152565,0.00013506608916265175
1354.411489066716,1354.411489066716,0.9999009725211128,0.00013505229865750835
1354.4184336102267,1354.4184336102267,1.0000079657278094,0.0001350602547237479
1354.4253781536445,1354.4253781536445,0.999951104481052,0.00013505991749403366
1354.4323226969682,1354.4323226969682,1.0000501557502322,0.00013506100559407247
1354.4392672402462,1354.4392672402462,1.000047563451329,0.0001350668721278707
1354.4462117834776,1354.4462117834776,0.999968464632493,0.000135062877140234
1354.4531563267087,1354.4531563267087,1.0002334945062479,0.00013507012896631738
1354.4601008698005,1354.4601008698005,0.9998520722147838,0.00013505025309862623
1354.4670454128452,1354.4670454128452,1.0000914198795077,0.00013506746295144793
1354.4739899558435,1354.4739899558435,0.999954050796098,0.00013505885011843997
1354.4809344987957,1354.4809344987957,0.9998712887801655,0.000135056117517671
1354.4878790416542,1354.4878790416542,0.9999458689020677,0.00013505247308879205
1354.49482358442,1354.49482358442,0.9999648479767742,0.00013506195742497452
1354.501768127139,1354.501768127139,0.9999767869038839,0.00013506326297047
1354.5087126698113,1354.5087126698113,1.0000612899231842,0.00013506693099001865
1354.5156572124374,1354.5156572124374,1.000223378330185,0.00013507964204021486
1354.52260175497,1354.52260175497,0.9998781800416501,0.00013505532942119367
1354.5295462975027,1354.5295462975027,0.999941968654818,0.00013506698987391727
1354.5364908399429,1354.5364908399429,1.0000382919524193,0.00013506736399781732
1354.5434353822425,1354.5434353822425,0.999917017526767,0.00013505766768253527
1354.5503799246355,1354.5503799246355,1.0000758230683526,0.00013507192556532367
1354.5573244667962,1354.5573244667962,1.0000200022568988,0.00013506863539388157
1354.5642690090488,1354.5642690090488,1.0000593901561345,0.00013506597162428946
1354.5712135511628,1354.5712135511628,0.999869068135685,0.0001350647878920667
1354.578158093183,1354.578158093183,1.0000074438481115,0.00013506584682711036
1354.5851026352038,1354.5851026352038,1.0000734218500775,0.0001350635004815112
1354.5920471771315,1354.5920471771315,1.0000120795142053,0.0001350594544617695
1354.5989917190122,1354.5989917190122,0.9997533665243644,0.00013504657568243352
1354.6059362608928,1354.6059362608928,1.0000606693271192,0.00013506058747713798
1354.612880802634,1354.612880802634,1.0001270954716985,0.00013506809720511238
1354.6198253443283,1354.6198253443283,1.0000552942761396,0.00013506254300981645
1354.6267698859765,1354.6267698859765,1.000245556828799,0.00013507318484530273
1354.633714427485,1354.633714427485,0.9999270114030351,0.0001350599325821399
1354.6406589690396,1354.6406589690396,1.0001194142743273,0.0001350669369259126
1354.6476035105018,1354.6476035105018,0.999803098425252,0.00013504346251359158
1354.65454805187,1354.65454805187,1.0001124463307955,0.00013506659051673857
1354.6614925931922,1354.6614925931922,0.9999954337452035,0.00013505493862144398
1354.668437134468,1354.668437134468,1.0001013616187107,0.00013507107489511573
1354.6753816756964,1354.6753816756964,0.9999012054719915,0.00013505515392679674
1354.6823262168327,1354.6823262168327,0.9997222523587682,0.00013504314307494786
1354.6892707579682,1354.6892707579682,1.0000196197381106,0.00013504913945460868
1354.696215298964,1354.696215298964,0.9999893220302882,0.00013505613160826995
1354.703159839914,1354.703159839914,1.0001314576347689,0.0001350662273799294
1354.7101043808634,1354.7101043808634,1.0000698882364734,0.00013505365545061663
1354.717048921673,1354.717048921673,0.9999783600119067,0.0001350482259552085
1354.7239934624831,1354.7239934624831,1.0001103373911715,0.00013506648242080053
1354.7309380032461,1354.7309380032461,1.0000052554594485,0.00013505341240252887
1354.7378825438234,1354.7378825438234,1.0002088290922182,0.00013507230592537417
1354.74482708454,1354.74482708454,0.9998757077354632,0.00013504542726192932
1354.7517716251168,1354.7517716251168,0.9998874520754033,0.0001350487951250568
1354.7587161655542,1354.7587161655542,0.9997586599788647,0.00013503683125126525
1354.7656607059448,1354.7656607059448,1.0000472289137323,0.00013505984171084765
1354.7726052463354,1354.7726052463354,1.0001911269755486,0.0001350732930947558
1354.7795497866332,1354.7795497866332,0.9999843764878846,0.0001350605423110441
1354.7864943269306,1354.7864943269306,0.9999956475916532,0.00013505533534992646
1354.7934388670885,1354.7934388670885,1.0000111059709174,0.00013505733716220777
1354.8003834072465,1354.8003834072465,1.0000167184289972,0.00013505992992584405
1354.8073279473115,1354.8073279473115,1.0000388345526925,0.00013505775126350245
1354.8142724873294,1354.8142724873294,0.9998696513947405,0.00013505240104090294
1354.8212170273011,1354.8212170273011,0.9999305088515239,0.0001350507933203406
1354.8281615671797,1354.8281615671797,0.9999794523915579,0.0001350474591773377
1354.8351061070116,1354.8351061070116,1.0001936417664237,0.00013507197220575805
1354.842050646797,1354.842050646797,1.0000392421348985,0.00013506154373002212
1354.848995186536,1354.848995186536,1.0000857884947387,0.0001350668077054061
1354.855939726181,1354.855939726181,0.9999730515602272,0.00013505825113513647
1354.8628842657804,1354.8628842657804,0.9997970629558204,0.0001350552441703132
1354.8698288052867,1354.8698288052867,0.9998742620523263,0.00013505453628653012
1354.8767733448856,1354.8767733448856,0.9999282009176049,0.00013505534574081692
1354.8837178842518,1354.8837178842518,1.0001078525107914,0.00013506728156443924
1354.890662423618,1354.890662423618,1.00004628028108,0.0001350624077023371
1354.8976069629844,1354.8976069629844,1.0000148879466921,0.0001350607763238435
1354.9045515021182,1354.9045515021182,1.0002217040637376,0.00013508082252393017
1354.911496041391,1354.911496041391,0.9999710093338287,0.00013506178635561326
1354.9184405805242,1354.9184405805242,1.000210789044487,0.00013508015124323163
1354.9253851196113,1354.9253851196113,0.9996118185101555,0.0001350363769577081
1354.9323296585585,1354.9323296585585,1.0001269306245157,0.0001350702503160549
1354.9406631053323,1354.9406631053323,0.9999241782502878,0.00013507023047802243
1354.9476076442331,1354.9476076442331,1.0000213586806634,0.00013506809544710962
1354.9545521830405,1354.9545521830405,0.99990676616737,0.0001350510010509672
1354.961496721848,1354.961496721848,0.9999856340204432,0.0001350573804647901
1354.9684412605627,1354.9684412605627,0.9999911762107845,0.00013507086671836062
1354.9753857992298,1354.9753857992298,1.0000875258009976,0.00013507081118882403
1354.982330337805,1354.982330337805,1.0000968518411684,0.00013507399484494092
1354.9892748763796,1354.9892748763796,0.9999047228784838,0.00013506553257957237
1354.9962194148607,1354.9962194148607,0.9998787284958489,0.00013505265315766744
1355.0031639532958,1355.0031639532958,1.0001367078921526,0.0001350774913826597
1355.0101084916375,1355.0101084916375,0.9999420395388814,0.00013505766364731294
1355.017053030026,1355.017053030026,1.0001388483639473,0.00013507343485838602
1355.0239975682748,1355.0239975682748,0.9998741385498329,0.00013504407837625158
1355.030942106477,1355.030942106477,1.0000233312964337,0.00013506233252631917
1355.0378866445863,1355.0378866445863,0.9997712487120569,0.00013504141109980835
1355.0448311826483,1355.0448311826483,1.000146079634737,0.00013507599203413666
1355.0517757206644,1355.0517757206644,1.0002843141880762,0.00013507999276832078
1355.05872025868,1355.05872025868,0.9999846353541455,0.00013506670999328068
1355.0656647965563,1355.0656647965563,0.9997587469141603,0.0001350601042188963
1355.0726093344324,1355.0726093344324,0.9999685080900125,0.00013506545371521966
1355.0795538722155,1355.0795538722155,1.0002041343364856,0.0001350871751511367
1355.0864984099517,1355.0864984099517,1.0001250930792083,0.00013508377541286562
1355.0934429476883,1355.0934429476883,0.9998752594184286,0.00013507137942612947
1355.1003874852854,1355.1003874852854,0.9999680287024022,0.00013506612290073108
1355.1073320228352,1355.1073320228352,0.9999762592463421,0.00013507615432833077
1355.1142765603859,1355.1142765603859,0.9998435001427133,0.00013506416103485253
1355.1212210978424,1355.1212210978424,1.0000722873170074,0.00013507884265657406
1355.1281656352064,1355.1281656352064,0.9998187262192969,0.0001350599254761486
1355.1351101725706,1355.1351101725706,1.0000513290288187,0.00013507037892138807
1355.142054709841,1355.142054709841,1.0001217327334806,0.00013507863109182676
1355.1489992470658,1355.1489992470658,0.9999516917394325,0.00013505954477516816
1355.1559437843364,1355.1559437843364,0.9998781258201429,0.0001350598038457348
1355.162888321374,1355.162888321374,1.000284964431282,0.0001350874512286135
1355.1698328584125,1355.1698328584125,1.0000825549915402,0.00013507611667385637
1355.1767773954502,1355.1767773954502,1.0000673328180056,0.00013506998591576266
1355.1837219324418,1355.1837219324418,0.9999824711136782,0.00013506821083448826
1355.1906664692938,1355.1906664692938,0.9999242457512125,0.0001350635881917614
1355.197611006145,1355.197611006145,0.9998907600049973,0.00013506709028098
1355.2045555429504,1355.2045555429504,0.9999363755272279,0.00013507115985972846
1355.2115000796157,1355.2115000796157,0.9998145971465121,0.00013505274885111307
1355.2184446163278,1355.2184446163278,1.0001195669371996,0.00013507776966851002
1355.2253891529467,1355.2253891529467,1.0000116067878293,0.00013506825710769902
1355.2323336894726,1355.2323336894726,1.0001384801377546,0.00013508059944637854
1355.239278226045,1355.239278226045,1.0001025800971473,0.0001350809681501212
1355.2462227624305,1355.2462227624305,0.9998005299725401,0.0001350529904345209
1355.2531672988632,1355.2531672988632,1.0000045900505192,0.0001350599341480812
1355.2601118351565,1355.2601118351565,0.99985079202801,0.00013506244821531429
1355.2670563714491,1355.2670563714491,1.0002414361420104,0.00013507732947115717
1355.274000907649,1355.274000907649,0.9999131956497974,0.00013505843344841685
1355.2809454438489,1355.2809454438489,0.9999915372560217,0.0001350671530308696
1355.2878899799553,1355.2878899799553,1.00002487725097,0.00013506002147298737
1355.2948345160155,1355.2948345160155,1.0002073224712134,0.00013507852200511135
1355.3017790520291,1355.3017790520291,1.0000636456283796,0.00013507185395018453
1355.3087235879962,1355.3087235879962,1.0001908423192039,0.000135075298833765
1355.3156681238702,1355.3156681238702,0.9995806783507076,0.00013503848160046754
1355.3226126597438,1355.3226126597438,0.9998932781297567,0.0001350615656995992
1355.3295571954777,1355.3295571954777,0.9999558310790976,0.00013507053605491497
1355.3373350754703,1355.3373350754703,1.0000247382063618,0.0001350752332714945
1355.3448351739812,1355.3448351739812,1.0000381548487494,0.00013507893109604316
1355.3517797096222,1355.3517797096222,1.000275216326439,0.0001350923753080915
1355.3587242451704,1355.3587242451704,0.9999829675628409,0.00013508143925840843
1355.3656687806713,1355.3656687806713,1.0002305408679262,0.0001350946718669313
1355.3726133160794,1355.3726133160794,0.9999907708550662,0.00013507760587899042
1355.3795578514878,1355.3795578514878,0.999925991006025,0.00013507480998758086
1355.3865023868027,1355.3865023868027,1.0001157844985316,0.00013509264937158535
1355.3934469221178,1355.3934469221178,0.9998062285524514,0.00013506548811930016
1355.4015025829399,1355.4015025829399,0.9999313162670219,0.00013508113466692925
1355.4087248995033,1355.4087248995033,0.9999290336940773,0.00013508249889164007
1355.4156694345857,1355.4156694345857,1.0000240516944505,0.00013507969951162085
1355.422613969668,1355.422613969668,1.0001868897946327,0.0001350932506235257
1355.429558504657,1355.429558504657,0.9996546793151413,0.00013505793857143377
1355.436503039553,1355.436503039553,1.0000357071528174,0.00013507930951910276
1355.4434475744024,1355.4434475744024,1.0001061882828233,0.00013507962021247645
1355.4503921093446,1355.4503921093446,1.0000770000803534,0.0001350809141384085
1355.4573366440545,1355.4573366440545,1.0002097744396166,0.00013509106724507406
1355.4642811787642,1355.4642811787642,1.0000278546497454,0.00013507747314215883
1355.4712257134738,1355.4712257134738,0.9999283537469481,0.00013506996707363241
1355.4781702479972,1355.4781702479972,0.9999299012515319,0.00013506607507627968
1355.4851147826137,1355.4851147826137,0.9999986673952627,0.00013508001021668003
1355.4920593170907,1355.4920593170907,0.9998843522674526,0.00013506601957386966
1355.4990038515211,1355.4990038515211,1.0000177931675212,0.00013507576043978546
1355.505948385951,1355.505948385951,0.9999673167311572,0.00013507736840805143
1355.5128929202417,1355.5128929202417,1.0000157225878517,0.00013507777543248986
1355.5198374545791,1355.5198374545791,0.9998778729325272,0.0001350778115623147
1355.526781988776,1355.526781988776,1.0000909188132543,0.00013508460918734217
1355.5337265229734,1355.5337265229734,1.0002513721124726,0.00013509692868806015
1355.5406710570783,1355.5406710570783,1.0000565678685385,0.00013507627882908258
1355.5476155911358,1355.5476155911358,0.9999821112210145,0.00013507722842359178
1355.5545601251936,1355.5545601251936,0.999987320551418,0.0001350816357503469
1355.5615046591117,1355.5615046591117,0.9997610148495092,0.00013506860487800824
1355.5684491930297,1355.5684491930297,0.9998940898015242,0.00013508188778692335
1355.5753937268548,1355.5753937268548,0.9999432623057773,0.0001350760546960378
1355.5823382606795,1355.5823382606795,1.0000247395149662,0.00013509069270264265
1355.5892827944579,1355.5892827944579,1.0000524090824807,0.00013508560180934293
1355.5962273280968,1355.5962273280968,1.0002195623829695,0.00013510840966758398
1355.6031718617817,1355.6031718617817,1.0000075178320165,0.0001350853397289682
1355.6101163953274,1355.6101163953274,1.0000231718710677,0.00013509456919335165
1355.617060928873,1355.617060928873,1.0001646762870713,0.00013509100139058177
1355.6240054623715,1355.6240054623715,0.9997122341842253,0.00013507627469621172
1355.630949995731,1355.630949995731,0.999970592271343,0.00013508455541334154
1355.637894529137,1355.637894529137,1.000208100713629,0.0001351005091926022
1355.6448390624494,1355.6448390624494,0.9996997298206189,0.00013506682020819895
1355.6517835957156,1355.6517835957156,1.000082864901433,0.00013509157497616976
1355.658728128889,1355.658728128889,0.9998153524266552,0.00013507990446702298
1355.6656726620615,1355.6656726620615,1.0001842424076473,0.00013510648394903462
1355.6726171951882,1355.6726171951882,1.0002391953621528,0.00013511089406873463
1355.6795617282214,1355.6795617282214,0.9998200696373514,0.00013508013637970943
1355.6865062612549,1355.6865062612549,0.9999639342072368,0.00013508916752705865
1355.6934507941949,1355.6934507941949,0.999890349970641,0.00013507752828816841
1355.7003953270419,1355.7003953270419,1.0001713606687679,0.00013509736027258887
1355.707339859889,1355.707339859889,0.9999054373532752,0.00013508117421980962
1355.7142843926895,1355.7142843926895,1.0000289276108174,0.00013508156296612983
1355.7212289253966,1355.7212289253966,0.9999422879409572,0.0001350817319076212
1355.7281734580579,1355.7281734580579,1.0000949412218931,0.0001350907539382832
1355.7351179907182,1355.7351179907182,1.0001074767449991,0.00013508829647945785
1355.7420625232862,1355.7420625232862,0.9997718931203552,0.00013507033732880846
1355.7503959622368,1355.7503959622368,1.000101288546198,0.00013508438295787472
1355.757340494758,1355.757340494758,0.9998012770607451,0.00013507455850559467
1355.7642850272325,1355.7642850272325,1.000335596689744,0.00013509711099359657
1355.7712295594276,1355.7712295594276,0.9997878580483623,0.00013506545303201514
1355.778174091762,1355.778174091762,1.000134260145161,0.00013509082840569838
1355.7851186240039,1355.7851186240039,1.0000421065722214,0.00013507891505760403
1355.792063156199,1355.792063156199,0.9999353652397875,0.00013508257906383428
1355.7990076883477,1355.7990076883477,1.0000489361678435,0.00013509401390508037
1355.8059522204494,1355.8059522204494,0.9999838700221716,0.00013509190241674463
1355.8128967524117,1355.8128967524117,1.000192730188165,0.00013510531463397353
1355.819841284421,1355.819841284421,0.9998418818656013,0.00013507674846382478
1355.826785816383,1355.826785816383,0.9999376892198096,0.00013508956969244924
1355.8337303482053,1355.8337303482053,0.9999230068538296,0.00013508923656747955
1355.8406748800749,1355.8406748800749,0.9999073761768521,0.00013508772439306576
1355.847619411804,1355.847619411804,1.0000653835844437,0.00013509673337657493
1355.8545639435338,1355.8545639435338,0.9999041883592608,0.00013508635865564053
1355.8615084752166,1355.8615084752166,1.0002203921660069,0.00013510990317150767
1355.8684530068062,1355.8684530068062,0.9999930052246457,0.00013509665734363452
