time,time,flux,flux_err
1468.2801892360878,1468.2801892360878,0.998447906072818,0.018886450480478816
1468.2871339234914,1468.2871339234914,1.0132144040451503,0.01892968973066916
1468.2940786107088,1468.2940786107088,1.0109435062930057,0.01889345094497669
1468.3010232979263,1468.3010232979263,1.0076541507745334,0.018887930143672717
1468.3079679847713,1468.3079679847713,0.9964133647889643,0.018973684128431936
1468.3149126717094,1468.3149126717094,0.9960403821733328,0.018874980587142237
1468.3218573584606,1468.3218573584606,0.993013796641079,0.018902647189838702
1468.3288020451196,1468.3288020451196,0.9938260508989083,0.01887550822789151
1468.3357467314986,1468.3357467314986,0.9974318225552924,0.018871981227217907
1468.3426914179713,1468.3426914179713,1.004068073511966,0.018889391960441763
1468.3496361042573,1468.3496361042573,0.9998431452528618,0.018884242719855872
1468.3565807904502,1468.3565807904502,0.995227937975599,0.01889633557842042
1468.3635254764572,1468.3635254764572,0.9947559729273905,0.018952326482225938
1468.3704701622776,1468.3704701622776,0.9919282307323478,0.018888196006027168
1468.3774148480047,1468.3774148480047,1.0002985143019405,0.018906651021475606
1468.3921375814593,1468.3921375814593,1.0028224863349862,0.0190811699824436
1468.4010267787696,1468.4010267787696,1.0041356509011004,0.01907204349709802
1468.4079714639386,1468.4079714639386,0.9999274289727454,0.01904654137669873
1468.4149161492,1468.4149161492,0.9980687414464942,0.019047646777761794
1468.4218608340889,1468.4218608340889,1.0021025548222011,0.01901417615906832
1468.4288055189784,1468.4288055189784,1.0013931143539132,0.018996996717034004
1468.4357502036812,1468.4357502036812,0.9877852562903477,0.0189483324294454
1468.4426948882908,1468.4426948882908,1.0026864530948718,0.01897764496660816
1468.4496395728072,1468.4496395728072,1.0041854735408038,0.018930846430378557
1468.4565842572308,1468.4565842572308,1.0052530613751163,0.018925160173215317
1468.4635289413748,1468.4635289413748,1.0151352349291218,0.01895000087589476
1468.4704736255192,1468.4704736255192,0.9964597477928802,0.01892180099639489
1468.4774183095703,1468.4774183095703,0.9883921171485908,0.01888245994651517
1468.484362993341,1468.484362993341,0.9892808817678805,0.018844509941290874
1468.491307677206,1468.491307677206,1.0029380560609369,0.01886597534553746
1468.4982523607919,1468.4982523607919,0.9997936190749653,0.01886012548621984
1468.505197044377,1468.505197044377,1.0079032914249488,0.018930025921469168
1468.5121417276828,1468.5121417276828,0.9952098613415462,0.01893938957142078
1468.5190864109882,1468.5190864109882,1.0078241850490328,0.01896618032977195
1468.526031094108,1468.526031094108,1.0025554851524372,0.018989426784757395
1468.5329757771347,1468.5329757771347,1.001719808935468,0.0189893659059865
1468.5399204599748,1468.5399204599748,0.9941263249578265,0.01897911212945994
1468.546865143001,1468.546865143001,0.9975570503969358,0.018996099296163648
1468.5538098255618,1468.5538098255618,1.0044250138668673,0.019024669952225452
1468.5607545081232,1468.5607545081232,0.9916072149709505,0.019051728260626573
1468.567699190498,1468.567699190498,1.0076184984099676,0.019041005674502235
1468.5746438727788,1468.5746438727788,0.9947769471442651,0.019044679370527274
1468.5815885549669,1468.5815885549669,1.0014727334542761,0.01900466988387229
1468.5885332370622,1468.5885332370622,0.9910990174291727,0.01902259550874218
1468.5954779188778,1468.5954779188778,1.0048716216003621,0.019010819896967367
1468.602422600694,1468.602422600694,0.9948229471804702,0.018974022802413452
1468.6093672824163,1468.6093672824163,1.002193325660158,0.01894253884138021
1468.6163119640457,1468.6163119640457,1.0044926377723675,0.018943990630673115
1468.6232566454892,1468.6232566454892,1.0109282171790128,0.018889379174864197
1468.6302013267464,1468.6302013267464,1.0008617893611829,0.018921205718954205
1468.6371460080034,1468.6371460080034,0.9969283871491743,0.018931335512234963
1468.6440906890734,1468.6440906890734,1.0036952566461015,0.01889478130055195
1468.6510353700512,1468.6510353700512,0.9842368998120715,0.018920814307718872
1468.6579800508425,1468.6579800508425,1.009839102882389,0.01898645617299319
1468.6649247315409,1468.6649247315409,0.9978450187856183,0.018977683444709893
1468.6718694122392,1468.6718694122392,1.0028160905585888,0.018976030103836417
1468.6788140925644,1468.6788140925644,0.9942873241177687,0.019032383438884738
1468.685758772797,1468.685758772797,0.9920586778916316,0.019011429309435217
1468.6927034530297,1468.6927034530297,1.0121026231627983,0.019006271308819312
1468.6996481332624,1468.6996481332624,0.9929418585758676,0.01900360649167513
1468.7065928134016,1468.7065928134016,0.9981538936921567,0.019017018943133616
1468.7135374931684,1468.7135374931684,0.9967753924162495,0.018970883510337804
1468.7204821729351,1468.7204821729351,1.0100121617097513,0.01896578528694601
1468.727426852609,1468.727426852609,1.0117994519783953,0.019043908977926995
1468.7343715320967,1468.7343715320967,0.983068293564736,0.019002394340171085
1468.7413162114906,1468.7413162114906,1.0031661292299225,0.018993967981688262
1468.748260890699,1468.748260890699,1.0057464838180352,0.018971523881425225
1468.755205569907,1468.755205569907,1.0038114510272436,0.0189995065723907
1468.7621502489287,1468.7621502489287,0.9986312691125434,0.018991924251746572
1468.7690949277644,1468.7690949277644,1.0007256075058069,0.01899669306970706
1468.7760396065066,1468.7760396065066,0.9864020129013464,0.01897419452484373
1468.7829842851556,1468.7829842851556,1.005744085112793,0.01898662847555147
1468.789928963805,1468.789928963805,0.984910018244731,0.01893925239623665
1468.796873642175,1468.796873642175,1.001190597954103,0.01892612946279267
1468.8038183204521,1468.8038183204521,1.0194908680490609,0.018927502432008043
1468.8107629987283,1468.8107629987283,0.981521018059494,0.01892955110608197
1468.8177076767256,1468.8177076767256,0.9997046743530017,0.018931271218847703
1468.8246523546302,1468.8246523546302,1.0013977733142458,0.018947637808145547
1468.8315970325343,1468.8315970325343,0.9960041036038062,0.018925751532637973
1468.8385417101595,1468.8385417101595,1.0177794662095003,0.018923331425710253
1468.8454863877837,1468.8454863877837,0.9896102333278085,0.018964942319115517
1468.8524310652222,1468.8524310652222,1.0123608876485897,0.018994630743096125
1468.859375742568,1468.859375742568,0.9904990825562363,0.01897990261327844
1468.866320419727,1468.866320419727,0.9967422918585143,0.019009323431536017
1468.8732650968864,1468.8732650968864,1.0039741757014091,0.01905617786903199
1468.8802097737657,1468.8802097737657,0.9964223846029843,0.019091163469742826
1468.8871544507388,1468.8871544507388,0.9937422442002475,0.01910785961678698
1468.8940991274326,1468.8940991274326,0.9975687060812819,0.019056765499987725
1468.901043804033,1468.901043804033,1.0000795552295947,0.01909041495198105
1468.9079884804466,1468.9079884804466,1.0054334843679116,0.019077138325825617
1468.9149331568606,1468.9149331568606,1.0012367249564076,0.01908584076822998
1468.9218778330885,1468.9218778330885,0.9968217441790879,0.01909454037983251
1468.9288225092234,1468.9288225092234,0.9950260002568161,0.019081015097879676
1468.9357671852651,1468.9357671852651,0.9950111990749182,0.01898916638637211
1468.9427118612136,1468.9427118612136,1.016047134582298,0.018956701917395586
1468.9496565368822,1468.9496565368822,0.9999155484319415,0.018947140777625642
1468.9566012124583,1468.9566012124583,1.002316721164148,0.018965497486638873
1468.9646570361263,1468.9646570361263,0.9924209903236327,0.018944518686836182
1468.9718794987252,1468.9718794987252,1.0041588382123052,0.01894790114124168
1468.9788241738354,1468.9788241738354,0.9982555583599095,0.018979912874397865
1468.9857688490388,1468.9857688490388,1.0100694210438184,0.018982371434295122
1468.992713523963,1468.992713523963,0.9922504442054993,0.018951079010305853
1468.9996581989801,1468.9996581989801,0.9984838483924113,0.0189456533655219
1469.0066028737178,1469.0066028737178,0.9982965027548101,0.01895278147245058
1469.0135475483623,1469.0135475483623,0.9968389757744734,0.01898417869808685
1469.0204922230068,1469.0204922230068,1.0033661096741329,0.01899644969447142
1469.0274368973721,1469.0274368973721,1.0008071103456584,0.018969815138287143
1469.0343815717374,1469.0343815717374,1.0002998164425425,0.01894798612784952
1469.0413262459163,1469.0413262459163,0.9867333266591836,0.018900039864879852
1469.0482709200019,1469.0482709200019,1.007827499839997,0.01896811202124665
1469.0552155939015,1469.0552155939015,1.008021645573132,0.018949052629216603
1469.0621602678007,1469.0621602678007,1.0006665416929752,0.0189489967162316
1469.0691049414213,1469.0691049414213,0.9985868068039713,0.01892962956179179
1469.0760496151347,1469.0760496151347,0.997557954674755,0.01894715082390999
1469.0829942883822,1469.0829942883822,1.0030466252572297,0.018931990766395998
1469.0899389620022,1469.0899389620022,0.9960152296600848,0.018927524146560085
1469.0968836351567,1469.0968836351567,0.9971055234404634,0.01896407088768081
1469.1038283081248,1469.1038283081248,1.0082396039265813,0.019010285205747796
1469.1107729812795,1469.1107729812795,0.9926856117069107,0.01900309367403266
1469.1177176541541,1469.1177176541541,1.0047400190571323,0.019021452544420614
1469.1246623268432,1469.1246623268432,0.9971339168854808,0.019035548285940132
1469.1316069995319,1469.1316069995319,1.0018261571082225,0.019047472698861458
1469.1385516720347,1469.1385516720347,1.003971962151345,0.019114436936950294
1469.1454963444444,1469.1454963444444,0.9994959662692636,0.01908780677664637
1469.1524410166671,1469.1524410166671,0.997520564220741,0.019092704392811584
1469.1593856888903,1469.1593856888903,1.0004679629418265,0.019025393839186874
1469.166330360927,1469.166330360927,1.014618191532574,0.019011242684220938
1469.1732750327776,1469.1732750327776,0.9957162433059411,0.019020543631446122
1469.1802197046286,1469.1802197046286,0.9929618235702874,0.018950819337464432
1469.187164376293,1469.187164376293,0.9895317859972032,0.01895968961905608
1469.1941090478638,1469.1941090478638,1.0096980107903721,0.01894656236104498
1469.201053719342,1469.201053719342,1.0037220891660334,0.018915115819769884
1469.2079983906337,1469.2079983906337,1.0064764008026192,0.01888612159426681
1469.214943061926,1469.214943061926,1.0065171074542536,0.01888004325028026
1469.2218877328453,1469.2218877328453,0.9922153113668817,0.018848064159082557
1469.2288324037643,1469.2288324037643,1.005862401726704,0.018878273952579086
1469.2357770746835,1469.2357770746835,0.9993472872266989,0.018865713636148036
1469.242721745603,1469.242721745603,1.001784732763165,0.01892097265999606
1469.2496664160567,1469.2496664160567,0.9913327411714258,0.018894225310894092
1469.2566110866032,1469.2566110866032,1.0043879967249567,0.01891482769735054
1469.2635557570568,1469.2635557570568,1.006093909906631,0.018992903396674123
1469.2705004272311,1469.2705004272311,0.9896626277848639,0.018989588058896417
1469.2774450974055,1469.2774450974055,1.0020635537950369,0.01900233119272531
1469.2843897673933,1469.2843897673933,0.9952380840299545,0.01897436273838531
1469.2913344372885,1469.2913344372885,0.9987905032973815,0.019016310086354495
1469.2982791069967,1469.2982791069967,1.0034670115595437,0.019011608190844687
1469.3052237767984,1469.3052237767984,1.0060976550896283,0.01900260587580936
1469.3121684462278,1469.3121684462278,0.9986430037558748,0.019035965287843563
1469.31911311575,1469.31911311575,0.9920361253526491,0.01899012274921696
1469.3260577849933,1469.3260577849933,1.0117602265132724,0.01901410623934397
1469.333002454236,1469.333002454236,0.987552405273292,0.018988605705222
1469.3399471232924,1469.3399471232924,1.0105203855997604,0.01900127399870128
1469.3468917921632,1469.3468917921632,0.9930256507878885,0.019017214788071238
1469.3538364612198,1469.3538364612198,1.0042942252896028,0.01899285423238877
1469.3607811298104,1469.3607811298104,1.003828706786619,0.01901802957030809
1469.3677257984018,1469.3677257984018,0.9956443661256366,0.01903022217519931
1469.3746704669923,1469.3746704669923,0.9974133358234241,0.01897530990380152
1469.381615135118,1469.381615135118,0.994624015795508,0.018969519877567276
1469.3885598034296,1469.3885598034296,1.003043450181678,0.018924384178821523
1469.395504471555,1469.395504471555,0.9984790458848598,0.01892772940738121
1469.4024491395874,1469.4024491395874,1.0034910174631293,0.01892051727641445
1469.4093938074327,1469.4093938074327,0.9979208413435178,0.01891072832219433
1469.4163384752787,1469.4163384752787,1.0021127201748392,0.01889507888692085
1469.4232831428453,1469.4232831428453,1.0075356232943364,0.018889664926816156
1469.430227810505,1469.430227810505,0.9987599191167764,0.018879791072711316
1469.4371724778857,1469.4371724778857,0.9960646682973303,0.018863686884651596
1469.4441171450792,1469.4441171450792,0.9983716508661787,0.018883955539961618
1469.4510618123663,1469.4510618123663,0.9949534193453335,0.018882082527521618
1469.4580064793743,1469.4580064793743,0.998625510329731,0.018917840866836757
1469.464951146289,1469.464951146289,0.9994582294683004,0.018888238903428018
1469.4718958131105,1469.4718958131105,1.0054144546263035,0.01894272445443991
1469.4788404798387,1469.4788404798387,1.0116556696202108,0.01893257045098488
1469.4857851462875,1469.4857851462875,0.9972264396783626,0.018915879515976352
1469.492729813016,1469.492729813016,1.0008201304615507,0.01894817618558167
1469.4996744792786,1469.4996744792786,0.9922035915875572,0.019024878310505575
1469.5066191455412,1469.5066191455412,0.9899444658572436,0.018968945674135734
1469.5135638116183,1469.5135638116183,1.007753277357597,0.019045619546576298
1469.520508477601,1469.520508477601,1.0023875590155709,0.01906104071309947
1469.5274531433981,1469.5274531433981,1.006491042839746,0.018991797223895164
1469.5343978091953,1469.5343978091953,0.9990114002502555,0.019013317063601938
1469.5413424748062,1469.5413424748062,0.9943029798035937,0.01902241520632104
1469.5482871403237,1469.5482871403237,1.0056252877631133,0.019011272594784048
1469.5552318057476,1469.5552318057476,0.9925775170272548,0.018970726369555692
1469.562176471079,1469.562176471079,1.005037657052599,0.018949975605931466
1469.5691211362243,1469.5691211362243,0.9916377344769721,0.01891750940867351
1469.5760658012764,1469.5760658012764,1.0013127417152206,0.01891798869520774
1469.5830104662355,1469.5830104662355,0.9914989781680472,0.018918298426304225
1469.589955131101,1469.589955131101,1.0097871708463977,0.018937287585078434
1469.5968997956872,1469.5968997956872,1.0091987368943365,0.018976454344800126
1469.6038444603669,1469.6038444603669,0.9951862750419105,0.018907853011675947
1469.6107891247668,1469.6107891247668,1.0110327067814366,0.018917180023306217
1469.6177337890736,1469.6177337890736,0.9932371103436136,0.018925519396805136
1469.6246784533807,1469.6246784533807,0.9972821903431794,0.018909487025678802
1469.6316231173148,1469.6316231173148,1.0012405565605462,0.01891194430180627
1469.638567781249,1469.638567781249,0.9822735711747599,0.018990113893443884
1469.6455124451838,1469.6455124451838,0.9975422341691328,0.018933504562798773
1469.6524571091181,1469.6524571091181,1.0098220864620608,0.018969427781287494
1469.6594017726802,1469.6594017726802,1.0008062738295256,0.018980405129378798
1469.666346436242,1469.666346436242,1.0149067131208134,0.018962664172159114
1469.6732910996172,1469.6732910996172,0.999024073907034,0.019005171483334787
1469.6802357628999,1469.6802357628999,0.9974288451070757,0.01895139593308657
1469.6871804260893,1469.6871804260893,0.9988369208646937,0.01898553046383867
1469.6941250890925,1469.6941250890925,0.9985982061892944,0.018995423857362227
1469.7010697520957,1469.7010697520957,0.9999229838281186,0.018966314164219907
1469.7080144149118,1469.7080144149118,1.0008247647829458,0.01898183499667932
1469.7149590776357,1469.7149590776357,0.9858288528051725,0.01901600559773096
1469.7219037401733,1469.7219037401733,0.9993678185843695,0.019038067232644073
1469.7288484026176,1469.7288484026176,1.0047717371215328,0.019033411283233166
1469.7357930649687,1469.7357930649687,1.0097948864698931,0.01904686856051916
1469.7427377271335,1469.7427377271335,1.0017761884545462,0.018986889891972704
1469.7496823892982,1469.7496823892982,0.9955424413059095,0.019028323256600147
1469.7566270513703,1469.7566270513703,0.9968095077362562,0.019030134630640273
1469.7635717130693,1469.7635717130693,1.0101364010456781,0.01905570711554908
1469.7705163750481,1469.7705163750481,1.0001110508677564,0.01906026104180788
1469.7774610366541,1469.7774610366541,0.9939963928093898,0.018999446682942463
1469.7844056981667,1469.7844056981667,0.9898681667103093,0.019014962419984533
1469.7913503594004,1469.7913503594004,1.0071485003318592,0.018999696017575653
1469.798295020727,1469.798295020727,1.0004260453757445,0.019012044182820785
1469.8052396819608,1469.8052396819608,0.9940151616632198,0.018977097298083632
1469.8121843430083,1469.8121843430083,0.9956617131048858,0.01901552233705588
1469.819129003962,1469.819129003962,1.007359826100659,0.018969603127889877
1469.82607366473,1469.82607366473,0.9911033309459615,0.0189577131954627
1469.8330183254047,1469.8330183254047,1.0138234707817753,0.01895510556549269
1469.8399629860794,1469.8399629860794,0.9999081867651339,0.018953164216190463
1469.8469076465685,1469.8469076465685,1.004566586935381,0.018906160559775013
1469.8538523067773,1469.8538523067773,0.9982471673984168,0.0189152447802617
1469.8607969670793,1469.8607969670793,0.9987580589743942,0.018938631092166695
1469.8677416271019,1469.8677416271019,1.004860759576448,0.01894814597984574
1469.874686287218,1469.874686287218,0.9896957470485332,0.01890403257266086
1469.8816309470549,1469.8816309470549,1.0027653343906815,0.01895446028434124
1469.8885756067982,1469.8885756067982,0.9972280462754386,0.018989973026446137
1469.8955202664486,1469.8955202664486,1.004363698150464,0.019063224746753222
1469.9024649260057,1469.9024649260057,1.0013435853138242,0.019034045925221767
1469.9094095852834,1469.9094095852834,0.9873691096554221,0.019045225313246983
1469.9163542445615,1469.9163542445615,0.999932909831353,0.019078208043897687
1469.9232989038387,1469.9232989038387,1.005980229713932,0.019039515586716804
1469.9302435629304,1469.9302435629304,1.0058829243653629,0.019028562366450556
1469.937188221929,1469.937188221929,0.9848538575420077,0.01903584556130092
1469.9441328806477,1469.9441328806477,0.9866202773509937,0.01898939674707033
1469.9510775393667,1469.9510775393667,1.0054389665008336,0.019002960040178582
1469.958022198086,1469.958022198086,1.010517788874336,0.018977706889522696
1469.9649668564325,1469.9649668564325,1.0046250649628554,0.018968371728238464
1469.9719115148723,1469.9719115148723,0.9960401934887507,0.0189649895342315
1469.978856173032,1469.978856173032,1.0001966770929291,0.01897677919806987
1469.985800831192,1469.985800831192,0.9971120545658003,0.01890736220326574
1469.992745489259,1469.992745489259,0.9881357206728507,0.018895320347568193
1469.999690147047,1469.999690147047,1.016806853201582,0.018908863478772586
1470.0066348048344,1470.0066348048344,1.0042708356895753,0.018903603650342597
1470.0135794625294,1470.0135794625294,1.0016108016310112,0.01894312365199053
1470.0205241200374,1470.0205241200374,1.0008284878334153,0.018998980562769798
1470.0274687774522,1470.0274687774522,1.0004169917693424,0.018944883596092456
1470.0344134347745,1470.0344134347745,0.9872483298666885,0.019007323334123104
1470.0413580920035,1470.0413580920035,0.9965988046543803,0.01898893738166782
1470.048302748953,1470.048302748953,1.0002054377118852,0.0190111587786216
1470.0552474059025,1470.0552474059025,1.0061423411905652,0.019007636285161795
1470.0621920628516,1470.0621920628516,0.9974986763984584,0.019019122397769594
1470.0691367195218,1470.0691367195218,0.994225026008252,0.01899933221527602
1470.076081376192,1470.076081376192,1.0053717605112733,0.01896871153232625
1470.0830260325824,1470.0830260325824,1.0051407153337888,0.0190040438769771
