time,time,flux,flux_err
1325.3023429916923,1325.3023429916923,1.0000623812925349,0.00022910802723746806
1325.3106764473835,1325.3106764473835,0.9998116431551209,0.00022917679980842673
1325.3190099030367,1325.3190099030367,0.999935068040302,0.00022925984186352604
1325.3273433586503,1325.3273433586503,0.9999035422217307,0.00022932922310399292
1325.3349823595786,1325.3349823595786,0.9998452806758863,0.0002093991442814393
1325.3419269059068,1325.3419269059068,1.000313390341856,0.0002095038861842908
1325.348871452235,1325.348871452235,0.9999260581213821,0.00020953728279549198
1325.35581599847,1325.35581599847,1.00008473034018,0.00020959100375476242
1325.3627605447516,1325.3627605447516,1.0000406892061586,0.00020963967302763679
1325.369705090987,1325.369705090987,0.9997705522071924,0.0002096490897400596
1325.3766496372214,1325.3766496372214,0.9999367230188521,0.00020968816915675732
1325.3835941834102,1325.3835941834102,0.9999978156492186,0.00020972601650216983
1325.3905387295986,1325.3905387295986,1.0000930386545792,0.000209781599144697
1325.3974832757401,1325.3974832757401,0.9999020483684824,0.0002097881583447196
1325.4044278219753,1325.4044278219753,1.0003732688149323,0.00020982690728536176
1325.4113723680705,1325.4113723680705,0.9999205118676107,0.00020980362926283433
1325.4183169142125,1325.4183169142125,1.0000527969180268,0.00020983349877362628
1325.4252614603079,1325.4252614603079,0.9999405036334552,0.0002098348265432587
1325.4322060064496,1325.4322060064496,0.9999060126529871,0.000209861100680886
1325.439150552545,1325.439150552545,0.9996978336232349,0.00020985693344457418
1325.4460950985472,1325.4460950985472,0.9999825815299909,0.00020990239247542877
1325.4530396446423,1325.4530396446423,1.0002986535728886,0.00020993498137239237
1325.459984190691,1325.459984190691,0.999862228090586,0.00020993303566957966
1325.4669287366933,1325.4669287366933,0.9998797662465776,0.00020993081221112997
1325.473873282742,1325.473873282742,0.999953490553675,0.0002099670584632961
1325.4808178287444,1325.4808178287444,1.000315920945208,0.0002099974789088146
1325.4877623746997,1325.4877623746997,1.0000280874864216,0.00020999448509907963
1325.4947069207021,1325.4947069207021,1.0003483186254187,0.000210073330782578
1325.5016514666577,1325.5016514666577,0.9997348037210937,0.00021002423919392528
1325.5085960126132,1325.5085960126132,0.9999077074094409,0.00021007976228662448
1325.5155405585222,1325.5155405585222,0.9998192525745419,0.00021007946272243774
1325.5224851044316,1325.5224851044316,0.9998718949106893,0.00021011691947968422
1325.5294296503866,1325.5294296503866,0.9999731183331173,0.00021014342685438987
1325.536374196296,1325.536374196296,1.0002403522497862,0.00021022982441569943
1325.5433187421581,1325.5433187421581,1.0000258956570451,0.00021023490415888048
1325.5502632880675,1325.5502632880675,1.0001164369226883,0.00021025712239928812
1325.5572078339296,1325.5572078339296,1.0000608127365405,0.00021028056105620632
1325.564152379746,1325.564152379746,0.9999954849047658,0.0002102977987501781
1325.571096925655,1325.571096925655,0.9998351133523439,0.0002103083821272574
1325.5780414714707,1325.5780414714707,0.9998576933198781,0.00021031240862593015
1325.584986017287,1325.584986017287,0.9997366851555359,0.00021034984403996555
1325.5919305630555,1325.5919305630555,0.9999720358764547,0.00021037001120221053
1325.598875108872,1325.598875108872,1.0003093835173753,0.00021044269236255146
1325.6058196546412,1325.6058196546412,1.0001823060860948,0.00021041780184676362
1325.6127642004108,1325.6127642004108,1.0004475658595908,0.00021046077002202307
1325.61970874618,1325.61970874618,0.9999525867543744,0.00021040318352820458
1325.6266532919494,1325.6266532919494,0.9998964153126794,0.0002104003546363719
1325.6335978376724,1325.6335978376724,0.9997663320448529,0.00021037770281916168
1325.640542383395,1325.640542383395,0.9997581304838692,0.0002103766230657093
1325.647486929071,1325.647486929071,1.0000032311050582,0.00021040384513454848
1325.6544314748403,1325.6544314748403,0.9996240217285342,0.0002103578883691299
1325.6613760205166,1325.6613760205166,1.0000738463842853,0.00021038675898133
1325.6683205661461,1325.6683205661461,1.0002633165885357,0.0002104021703653786
1325.6752651119155,1325.6752651119155,1.0002371543184136,0.0002103901821346377
1325.6822096574522,1325.6822096574522,1.0000674727982013,0.00021033796985700138
1325.6891542032215,1325.6891542032215,0.9998557280382714,0.00021033817073308342
1325.6960987487578,1325.6960987487578,1.000107290548621,0.00021035643434390286
1325.7030432944346,1325.7030432944346,0.9996603649883505,0.0002103361647476543
1325.709987840064,1325.709987840064,0.9998828005253777,0.0002103409583452121
1325.7169323856003,1325.7169323856003,1.0001252532384315,0.00021034056456747957
1325.7238769311366,1325.7238769311366,0.9998978908991834,0.00021034550234089893
1325.7308214768595,1325.7308214768595,1.0000100117545987,0.00021036459203382956
1325.7377660224427,1325.7377660224427,0.9997779235003383,0.00021035370793488626
1325.7447105679792,1325.7447105679792,0.9998526534405136,0.00021038000498308898
1325.7516551135154,1325.7516551135154,0.9999420674559888,0.0002104101945171648
1325.7585996590524,1325.7585996590524,1.0002263581532802,0.00021042957695686115
1325.7655442045889,1325.7655442045889,1.0001615035054818,0.0002104533219914014
1325.7724887501254,1325.7724887501254,1.0002167379347533,0.00021047128278177412
1325.7794332954288,1325.7794332954288,0.99998820464353,0.00021047815350579588
1325.7863778409653,1325.7863778409653,1.0002167674120794,0.0002105132186328355
1325.793322386502,1325.793322386502,0.9995748515212854,0.00021047633996351686
1325.8002669319917,1325.8002669319917,0.9997817485598344,0.000210502751418478
1325.8072114773427,1325.8072114773427,1.0000482574819127,0.00021053661985995182
1325.8141560228787,1325.8141560228787,1.0002495762105554,0.00021058526958182578
1325.8211005682292,1325.8211005682292,0.9999693605369379,0.00021055649912300688
1325.828045113719,1325.828045113719,0.999734614124576,0.00021054705547248273
1325.8349896590228,1325.8349896590228,1.0000368877845411,0.00021058567137881837
1325.841934204466,1325.841934204466,1.0001018067681922,0.00021058521655004813
1325.848878749863,1325.848878749863,1.0003326613236987,0.00021058576011215264
1325.8558232951661,1325.8558232951661,0.9996269943147429,0.00021051047316376567
1325.8627678405167,1325.8627678405167,0.999543671377811,0.0002104812662659914
1325.869712385867,1325.869712385867,1.0001205415710421,0.00021051600573470595
1325.8766569312174,1325.8766569312174,1.000200404410745,0.0002104974193290983
1325.8836014765209,1325.8836014765209,0.9998122671611774,0.00021044528233271184
1325.8905460218248,1325.8905460218248,1.0001376856395354,0.00021045407703196642
1325.8974905671282,1325.8974905671282,0.9998057248653078,0.00021039543224654587
1325.9044351123855,1325.9044351123855,1.0002901311992987,0.0002103971451713757
1325.9113796576426,1325.9113796576426,1.0001582303919703,0.00021038080372001014
1325.918324202946,1325.918324202946,0.9997759778700033,0.00021032404947151604
1325.92526874811,1325.92526874811,0.9999271403070595,0.00021032804918062284
1325.9322132933673,1325.9322132933673,0.9999925480131694,0.0002103335502769249
1325.9391578385778,1325.9391578385778,0.9997617639554537,0.00021029558848702923
1325.9461023837882,1325.9461023837882,1.0003343169756616,0.00021035229332742154
1325.9530469289525,1325.9530469289525,1.000110779541064,0.00021031231387438234
1325.9599914741164,1325.9599914741164,0.9996929879077175,0.00021026342924338045
1325.968047146473,1325.968047146473,1.000182358306024,0.00021033030028015732
1325.975269473412,1325.975269473412,0.9997698139220583,0.00021025937760687775
1325.9822140185759,1325.9822140185759,1.0002644076718294,0.000210304952144299
1325.9891585636935,1325.9891585636935,1.000086583610495,0.00021026439715441316
1325.9961031088108,1325.9961031088108,0.9996501609305393,0.00021025050517642658
1326.0030476538818,1326.0030476538818,1.0000509398867543,0.00021027610028687065
1326.0099921989524,1326.0099921989524,0.9996537972709998,0.00021026295088927985
1326.0169367439769,1326.0169367439769,1.0003886941746534,0.00021034389074350816
1326.023881289048,1326.023881289048,1.000109484152392,0.00021033612829979374
1326.0308258340722,1326.0308258340722,1.0000928041913917,0.0002103455373109733
1326.0377703790964,1326.0377703790964,1.0001115920365593,0.0002103583683110313
1326.0447149240738,1326.0447149240738,0.9999280556618032,0.00021032998992017137
1326.0516594690985,1326.0516594690985,0.9998492047894315,0.00021030495220189055
1326.0586040140756,1326.0586040140756,0.9998625479013356,0.00021032161167109688
1326.0655485590073,1326.0655485590073,1.0000898053180063,0.00021035258831223264
1326.0724931039847,1326.0724931039847,1.00011469766204,0.00021036197079649547
1326.0794376488225,1326.0794376488225,0.9998586789604758,0.00021034057504722104
1326.0863821937542,1326.0863821937542,1.0002140018642653,0.00021037938730572502
1326.0933267386852,1326.0933267386852,1.0000668731646019,0.00021036533833668458
1326.10027128357,1326.10027128357,0.9994392920898545,0.0002103022138470306
1326.1072158284082,1326.1072158284082,1.000248157961327,0.00021036437777908817
1326.1141603732458,1326.1141603732458,1.000104202914785,0.0002103560050820806
1326.121104918084,1326.121104918084,0.9998911517292951,0.00021033894238406463
1326.128049462875,1326.128049462875,0.999832385191354,0.00021030317811114753
1326.1349940077137,1326.1349940077137,0.9999891512186713,0.00021032188302891127
1326.1419385525046,1326.1419385525046,0.9999128845022309,0.00021032642493812092
1326.1488830972498,1326.1488830972498,1.0004473596846768,0.00021036926827101545
1326.1558276419946,1326.1558276419946,1.0003109339934428,0.0002103482490886114
1326.162772186786,1326.162772186786,0.9998546981839331,0.0002103225966044563
1326.1697167314846,1326.1697167314846,1.0002856664275441,0.00021034881274182722
1326.176661276229,1326.176661276229,0.9995292769685887,0.0002102573645852052
1326.1836058208812,1326.1836058208812,0.9997887619463599,0.000210299831093891
1326.190550365533,1326.190550365533,0.9999359711285317,0.00021030089538541532
1326.197494910231,1326.197494910231,0.9998900652426265,0.00021027740329976913
1326.2044394548363,1326.2044394548363,0.9998096061297959,0.00021028878583230606
1326.2113839994884,1326.2113839994884,0.9999989671421318,0.00021029462862464282
1326.2183285440933,1326.2183285440933,1.0001235024242843,0.00021030371098537475
1326.225273088652,1326.225273088652,1.0000877751945065,0.00021029747060680274
1326.2322176332104,1326.2322176332104,1.0002947117741923,0.0002102950002059454
1326.2391621778156,1326.2391621778156,1.0000242898332847,0.0002102686896172488
1326.246106722374,1326.246106722374,0.999791069489822,0.00021025007824997414
1326.2530512668404,1326.2530512668404,0.9998222538329482,0.00021024592453962342
1326.2599958113985,1326.2599958113985,0.9999474246852207,0.0002102460647708164
1326.2669403558175,1326.2669403558175,0.9996117301544309,0.00021022255387142356
1326.2738849003763,1326.2738849003763,1.0000009160583283,0.00021023198258945903
1326.2808294447484,1326.2808294447484,1.0003547867864242,0.00021027874263648255
1326.287773989121,1326.287773989121,1.0001615380457303,0.00021025567635067069
1326.2947185336793,1326.2947185336793,1.0001097084863333,0.00021023455971075252
1326.3016630780985,1326.3016630780985,1.0002476981198063,0.00021025093926210807
1326.3086076224706,1326.3086076224706,0.9997867067478499,0.00021020430862393145
1326.3155521668434,1326.3155521668434,0.9997284345316395,0.00021018783493149184
1326.3224967111692,1326.3224967111692,0.9998151911781274,0.00021021869547928275
1326.329441255355,1326.329441255355,1.0003699562611332,0.00021027484146467944
1326.3363857997274,1326.3363857997274,0.9995716979883236,0.0002102047844672997
1326.3433303440997,1326.3433303440997,1.0001690127304346,0.00021026521596456912
1326.3513860153391,1326.3513860153391,1.0002727598581047,0.000210269601162728
1326.3599972502675,1326.3599972502675,0.9998895710161602,0.0002102482041705623
1326.3669417945002,1326.3669417945002,1.0001512030154651,0.0002102890411790119
1326.3738863386395,1326.3738863386395,0.9997380875376057,0.000210250090955313
1326.3808308828725,1326.3808308828725,1.0000445017657322,0.00021029269944996816
1326.3877754270584,1326.3877754270584,1.000127046185676,0.00021028929357653714
1326.394719971198,1326.394719971198,1.0002319096708496,0.00021032049308515716
1326.4016645153376,1326.4016645153376,0.9998794732649106,0.00021029709815902265
1326.4086090594305,1326.4086090594305,0.9998785815968528,0.0002102870132066391
1326.415553603524,1326.415553603524,0.99967483609033,0.00021027591063354768
1326.42249814757,1326.42249814757,0.999929065434535,0.00021031977606052716
1326.4294426916629,1326.4294426916629,0.9999636997198552,0.00021031586664247513
1326.4363872356626,1326.4363872356626,1.0002020070432849,0.00021036510284439132
1326.4433317797093,1326.4433317797093,1.0000313777990901,0.00021032929641690506
1326.450276323709,1326.450276323709,1.0001597406234082,0.00021035117431517374
1326.4572208677087,1326.4572208677087,1.0000939958356776,0.00021033447146438273
1326.4641654116156,1326.4641654116156,1.000039240288341,0.00021034388028784039
1326.4711099555686,1326.4711099555686,0.9997758422877249,0.0002103166546324429
1326.4780544994753,1326.4780544994753,0.9998054483482738,0.0002103295471290537
1326.4849990433825,1326.4849990433825,1.0000668356906837,0.00021035203144920822
1326.4919435871957,1326.4919435871957,1.0003568102733513,0.00021038665209283553
1326.4988881311026,1326.4988881311026,0.9999291665909495,0.00021037943880697184
1326.5058326749158,1326.5058326749158,1.0000367292311478,0.00021036338762392192
1326.5127772186831,1326.5127772186831,0.9998507016622629,0.00021036172982737936
1326.5197217624968,1326.5197217624968,0.9999903199540459,0.00021036776670241698
1326.5266663062637,1326.5266663062637,0.9999168726395364,0.00021038595533754873
1326.5336108500774,1326.5336108500774,0.9999024122483064,0.00021038932659234364
1326.540555393751,1326.540555393751,1.0002654670172795,0.00021043842722312574
1326.547499937472,1326.547499937472,0.9998885758920807,0.0002104110291411363
1326.554444481192,1326.554444481192,1.0002191748167768,0.00021046917038590918
1326.5613890248194,1326.5613890248194,0.9997833936568984,0.00021042025491645392
1326.568333568493,1326.568333568493,0.9999706177722615,0.00021040567959629925
1326.575278112074,1326.575278112074,0.9998954282899041,0.00021042691981454053
1326.5822226557016,1326.5822226557016,0.9999543471586971,0.00021042299032707307
1326.589167199282,1326.589167199282,1.0002629262860565,0.00021044811480167274
1326.596111742863,1326.596111742863,0.9999444538865863,0.00021042955547660017
1326.603056286397,1326.603056286397,1.0000689902944992,0.00021044408032128945
1326.6100008299313,1326.6100008299313,0.9998820116913908,0.0002104245852119839
1326.616945373419,1326.616945373419,1.0001434400090148,0.00021045470422697096
1326.6238899168595,1326.6238899168595,1.0000123273828934,0.00021042883261825936
1326.6308344603476,1326.6308344603476,0.9997949521991627,0.00021041008155462112
1326.6377790037418,1326.6377790037418,0.9998641569278621,0.0002104352781836198
1326.644723547183,1326.644723547183,1.000152470846262,0.00021046837470770543
1326.651668090531,1326.651668090531,1.0003950149864496,0.00021049622358348648
1326.6586126339255,1326.6586126339255,0.9999942771011788,0.00021045644188387
1326.6655571772733,1326.6655571772733,1.0000747344556533,0.0002104304726238745
1326.6725017205745,1326.6725017205745,0.9998041467529164,0.00021041185271593966
1326.6794462637831,1326.6794462637831,0.9996216780065866,0.0002103623766084133
1326.686390807224,1326.686390807224,0.9998218953741844,0.00021038089122093063
1326.6947242590738,1326.6947242590738,1.0004141376541609,0.00021041684182974697
1326.701668802282,1326.701668802282,0.9999290394261143,0.00021036910332216264
1326.70861334549,1326.70861334549,0.9999487744600483,0.00021035398227653123
1326.7163912338833,1326.7163912338833,1.0002324894544956,0.00021040661162398397
1326.723891340409,1326.723891340409,1.0003938126364864,0.00021038541594240741
1326.730835883524,1326.730835883524,1.0000187391180386,0.00021033623691023735
1326.7377804266853,1326.7377804266853,1.0000869709465778,0.00021034538305168018
1326.7447249697077,1326.7447249697077,1.0000554313379308,0.00021031341575815355
1326.7516695127756,1326.7516695127756,0.9997874858802709,0.00021029344500736588
1326.7586140558444,1326.7586140558444,0.9996150411886499,0.0002102764050919491
1326.7655585988664,1326.7655585988664,0.9998723855088381,0.00021028110978244256
1326.7725031418418,1326.7725031418418,1.0001887274966663,0.00021032277767325433
1326.7794476847703,1326.7794476847703,1.000310560433407,0.00021031657764371877
1326.7863922277459,1326.7863922277459,1.0003741911665502,0.000210338215342845
1326.793336770675,1326.793336770675,0.9999702467730837,0.00021028487928109084
1326.8002813135568,1326.8002813135568,0.9997300144682848,0.0002102629216356503
1326.807225856393,1326.807225856393,1.000166008386556,0.0002103100185758777
1326.8141703992746,1326.8141703992746,0.9997967406575101,0.00021026392698443526
1326.8211149421106,1326.8211149421106,1.0000039809802996,0.00021028689607010946
1326.8280594848532,1326.8280594848532,1.0001900147933536,0.00021031831307138064
1326.835004027689,1326.835004027689,0.9996613050896309,0.00021025047511335045
1326.8419485704314,1326.8419485704314,1.000339156343599,0.0002103324476500609
1326.8488931131274,1326.8488931131274,1.0000109779664292,0.00021028520897024345
1326.85583765587,1326.85583765587,0.9999680745687298,0.00021027869936491518
1326.8627821984728,1326.8627821984728,0.9997393991180534,0.0002102303936502725
1326.8697267412158,1326.8697267412158,0.9996736873565542,0.00021023454869608586
1326.8766712838649,1326.8766712838649,1.0002894144068541,0.0002102763503774627
1326.8836158263744,1326.8836158263744,1.0001718829303714,0.00021023847899837006
1326.8905603689777,1326.8905603689777,1.00025603075178,0.00021023230725248715
1326.8975049115336,1326.8975049115336,0.9997454270091717,0.00021016110332689098
1326.9044494540904,1326.9044494540904,1.0000673747167892,0.00021016830648840413
1326.9113939965996,1326.9113939965996,1.000076858049129,0.00021015235999224052
1326.918338539063,1326.918338539063,0.9997933738726179,0.00021009767898108765
1326.9252830815262,1326.9252830815262,1.0001922477144285,0.00021011416070698552
1326.932227623943,1326.932227623943,0.9998018485219733,0.00021005146403008898
1326.9391721663592,1326.9391721663592,1.0002275530358593,0.00021008071672635442
1326.946116708729,1326.946116708729,0.999934920946233,0.00021002833153916894
1326.9530612510996,1326.9530612510996,0.9999808457913819,0.00021003178572279505
1326.9600057934226,1326.9600057934226,0.999807550846555,0.00020999449331508395
1326.9669503357466,1326.9669503357466,0.9998155019755275,0.0002099681085154638
1326.9738948780232,1326.9738948780232,1.000586549729782,0.00021002288646492415
1326.9808394202535,1326.9808394202535,0.9997912984912627,0.00020993925309765747
1326.987783962484,1326.987783962484,0.9996992924316,0.00020992861112860235
1326.9947285047142,1326.9947285047142,1.000543676980811,0.00020997447362280588
1327.001673046898,1327.001673046898,1.0000765083691325,0.00020992232350632066
1327.008617589035,1327.008617589035,0.9999968516347337,0.00020993073439132866
1327.0155621310792,1327.0155621310792,1.0000807060371992,0.00020993467094797014
1327.022506673356,1327.022506673356,0.9998105708292737,0.00020989353109753862
1327.0294512154003,1327.0294512154003,0.9997782554152949,0.00020989205094982922
1327.0363957574446,1327.0363957574446,0.9999473816972744,0.0002099319766477508
1327.0433402994881,1327.0433402994881,1.000209760768967,0.00020994478649721343
1327.0502848414394,1327.0502848414394,1.0000368127144088,0.000209916159378038
1327.0572293833436,1327.0572293833436,1.0001565051464465,0.00020994516780484582
1327.0652850520685,1327.0652850520685,1.000061390137993,0.00020993609126411034
