time,time,flux,flux_err
1325.2997672061617,1325.2997672061617,1.0002538927791997,0.00044679216579824243
1325.3081007181786,1325.3081007181786,0.9996834653443178,0.0004468537049192615
1325.3157397710129,1325.3157397710129,0.9998710724236339,0.00040810736257121654
1325.322684364594,1325.322684364594,0.9998788188640374,0.00040824385215364824
1325.3296289582797,1325.3296289582797,0.9996689977023673,0.0004084185014152961
1325.336573552047,1325.336573552047,1.0002729134350026,0.00040866903189955734
1325.3435181459658,1325.3435181459658,1.000484388209599,0.0004089155416664463
1325.350462739943,1325.350462739943,1.000038288783664,0.00040907258524155505
1325.3574073340594,1325.3574073340594,0.9996313549863822,0.0004092644254123514
1325.3643519282227,1325.3643519282227,1.0005944899496682,0.00040967591827462124
1325.3712965225143,1325.3712965225143,1.0000548909068283,0.00040986836607448233
1325.3782411168863,1325.3782411168863,1.0004470433375523,0.0004102215318626722
1325.3851857113527,1325.3851857113527,0.9994200152515544,0.0004103182488224352
1325.3921303059117,1325.3921303059117,0.9998988183919775,0.0004107007509547311
1325.3990749005868,1325.3990749005868,1.0000904299297968,0.00041105126423251223
1325.4060194953092,1325.4060194953092,1.0000240239343683,0.00041128426200514776
1325.4129640901356,1325.4129640901356,0.9997364149446023,0.00041158546064745465
1325.419908685044,1325.419908685044,0.9994440638548326,0.00041182456881263
1325.426853280057,1325.426853280057,0.9998507057481362,0.0004121919686374124
1325.433797875128,1325.433797875128,1.0003569579932043,0.0004126218873977159
1325.4407424702927,1325.4407424702927,1.0002160840129382,0.0004128818316903427
1325.4476870655617,1325.4476870655617,1.0005382888992518,0.0004132655551031219
1325.454631660877,1325.454631660877,0.9998228747884866,0.0004134625386349974
1325.4615762562744,1325.4615762562744,1.0004785642749923,0.00041388427050319504
1325.468520851753,1325.468520851753,0.9997369691603157,0.0004141849304642968
1325.4754654473018,1325.4754654473018,0.9998511811636523,0.0004145402459399156
1325.4824100429664,1325.4824100429664,1.0002468360035248,0.00041504804859578907
1325.4893546386668,1325.4893546386668,0.9994745290056908,0.0004154045444938484
1325.496299234448,1325.496299234448,0.9991670568750086,0.00041577142796168286
1325.5032438303222,1325.5032438303222,0.9998922064574799,0.00041635486935710146
1325.510188426232,1325.510188426232,1.0003080250072418,0.00041689299524400096
1325.5171330222227,1325.5171330222227,0.9999974187154566,0.0004173167650560713
1325.5240776182952,1325.5240776182952,1.0001375548385294,0.00041774875831347154
1325.531022214449,1325.531022214449,1.0006505167548678,0.00041831350582911483
1325.537966810638,1325.537966810638,0.9998484238922447,0.00041874220136221455
1325.5449114069083,1325.5449114069083,0.9993522444158265,0.0004190454418386964
1325.5518560032367,1325.5518560032367,0.9999055657227649,0.00041961128700059285
1325.5588005996235,1325.5588005996235,1.000045269283079,0.00042003151379144495
1325.5657451960917,1325.5657451960917,1.0008049070220362,0.000420584476446992
1325.5726897925947,1325.5726897925947,0.9996652708747849,0.00042069240839103585
1325.5796343891914,1325.5796343891914,0.9996033607800123,0.0004210925068460082
1325.5865789858105,1325.5865789858105,1.0001572364716318,0.0004214769988152117
1325.5935235825116,1325.5935235825116,0.999487877192841,0.0004216551692351209
1325.6004681792592,1325.6004681792592,0.9997908991299365,0.00042191715906748396
1325.6074127760883,1325.6074127760883,1.0001630493004812,0.0004221813014904785
1325.6143573729526,1325.6143573729526,1.0007100619373115,0.00042237824258136244
1325.6213019698746,1325.6213019698746,1.000058612278681,0.00042241159646660514
1325.628246566855,1325.628246566855,1.000081820425382,0.00042243972971862346
1325.6351911638587,1325.6351911638587,1.0002850843819693,0.0004224862697436591
1325.6421357609674,1325.6421357609674,0.9992300961863382,0.00042232031926163466
1325.649080358099,1325.649080358099,1.0000434442985822,0.0004224715807482018
1325.656024955289,1325.656024955289,1.000237137401325,0.00042249011671918095
1325.662969552502,1325.662969552502,0.9997420558424898,0.0004224048633126668
1325.6699141498088,1325.6699141498088,0.9999726263498386,0.000422382996389667
1325.676858747115,1325.676858747115,1.0002785963213219,0.00042243428112564237
1325.6838033445033,1325.6838033445033,0.9999567634548466,0.00042240990300779327
1325.6907479419144,1325.6907479419144,0.9998207367649193,0.0004224462094115284
1325.6976925393951,1325.6976925393951,1.0002269768663048,0.0004225949724013593
1325.7046371368997,1325.7046371368997,1.00023137409683,0.00042254760705786736
1325.7115817344506,1325.7115817344506,0.9995150658614091,0.0004225520490960596
1325.7185263320712,1325.7185263320712,0.9994438571444226,0.00042261638365703486
1325.7254709297035,1325.7254709297035,1.0005452262253018,0.0004229433320633907
1325.7324155273707,1325.7324155273707,1.000649436330739,0.0004230353762018486
1325.7393601251083,1325.7393601251083,0.9996053995254386,0.0004230499195502872
1325.74630472288,1325.74630472288,0.9997458039431164,0.00042323900565924304
1325.7532493206636,1325.7532493206636,1.0002255999468024,0.0004234606419856057
1325.7601939185174,1325.7601939185174,0.9994006022464925,0.0004235277250324226
1325.7671385163708,1325.7671385163708,0.9991834629099914,0.00042364615291101834
1325.7740831142944,1325.7740831142944,1.0004909385426461,0.0004239941989086779
1325.7810277122524,1325.7810277122524,0.9997736630630385,0.000424121009938409
1325.7879723102346,1325.7879723102346,0.999800440998756,0.00042419470364975204
1325.7949169082626,1325.7949169082626,0.9998971167456958,0.0004244445734015663
1325.8018615063254,1325.8018615063254,1.0001451250622253,0.00042453456632577226
1325.8088061044123,1325.8088061044123,0.999980810909654,0.00042462208494275404
1325.8157507025448,1325.8157507025448,1.0007714529618374,0.00042480677875019563
1325.82269530069,1325.82269530069,0.9998907757371589,0.00042476420461519583
1325.8296398989037,1325.8296398989037,0.9996116523910741,0.0004246869890375968
1325.8365844971183,1325.8365844971183,0.9998544803638468,0.0004248236621166121
1325.8435290953562,1325.8435290953562,0.99978892229549,0.00042472513055042007
1325.8504736936286,1325.8504736936286,0.9999872509684172,0.0004247400634851654
1325.857418291936,1325.857418291936,0.9999087303441259,0.00042463074291089356
1325.8643628902787,1325.8643628902787,1.0000929363790245,0.0004244858531668439
1325.8713074886448,1325.8713074886448,1.0001794387832843,0.000424355589737464
1325.8782520870457,1325.8782520870457,1.0001495654911112,0.0004240263981357917
1325.8851966854577,1325.8851966854577,0.9999618250879354,0.0004237976345577019
1325.8921412839052,1325.8921412839052,0.9999752809535727,0.00042355434555970865
1325.8990858823872,1325.8990858823872,1.0008122803805943,0.0004235636460615871
1325.9060304808925,1325.9060304808925,0.9995350509529995,0.0004231790227649492
1325.912975079398,1325.912975079398,1.0000209949921943,0.0004231191753680431
1325.91991967795,1325.91991967795,0.9993303929756072,0.0004228719288902837
1325.9268642765257,1325.9268642765257,0.9996495106074708,0.0004228625612813956
1325.9338088751124,1325.9338088751124,1.000305899268026,0.0004228652465757803
1325.9407534737347,1325.9407534737347,1.0002173755426136,0.000422838369483356
1325.9476980723798,1325.9476980723798,1.000679960062724,0.0004228300956961568
1325.9546426710363,1325.9546426710363,1.0002291040727624,0.00042265654695588996
1325.962142837609,1325.962142837609,0.9998619524117096,0.00042256382215575107
1325.9699207881677,1325.9699207881677,0.9996582998078356,0.00042251334209152894
1325.9768653868946,1325.9768653868946,0.9994564679194445,0.0004224658101796573
1325.983809985644,1325.983809985644,0.9997398607518475,0.0004224597014523874
1325.9907545844057,1325.9907545844057,1.0007720226838104,0.00042269627251390675
1325.9976991832023,1325.9976991832023,0.9993694501539332,0.0004225663452547733
1326.004643781999,1326.004643781999,1.0003728183426563,0.00042281348149017316
1326.0115883808187,1326.0115883808187,1.0002473540892054,0.0004229309179557105
1326.0185329796618,1326.0185329796618,1.0000720065968127,0.0004230829157554743
1326.0254775785165,1326.0254775785165,1.0005514009193963,0.0004232478888442897
1326.0324221773833,1326.0324221773833,0.9994059630165486,0.00042311762910321026
1326.0393667762723,1326.0393667762723,0.9992597666737717,0.0004229702588820302
1326.046311375186,1326.046311375186,0.9995961097956331,0.0004229717746894384
1326.05325597411,1326.05325597411,1.0005167281518108,0.00042311169418240925
1326.060200573023,1326.060200573023,0.9998956067625672,0.0004230186429354468
1326.067145171994,1326.067145171994,0.9992699738615972,0.00042294148975192166
1326.0740897709534,1326.0740897709534,1.0005024653994232,0.0004231312712300126
1326.0810343699252,1326.0810343699252,1.0003159334541198,0.0004230866569728875
1326.0879789689193,1326.0879789689193,1.000157983168927,0.00042304689217036347
1326.0949235679257,1326.0949235679257,0.9997906456225538,0.0004230229008742812
1326.1018681669434,1326.1018681669434,1.000070617662678,0.000423008395291468
1326.1088127659725,1326.1088127659725,0.9998278601092631,0.0004230347330776674
1326.1157573650135,1326.1157573650135,1.0003145606824564,0.0004231791319198344
1326.1227019640542,1326.1227019640542,0.9999662905909583,0.000423101617516784
1326.1296465631306,1326.1296465631306,0.9996592861691995,0.0004230664800753809
1326.1365911622179,1326.1365911622179,1.0001678896332256,0.0004230965811770357
1326.1435357613057,1326.1435357613057,1.0000302806045447,0.00042307087292565965
1326.1504803603934,1326.1504803603934,0.9996273759094981,0.0004230182612312049
1326.1574249594803,1326.1574249594803,0.9998639735396697,0.0004229422111424315
1326.1643695585922,1326.1643695585922,0.9999616401437044,0.0004229838461696039
1326.1713141577138,1326.1713141577138,0.9999419433639989,0.00042286806759706165
1326.1782587568598,1326.1782587568598,1.000006541347597,0.00042282809552082555
1326.185203355994,1326.185203355994,1.000368253224163,0.0004227985802726814
1326.1921479551395,1326.1921479551395,0.9995469142973048,0.0004226264960475543
1326.1990925542857,1326.1990925542857,1.0001901775533653,0.00042264445741102265
1326.2060371534658,1326.2060371534658,1.000473428814734,0.00042263432014584356
1326.212981752624,1326.212981752624,0.9997023567664429,0.00042241054823607125
1326.2199263518157,1326.2199263518157,0.9998580333649911,0.00042234677742710185
1326.2268709509965,1326.2268709509965,1.0001224257234722,0.0004223475276576816
1326.2338155501773,1326.2338155501773,1.0008333306375292,0.0004224695863542383
1326.240760149381,1326.240760149381,0.9992929477711849,0.00042216948768454175
1326.2477047485854,1326.2477047485854,1.0003914468729989,0.00042231584989142165
1326.2546493477892,1326.2546493477892,0.9994858219346794,0.00042215442336110295
1326.2615939470052,1326.2615939470052,0.9999242172443304,0.0004222037168789691
1326.2685385462323,1326.2685385462323,1.0005726941775823,0.00042222078412068045
1326.2754831454358,1326.2754831454358,0.9997610060387743,0.00042211723310626927
1326.2824277446755,1326.2824277446755,1.0000961407822295,0.00042200344373094837
1326.2893723439024,1326.2893723439024,0.9998496990333731,0.0004220443661739098
1326.2963169431412,1326.2963169431412,0.9995135047352649,0.00042197630256826484
1326.3032615423683,1326.3032615423683,1.0000320084105323,0.0004219728430325671
1326.3102061416307,1326.3102061416307,1.000509094788303,0.00042202923944790495
1326.3171507408697,1326.3171507408697,0.9997225234244291,0.00042195273837765043
1326.3240953401198,1326.3240953401198,1.0005489572053006,0.00042201537886871166
1326.3310399393595,1326.3310399393595,0.999641034539937,0.0004219149087521897
1326.3379845386212,1326.3379845386212,0.9998234835170553,0.00042190820800505407
1326.3449291378718,1326.3449291378718,0.9998711179105111,0.0004219057916597011
1326.354651576839,1326.354651576839,0.9997762494958821,0.000421977923205953
1326.3615961761009,1326.3615961761009,0.9998477737200755,0.0004219743381720772
1326.3685407753633,1326.3685407753633,1.0004540909291224,0.00042212919615023314
1326.3754853746134,1326.3754853746134,1.0009062633867394,0.00042219787240566265
1326.3824299738876,1326.3824299738876,0.9999614757319393,0.0004220335539467764
1326.3893745731498,1326.3893745731498,0.9995181425499167,0.00042198196548622464
1326.396319172412,1326.396319172412,1.0007904686702205,0.00042217756435186416
1326.4032637716741,1326.4032637716741,1.0001130822587834,0.00042209337982858857
1326.4102083709363,1326.4102083709363,0.9994401100241184,0.0004220535830717586
1326.4171529701987,1326.4171529701987,1.0000670685266093,0.0004220800893653
1326.4240975694725,1326.4240975694725,0.9997940166010999,0.0004221121416762634
1326.4310421687346,1326.4310421687346,0.9995699768635763,0.0004221461304930802
1326.4379867679966,1326.4379867679966,1.0008311187768648,0.00042232275623765544
1326.444931367259,1326.444931367259,0.9998928237079017,0.00042219083107712435
1326.4518759665098,1326.4518759665098,0.999823338293705,0.00042222169858282236
1326.4588205657717,1326.4588205657717,0.999710352785421,0.0004222392472025818
1326.465765165034,1326.465765165034,0.9999892547842055,0.00042236739439390386
1326.4727097642847,1326.4727097642847,0.9999323201592993,0.00042236637053788583
1326.4796543635352,1326.4796543635352,1.0002788192139778,0.0004224484070261607
1326.4865989627972,1326.4865989627972,1.0006875271261357,0.0004225655527364916
1326.4935435620362,1326.4935435620362,1.000237939018924,0.00042248228589793115
1326.500488161287,1326.500488161287,0.9993953151465202,0.00042244378645062705
1326.5074327605253,1326.5074327605253,0.9998890413225908,0.000422567571558759
1326.5143773597879,1326.5143773597879,0.9993335192834929,0.0004224840768892647
1326.521321959015,1326.521321959015,1.0003311223439855,0.0004227585010245904
1326.528266558254,1326.528266558254,0.999780327108463,0.00042276489624087937
1326.5352111574814,1326.5352111574814,1.0003961782546091,0.0004229196363691074
1326.5421557567201,1326.5421557567201,1.000658635353429,0.0004230751953732259
1326.549100355924,1326.549100355924,0.9999923160863341,0.00042299543446140285
1326.5560449551515,1326.5560449551515,1.0001368246231621,0.0004231131689942572
1326.5629895543673,1326.5629895543673,0.9990453545324491,0.00042290740921669263
1326.5699341535826,1326.5699341535826,1.0001944386876673,0.0004230347637343318
1326.576878752787,1326.576878752787,0.9998009395311737,0.0004230081240361722
1326.5838233519905,1326.5838233519905,0.9997501385687005,0.00042309170571188607
1326.5907679511947,1326.5907679511947,0.9998565254517274,0.0004230944433672934
1326.597712550387,1326.597712550387,1.0011039392959238,0.0004232297253111032
1326.6046571495679,1326.6046571495679,0.9993640001502715,0.000423060270366357
1326.6116017487486,1326.6116017487486,1.0005511059603172,0.0004232058099670244
1326.6185463479408,1326.6185463479408,1.0004705444276418,0.00042324149412749075
1326.62549094711,1326.62549094711,0.9993800900796396,0.00042296759732161573
1326.6324355462789,1326.6324355462789,1.000397868843486,0.00042318793792534075
1326.6393801454365,1326.6393801454365,1.0000193379180367,0.00042314340882563633
1326.6463247445936,1326.6463247445936,1.000402408685185,0.0004231455337339843
1326.6532693437512,1326.6532693437512,0.9996903593416381,0.00042294070585876707
1326.6602139428974,1326.6602139428974,1.000350671460636,0.00042296058562033017
1326.667158542031,1326.667158542031,0.9995373923053894,0.0004228411385394008
1326.6741031411539,1326.6741031411539,0.9999864031002165,0.00042281987342008295
1326.6810477402878,1326.6810477402878,0.9995108114536023,0.00042257548150397164
1326.6888256913007,1326.6888256913007,0.9996597386527093,0.00042248013747094997
1326.6963258583387,1326.6963258583387,1.000005289755977,0.00042245335679630327
1326.703270457426,1326.703270457426,1.0003703905872459,0.00042240596717906106
1326.7104928404774,1326.7104928404774,0.9999985928522935,0.00042226060005952587
1326.7185485754187,1326.7185485754187,1.0006258902354876,0.00042218127533700834
1326.7254931745065,1326.7254931745065,1.0002810050735516,0.00042203670879075925
1326.7324377735943,1326.7324377735943,0.9998481545445989,0.0004218850453081161
1326.7393823726818,1326.7393823726818,0.9998075619013568,0.00042183615781399053
1326.7463269717111,1326.7463269717111,0.9998791107278657,0.0004217853843719005
1326.7532715707748,1326.7532715707748,1.0003233035975299,0.0004218004808061995
1326.7602161698164,1326.7602161698164,0.9998937769354018,0.00042164619546852566
1326.767160768857,1326.767160768857,0.9992197371851592,0.0004214726460720464
1326.774105367875,1326.774105367875,1.0001569540258295,0.0004216187563800538
1326.7810499668926,1326.7810499668926,1.000112471384144,0.00042154917757816497
1326.7879945659104,1326.7879945659104,1.0000955536366463,0.0004215133810944323
1326.794939164905,1326.794939164905,0.9998069984669844,0.00042146433669640256
1326.801883763911,1326.801883763911,0.9999743507812399,0.0004215475033974503
1326.808828362882,1326.808828362882,1.0002398250859739,0.00042152965165819363
1326.8157729618647,1326.8157729618647,1.0003896570468889,0.00042156078581754046
1326.8227175608245,1326.8227175608245,1.0002340301458266,0.0004215293877998398
1326.8296621597838,1326.8296621597838,1.0001020110418184,0.00042140742168350934
1326.8366067587317,1326.8366067587317,0.9994404913738336,0.0004213143523710304
1326.8435513576683,1326.8435513576683,1.0002594876355662,0.0004213546341468509
1326.8504959566042,1326.8504959566042,0.9997366484751222,0.0004212416041868948
1326.857440555517,1326.857440555517,0.9994814262043648,0.00042114037681755396
1326.8643851544305,1326.8643851544305,1.0001636832326135,0.00042109290407030855
1326.8713297533316,1326.8713297533316,1.0000018382902667,0.0004209509214690408
1326.878274352221,1326.878274352221,0.9998176582386987,0.00042080523150281297
1326.8852189511108,1326.8852189511108,1.0002801518825417,0.0004206789642883315
1326.8921635499773,1326.8921635499773,1.0002640062162969,0.0004204715055772536
1326.8991081488437,1326.8991081488437,1.0003020116434136,0.00042033662201960075
1326.9060527476984,1326.9060527476984,0.9996902615456748,0.00042003946803630007
1326.9129973465413,1326.9129973465413,0.999662369725969,0.0004197787525890887
1326.9199419453614,1326.9199419453614,1.0002644630990007,0.0004197095530843487
1326.926886544204,1326.926886544204,1.000338082767908,0.00041960765818418403
1326.9338311430013,1326.9338311430013,0.9996065970038822,0.0004191900632540475
1326.9407757417973,1326.9407757417973,1.0005536858678794,0.00041918903807083407
1326.9477203405938,1326.9477203405938,0.9996946411222332,0.00041891677815513226
1326.9546649393906,1326.9546649393906,0.9998662813431866,0.00041883366910286607
1326.961609538129,1326.961609538129,1.0004602563299605,0.0004188280637451976
1326.9685541369024,1326.9685541369024,0.9999876942270566,0.0004185358436268161
1326.975498735652,1326.975498735652,0.9998573736952986,0.00041838357779649124
1326.9824433343788,1326.9824433343788,0.9998378551262294,0.0004182489569067662
1326.9893879331055,1326.9893879331055,0.9992765907446703,0.0004180812867343833
1326.996332531821,1326.996332531821,0.9998956149438587,0.00041803282093900545
1327.0032771305239,1327.0032771305239,0.9995946521549012,0.00041794303271944515
1327.0102217292158,1327.0102217292158,1.0001442723159948,0.00041796020150472457
1327.0171663278957,1327.0171663278957,1.0007572527172834,0.00041804542520106964
1327.0241109265644,1327.0241109265644,1.000244088518242,0.00041788558166656854
1327.0310555252331,1327.0310555252331,1.0005737932011887,0.00041794747095496557
1327.0380001238661,1327.0380001238661,0.9999865160913506,0.00041781660527096974
1327.0449447225117,1327.0449447225117,0.9999515835937729,0.00041783563668926096
1327.0518893211222,1327.0518893211222,0.9996256071211471,0.00041778607666962336
1327.0593894876124,1327.0593894876124,0.9996768273230863,0.0004177874336072934
