time,time,flux,flux_err
1354.1174348637917,1354.1174348637917,0.9999875846605004,0.0001724945438714535
1354.1255368671311,1354.1255368671311,1.00001086888394,0.00015756060459684677
1354.1324814414215,1354.1324814414215,1.0000825609262025,0.00015757982544694208
1354.1394260155264,1354.1394260155264,0.9999157488410901,0.00015759905613025693
1354.1463705895844,1354.1463705895844,0.9999248402316457,0.0001575895051750785
1354.1533151635026,1354.1533151635026,1.0001035578453368,0.00015763031693222614
1354.160259737421,1354.160259737421,0.9998801300933475,0.00015762789436621344
1354.1672043111998,1354.1672043111998,1.000271744580625,0.00015764981751041434
1354.174148884885,1354.174148884885,1.0000307207620023,0.00015763975448329854
1354.181093458571,1354.181093458571,0.9997804321699844,0.00015764206465346834
1354.1880380321165,1354.1880380321165,1.0004145804848878,0.000157676314948592
1354.194982605616,1354.194982605616,0.9994962671060114,0.0001576214338531969
1354.2019271790218,1354.2019271790218,1.0000053410802843,0.00015766075257557158
1354.208871752335,1354.208871752335,1.0000130403487717,0.00015765768699554434
1354.2158163256013,1354.2158163256013,1.000180227188554,0.0001576745913237855
1354.2227608988212,1354.2227608988212,0.9999117650231056,0.00015765089562714722
1354.2297054718542,1354.2297054718542,0.9999865521628587,0.00015766260097213456
1354.2366500448418,1354.2366500448418,1.0001540136904907,0.00015766270544253597
1354.2435946177823,1354.2435946177823,0.9998460340455031,0.00015764121425838036
1354.2505391906295,1354.2505391906295,1.0001631520459324,0.00015767016854932586
1354.25748376343,1354.25748376343,0.9997777235753394,0.00015765188334942047
1354.264428336091,1354.264428336091,1.0000071284868262,0.00015766955454248537
1354.271372908659,1354.271372908659,1.0001178716184365,0.00015765538814500172
1354.278317481227,1354.278317481227,0.9998933090394774,0.00015765020613520768
1354.2852620537017,1354.2852620537017,1.0002794341935028,0.00015769336523737592
1354.292206626037,1354.292206626037,0.9999474660273444,0.00015767365747504383
1354.2991511984183,1354.2991511984183,1.0001152072364015,0.00015768713325916292
1354.3060957706136,1354.3060957706136,0.999849888274924,0.00015767566321436927
1354.3130403427162,1354.3130403427162,1.0001888671279417,0.00015769620498812617
1354.3199849148648,1354.3199849148648,0.9997611822300716,0.00015766240794303166
1354.326929486874,1354.326929486874,0.9999295336606309,0.0001576755895635679
1354.333874058697,1354.333874058697,1.000061096291454,0.0001577095450219195
1354.340818630566,1354.340818630566,0.9998009982993876,0.0001576833076870931
1354.3477632022962,1354.3477632022962,1.000006484645788,0.00015772229333781308
1354.3547077739324,1354.3547077739324,1.0002831044291811,0.00015771826808912596
1354.3616523455692,1354.3616523455692,1.0001772412962653,0.0001577138003728648
1354.3685969170663,1354.3685969170663,1.000052080212894,0.00015769661974319177
1354.375541488563,1354.375541488563,0.9999355026434102,0.0001577046163348346
1354.3824860598738,1354.3824860598738,1.0000087606911983,0.0001577173649758438
1354.3894306311843,1354.3894306311843,0.9998839809982425,0.0001576826589803542
1354.3963752024015,1354.3963752024015,1.0000583452056857,0.00015771651201766217
1354.4033197735262,1354.4033197735262,1.0000064119700052,0.00015771463066341072
1354.4102643445572,1354.4102643445572,1.0000900128869268,0.0001577316596036619
1354.4172089155886,1354.4172089155886,1.0002219390081213,0.00015773280010814155
1354.4241534864336,1354.4241534864336,0.9999247232326735,0.00015770842416520364
1354.4310980572316,1354.4310980572316,0.9998020090184669,0.00015770715884065036
1354.4380426280302,1354.4380426280302,0.999967494597578,0.00015772579304124544
1354.4449871986888,1354.4449871986888,1.0000592208273944,0.00015774950742823376
1354.4519317693012,1354.4519317693012,0.9999506487037187,0.00015773652105409967
1354.45887633982,1354.45887633982,1.0000391733730654,0.0001577417194393496
1354.4658209101995,1354.4658209101995,1.0001020599799069,0.00015777309596420554
1354.4727654806252,1354.4727654806252,0.9999278179551269,0.00015775214787949512
1354.4797100509118,1354.4797100509118,0.9998320662794059,0.0001577517558412641
1354.486654621104,1354.486654621104,1.000072349252158,0.0001577749593639595
1354.4935991912512,1354.4935991912512,1.0000343893990356,0.00015775534950985726
1354.500543761351,1354.500543761351,0.9997033979866033,0.00015774892635103823
1354.5074883312643,1354.5074883312643,1.0002257628818418,0.00015778955837560043
1354.5144329011782,1354.5144329011782,1.0000602923768709,0.000157783809580728
1354.5213774710453,1354.5213774710453,1.0000684481643476,0.0001577896972692106
1354.5283220407262,1354.5283220407262,1.0001299826930627,0.00015781468008361832
1354.5352666105466,1354.5352666105466,0.999967137678796,0.0001577921323754001
1354.5422111800412,1354.5422111800412,0.9999244949528299,0.0001577945740887495
1354.549155749629,1354.549155749629,1.0001865687770952,0.00015780862230890778
1354.5561003190771,1354.5561003190771,1.000033292304553,0.00015780810115101487
1354.563044888478,1354.563044888478,0.9998326655183908,0.0001577938356734023
1354.5699894577865,1354.5699894577865,0.9998367152172,0.00015779809639015387
1354.5769340270015,1354.5769340270015,1.0001606516609627,0.0001578453793544122
1354.583878596217,1354.583878596217,1.0003352856291645,0.00015783155852454436
1354.5908231652925,1354.5908231652925,1.0000195026184246,0.00015783574914444098
1354.5977677343212,1354.5977677343212,0.9999988779369444,0.00015784476623684156
1354.6047123032106,1354.6047123032106,0.9998215630210596,0.0001578158711046804
1354.6116568720995,1354.6116568720995,0.9999951828430419,0.00015784467950636006
1354.6186014408954,1354.6186014408954,0.9997826837077589,0.00015782283516924264
1354.6255460095986,1354.6255460095986,1.000157339935579,0.00015785758180072312
1354.6324905782549,1354.6324905782549,1.0000643801456557,0.00015785116805417168
1354.639435146818,1354.639435146818,1.000064463026772,0.0001578570805456304
1354.6463797154279,1354.6463797154279,1.0002632552935198,0.0001578673831020828
1354.6533242837581,1354.6533242837581,0.9998173478722828,0.00015787223657869916
1354.6602688521355,1354.6602688521355,0.9998441505955821,0.0001578517545216915
1354.6672134203727,1354.6672134203727,0.9998877155646563,0.00015785258567310639
1354.6741579886097,1354.6741579886097,1.0000328329262378,0.00015786638005087556
1354.6811025567542,1354.6811025567542,0.9998448084879756,0.00015785871476026294
1354.6880471248048,1354.6880471248048,1.0001376279022751,0.00015788323380174933
1354.6949916928093,1354.6949916928093,1.000114652767099,0.00015789440228339722
1354.701936260674,1354.701936260674,1.0001515868378068,0.00015788990914264868
1354.7088808285855,1354.7088808285855,0.9995835292000732,0.00015785836018060442
1354.715825396357,1354.715825396357,1.0001661710046557,0.00015787555371247035
1354.722769964082,1354.722769964082,1.000095930383253,0.00015788444631497975
1354.7297145316675,1354.7297145316675,1.0000228887347515,0.00015787471394320174
1354.7366590992528,1354.7366590992528,1.0000705863270265,0.00015788556231565007
1354.7436036667918,1354.7436036667918,1.0000566236764254,0.00015789940242906165
1354.7505482340973,1354.7505482340973,0.9998307481343394,0.00015787377524044248
1354.7574928014035,1354.7574928014035,1.0000527368751533,0.00015789905454684328
1354.7644373687094,1354.7644373687094,0.999939547343779,0.00015789207633813503
1354.7713819360156,1354.7713819360156,0.9999703761623657,0.00015789189993844994
1354.778326503135,1354.778326503135,0.9999645858798372,0.000157889188666914
1354.7852710702082,1354.7852710702082,0.9999091071962896,0.00015788247698636672
1354.792215637188,1354.792215637188,1.0001255650545307,0.0001579073180031217
1354.7991602041216,1354.7991602041216,1.0000146374931027,0.00015787070897412114
1354.806104770962,1354.806104770962,1.0002311000995803,0.000157928181400435
1354.813049337709,1354.813049337709,0.9996653575906859,0.00015788022580136583
1354.8199939044093,1354.8199939044093,0.9998304899297533,0.00015788332272190816
1354.8269384711102,1354.8269384711102,1.0001938872324516,0.0001579350779182377
1354.833883037671,1354.833883037671,1.000286755946105,0.00015792679075366385
1354.8408276041853,1354.8408276041853,1.0000037400180193,0.00015791167607706773
1354.847772170607,1354.847772170607,0.9999629158100835,0.00015791335433746955
1354.8547167369811,1354.8547167369811,0.9998972758072876,0.00015792184719888003
1354.8616613033093,1354.8616613033093,1.0000640667014757,0.00015793761179888456
1354.8686058694514,1354.8686058694514,1.000085181779988,0.00015794592525927677
1354.875550435593,1354.875550435593,0.9998119984180031,0.00015792872868243486
1354.8824950017347,1354.8824950017347,0.9999408530122933,0.0001579632673640263
1354.8894395677835,1354.8894395677835,1.000090123094258,0.00015797315439037735
1354.8963841337388,1354.8963841337388,0.999942188639927,0.00015794622392261174
1354.9033286996016,1354.9033286996016,1.0000373285808404,0.00015794770437339552
1354.910273265417,1354.910273265417,0.9999082228242564,0.00015793548136139033
1354.9172178311396,1354.9172178311396,0.9999071322508113,0.00015794980351214113
1354.924162396816,1354.924162396816,1.0001495910470752,0.00015796321737773808
1354.9311069624455,1354.9311069624455,0.9998451536034342,0.00015794461672012338
1354.9391626584716,1354.9391626584716,1.0000324233622995,0.00015796515675410968
1354.9463850065142,1354.9463850065142,1.0002394384053646,0.0001579880715873551
1354.953329571957,1354.953329571957,1.0000704982621378,0.00015794877493904825
1354.9602741372607,1354.9602741372607,1.0000197640168824,0.0001579458012691035
1354.967218702518,1354.967218702518,0.9999249901903301,0.0001579380461435112
1354.9741632676817,1354.9741632676817,0.9999629170906174,0.000157954363040121
1354.9811078327991,1354.9811078327991,0.9998510358976309,0.00015792957671092005
1354.9880523977772,1354.9880523977772,0.9998869890013771,0.00015795554796592458
1354.9949969627546,1354.9949969627546,1.0000804115313369,0.0001579895772209817
1355.0019415277322,1355.0019415277322,0.9998671028393936,0.00015795565391299487
1355.0088860926166,1355.0088860926166,1.0001811411632902,0.00015797979208408787
1355.0158306574083,1355.0158306574083,1.0001444195191818,0.00015797441350041285
1355.022775222106,1355.022775222106,1.0000600090693628,0.00015797726492424536
1355.0297197868044,1355.0297197868044,1.0001929133816116,0.00015797778463026688
1355.0366643513632,1355.0366643513632,0.999745668955546,0.00015796090164704052
1355.0436089158752,1355.0436089158752,1.0001506835516365,0.0001579918478773059
1355.0505534802942,1355.0505534802942,0.999893078124454,0.00015799608115116444
1355.0574980447127,1355.0574980447127,0.9996974896203963,0.0001579804323278846
1355.0644426090385,1355.0644426090385,0.9999649980835909,0.00015798507604211875
1355.0713871732714,1355.0713871732714,0.9999728787925914,0.00015799167997160914
1355.0783317374571,1355.0783317374571,0.999870525830865,0.0001579874203603625
1355.0852763015964,1355.0852763015964,1.0000399380488734,0.00015798573657050871
1355.092220865643,1355.092220865643,1.000081268675232,0.00015800440710194238
1355.0991654296427,1355.0991654296427,1.0000428563143517,0.00015800889942749045
1355.1061099935491,1355.1061099935491,0.9999750815019081,0.00015802011438911687
1355.1130545573628,1355.1130545573628,1.0003104927756392,0.00015802793299763367
1355.1199991211763,1355.1199991211763,0.9999161674817193,0.00015800532619701286
1355.1269436849432,1355.1269436849432,0.9996337477063737,0.00015797471900745429
1355.1338882485707,1355.1338882485707,1.0002732127850629,0.00015802098614749524
1355.1408328121975,1355.1408328121975,0.9997810280590217,0.00015800198100779578
1355.1477773756853,1355.1477773756853,1.0000303887068405,0.00015800976717913193
1355.154721939173,1355.154721939173,0.9999144343969893,0.00015802257430010412
1355.1616665025672,1355.1616665025672,0.9999781942068016,0.00015801832733877317
1355.1686110659152,1355.1686110659152,1.000072772877343,0.00015803777947697204
1355.1755556291696,1355.1755556291696,1.0002817218062106,0.0001580409545741294
1355.1825001924244,1355.1825001924244,1.0000742030639806,0.00015803032228815464
1355.1894447555396,1355.1894447555396,0.9997734274280298,0.00015800241512626233
1355.196389318608,1355.196389318608,1.000009622456098,0.00015802693658547527
1355.2033338816298,1355.2033338816298,0.9999789201878825,0.00015800688453405535
1355.2102784445585,1355.2102784445585,0.9998694974892324,0.0001580026175462057
1355.2172230074407,1355.2172230074407,0.9998126042199507,0.00015800446296431936
1355.22416757023,1355.22416757023,1.0001055411011366,0.00015804063522679597
1355.2311121330654,1355.2311121330654,1.0000715290765263,0.00015804370229521018
1355.2380566957615,1355.2380566957615,1.000169225137072,0.0001580383766579382
1355.2450012584109,1355.2450012584109,1.000065390036569,0.000158033484695009
1355.2519458208735,1355.2519458208735,0.9999457346950523,0.00015803224895013937
1355.25889038343,1355.25889038343,0.9999621394160456,0.00015801412931308083
1355.2658349458466,1355.2658349458466,0.9998802421801823,0.0001580184736778709
1355.2727795082162,1355.2727795082162,1.0000214597135355,0.00015802023611089124
1355.279724070493,1355.279724070493,1.000039222378435,0.00015804624277933056
1355.28666863277,1355.28666863277,1.0001833697575653,0.0001580563436301262
1355.293613194954,1355.293613194954,0.9998971912577392,0.00015802926366851838
1355.3005577570907,1355.3005577570907,0.9999071579465131,0.00015802395964004142
1355.3075023191348,1355.3075023191348,1.000120271345498,0.00015804226143218637
1355.3144468811324,1355.3144468811324,0.9999768498936591,0.00015801176926236144
1355.3213914430366,1355.3213914430366,1.0000153188365053,0.00015803210493312662
1355.3283360049409,1355.3283360049409,0.9998092632523254,0.00015802426423072914
1355.3358361316245,1355.3358361316245,0.9998333950466047,0.00015804593653255856
1355.3436140408137,1355.3436140408137,0.9998663755884539,0.00015805208146784278
1355.3505586024853,1355.3505586024853,1.0001363220324877,0.00015806317681488094
1355.357503164017,1355.357503164017,1.0000552193705767,0.00015804912638506323
1355.3644477255023,1355.3644477255023,1.000121476846313,0.00015804208334387195
1355.3713922869872,1355.3713922869872,0.9998753392551709,0.00015803206406876132
1355.3783368484726,1355.3783368484726,1.0000115032695713,0.00015803308711496118
1355.385281409865,1355.385281409865,0.9998407794518492,0.00015802888662206594
1355.3922259711635,1355.3922259711635,1.0001648641077925,0.00015805964232100565
1355.400003879701,1355.400003879701,0.9998814536620539,0.00015806489169903332
1355.407504005779,1355.407504005779,0.9999420268919115,0.00015807066594078863
1355.414448566892,1355.414448566892,1.0002117675598312,0.00015805275205767
1355.4213931278646,1355.4213931278646,0.9999338726446656,0.000158062758046018
1355.428337688884,1355.428337688884,1.0000347962349978,0.00015803925883081153
1355.4352822498108,1355.4352822498108,0.9998396648399283,0.0001580326569285774
1355.4422268105973,1355.4422268105973,0.9998793597566834,0.0001580488205036224
1355.449171371384,1355.449171371384,0.9999241000924469,0.00015804395316134894
1355.4561159321242,1355.4561159321242,1.0002614005343538,0.0001580914402593272
1355.463060492771,1355.463060492771,1.0002195097506115,0.00015807908192466604
1355.4700050533716,1355.4700050533716,1.0001768214638402,0.0001580813372314596
1355.4769496138792,1355.4769496138792,1.0000600240505952,0.00015806781074025595
1355.483894174433,1355.483894174433,0.9996851643454046,0.00015804118117013707
1355.4908387347539,1355.4908387347539,0.9998371817989113,0.00015806234978647075
1355.497783295075,1355.497783295075,0.9999664058164095,0.00015806687099709707
1355.5047278553961,1355.5047278553961,0.999752192492713,0.0001580435856551631
1355.5116724157167,1355.5116724157167,0.9999618271100024,0.0001580837502774523
1355.5186169758053,1355.5186169758053,1.0000773912338554,0.00015808598354859218
1355.5255615359397,1355.5255615359397,1.00031105421795,0.0001580991905981275
1355.532506096028,1355.532506096028,1.000242055701175,0.00015807097690843862
1355.539450655977,1355.539450655977,0.9999117744118138,0.00015805088491397035
1355.546395215925,1355.546395215925,0.999871958749549,0.0001580486218006692
1355.5533397757806,1355.5533397757806,0.9999878421847868,0.00015806409696836424
1355.5602843355896,1355.5602843355896,0.9999950075523489,0.00015807596379099393
1355.567228895305,1355.567228895305,1.0000983127291174,0.00015807663198909856
1355.574173455021,1355.574173455021,0.9999566908879057,0.00015808792871823822
1355.5811180146434,1355.5811180146434,1.000010847796632,0.00015808871571871045
1355.5880625742195,1355.5880625742195,0.9998177822255713,0.00015807428370447904
1355.5950071337022,1355.5950071337022,1.0002209704998033,0.00015809899417296424
1355.6019516931385,1355.6019516931385,0.9999522636811458,0.00015808010689877375
1355.6088962525282,1355.6088962525282,0.9999138402380879,0.00015809408516671275
1355.6158408118713,1355.6158408118713,0.9997778814660092,0.00015805219684556337
1355.6227853710748,1355.6227853710748,1.000171175744628,0.00015810868400790648
1355.6297299302319,1355.6297299302319,0.9999934295897065,0.00015809061136668647
1355.6366744893887,1355.6366744893887,0.9998180373465289,0.00015808175061497623
1355.6436190485456,1355.6436190485456,1.000225607407107,0.0001580986791682241
1355.6505636075628,1355.6505636075628,1.0000552913590846,0.00015808879734106274
1355.6575081665337,1355.6575081665337,0.9999055662052143,0.0001580695712587586
1355.664452725411,1355.664452725411,1.0002024611206246,0.00015809998328325997
1355.6713972842886,1355.6713972842886,1.0000973306682355,0.00015810058295891383
1355.6783418430728,1355.6783418430728,0.9998718401582517,0.00015809459875283514
1355.6852864017642,1355.6852864017642,0.9999495474236649,0.0001581209121095508
1355.6922309604554,1355.6922309604554,0.9999419405709673,0.0001580983018217564
1355.6991755190534,1355.6991755190534,0.9999308658559963,0.00015809240165397232
1355.706120077605,1355.706120077605,0.9998620193717132,0.0001580933034942451
1355.7130646360633,1355.7130646360633,1.0000411199693156,0.00015808298622629297
1355.720009194522,1355.720009194522,0.9999277996025706,0.0001580904516109251
1355.726953752887,1355.726953752887,1.000131503880393,0.00015810867871756786
1355.733898311159,1355.733898311159,1.0004106023856913,0.0001581324650507552
1355.7408428694314,1355.7408428694314,0.9999023447037733,0.00015811982728399437
1355.7488985569357,1355.7488985569357,1.000087662655573,0.00015810893750022693
1355.7561208973414,1355.7561208973414,1.0000165956999092,0.00015810117035013524
1355.763065455334,1355.763065455334,0.999842869471758,0.0001580822448078178
1355.7700100133268,1355.7700100133268,0.9996825658856137,0.0001580958235569662
1355.7769545713195,1355.7769545713195,0.9997818638001359,0.00015808380281078104
1355.7838991292658,1355.7838991292658,1.0000605607232589,0.00015812230026300173
1355.7908436870723,1355.7908436870723,1.0001899218101375,0.00015810539555079895
1355.7977882448326,1355.7977882448326,1.0000338576130665,0.0001580855334410764
1355.8047328025455,1355.8047328025455,1.0001345227580634,0.00015810961476280322
1355.8116773602121,1355.8116773602121,1.0000821737385768,0.00015809866900924543
1355.8186219177862,1355.8186219177862,0.9999700297353911,0.0001580852753177012
1355.825566475313,1355.825566475313,0.9999623653845561,0.00015808160549858787
1355.832511032747,1355.832511032747,0.9999598148844839,0.00015808621764494549
1355.8394555901814,1355.8394555901814,1.0001548788376793,0.00015811762034512072
1355.8464001475681,1355.8464001475681,1.000015806317765,0.00015813089656063227
1355.8533447048628,1355.8533447048628,0.9999099703610792,0.00015809126088321611
1355.8602892621107,1355.8602892621107,0.9996789348115026,0.00015809956257795477
1355.867233819265,1355.867233819265,0.9998798514574407,0.00015810765501044264
1355.874178376373,1355.874178376373,1.0002194410969099,0.00015811364750308824
