time,time,flux,flux_err
1570.3184325393108,1570.3184325393108,1.0014502861838421,0.0011077854685727399
1570.3264882486303,1570.3264882486303,0.9993914200104183,0.0011022327838494756
1570.333432825731,1570.333432825731,0.9992842581463455,0.0010966412299746272
1570.3403774029248,1570.3403774029248,0.999761108524256,0.0010921467602245443
1570.3487108956078,1570.3487108956078,0.999998014339225,0.001087152346652505
1570.3556554729175,1570.3556554729175,0.9991713277929082,0.0010830311688933762
1570.3634333995954,1570.3634333995954,0.9995813431839089,0.001078349119702169
1570.3709335432607,1570.3709335432607,0.9997604392259539,0.0010738210517774014
1570.3792670362695,1570.3792670362695,1.001577532929589,0.0010687864010506482
1570.387322746311,1570.387322746311,0.9992103095509087,0.0010643899368842932
1570.395100673315,1570.395100673315,0.9989521743461882,0.0010603119261653091
1570.40426751588,1570.40426751588,1.0009413917821337,0.0010559864509894763
1570.4112120937016,1570.4112120937016,0.999728288286678,0.0010532786651459773
1570.4181566715702,1570.4181566715702,1.0003161467741617,0.0010500913380813682
1570.4262123819608,1570.4262123819608,1.0002062663271893,0.0010467997844266323
1570.4348236586832,1570.4348236586832,0.9997796482688613,0.001043833307680249
1570.4459349836036,1570.4459349836036,0.9995362681942886,0.0010409133683083357
1570.4528795617282,1570.4528795617282,0.9993868501353939,0.0010389141608340281
1570.4598241399226,1570.4598241399226,0.9990209338251977,0.0010363314080352602
1570.4667687181409,1570.4667687181409,1.0008581637698768,0.0010357624686854762
1570.4737132965222,1570.4737132965222,0.9995715354149686,0.0010343998831979788
1570.4806578748328,1570.4806578748328,0.9983558500150268,0.0010322845792281488
1570.4876024532364,1570.4876024532364,1.001416270913353,0.0010303934569481314
1570.4945470317102,1570.4945470317102,1.0002442800440685,0.0010302138224526224
1570.5014916102084,1570.5014916102084,1.0003144068574363,0.0010277408072225673
1570.508436188752,1570.508436188752,0.9997656847432586,0.001026363630266995
1570.5153807673655,1570.5153807673655,0.9984114254066672,0.0010247947855634436
1570.5228809123096,1570.5228809123096,0.9989017711632243,0.001023300712824238
1570.5306588404549,1570.5306588404549,1.0002268524018239,0.0010228603974883155
1570.5378812023866,1570.5378812023866,1.000995879904968,0.001021290610661318
1570.547325829501,1570.547325829501,0.9991940239651994,0.0010197142238714742
1570.554270408394,1570.554270408394,1.0010103391731278,0.001019838930071547
1570.5612149873098,1570.5612149873098,0.999198601570944,0.0010184487783113205
1570.5681595662502,1570.5681595662502,1.000842890809565,0.0010182386045237994
1570.5751041452597,1570.5751041452597,0.9994594544256671,0.0010166724853367464
1570.5820487242688,1570.5820487242688,1.0011738179798044,0.0010159328405944664
1570.5889933033716,1570.5889933033716,0.9994541873028979,0.001014918652780241
1570.5959378824502,1570.5959378824502,1.000900732302807,0.0010146067913634554
1570.6028824616237,1570.6028824616237,1.0001396762034704,0.0010134987473739288
1570.6112159566817,1570.6112159566817,0.9992805524752182,0.001012570998837845
1570.6181605359006,1570.6181605359006,0.999510257431185,0.001011282656091321
1570.6251051151894,1570.6251051151894,0.9996432408139041,0.0010106994730466373
1570.6334386103638,1570.6334386103638,1.0007492779546492,0.001009074386786543
1570.6403831897699,1570.6403831897699,0.9981288621327458,0.0010078689312634115
1570.6473277690816,1570.6473277690816,0.9994495968465831,0.0010070940613489342
1570.6542723485566,1570.6542723485566,0.999053694179018,0.00100635364333019
1570.661216928055,1570.661216928055,1.0007129521013398,0.0010054729357443068
1570.6681615075536,1570.6681615075536,1.0008916813630244,0.0010039382994848699
1570.6751060870756,1570.6751060870756,1.0007806362174747,0.0010030766036074812
1570.682050666644,1570.682050666644,1.0004807068947392,0.0010019821899217864
1570.6889952462816,1570.6889952462816,0.9994923152145418,0.0010005338819346868
1570.6959398259194,1570.6959398259194,0.9998028227222946,0.0009999638469008637
1570.7028844055815,1570.7028844055815,1.0004782275337072,0.0009976816326657608
1570.709828985313,1570.709828985313,0.998493786990322,0.0009965089315617218
1570.7167735650207,1570.7167735650207,1.0004516639203616,0.0009951911563419304
1570.7237181447983,1570.7237181447983,0.9996328777282729,0.0009943093951386539
1570.730662724599,1570.730662724599,0.9997036907860156,0.0009927708097868557
1570.7376073044243,1570.7376073044243,1.0002756820249958,0.0009912757062918328
1570.7445518842953,1570.7445518842953,1.0006168241520181,0.0009907711717849618
1570.7514964641657,1570.7514964641657,1.000026764077153,0.0009878039922810924
1570.7584410441063,1570.7584410441063,1.0004104182459277,0.000986514906905804
1570.7653856240236,1570.7653856240236,1.0004360264458998,0.0009855851221585122
1570.7723302040351,1570.7723302040351,0.9995324927308709,0.0009841336920882026
1570.7792747840458,1570.7792747840458,0.9995544140032113,0.0009821265273432683
1570.7862193640563,1570.7862193640563,1.0006742302115468,0.0009825855924742448
1570.7931639440667,1570.7931639440667,0.9983414107741126,0.0009809622771427176
1570.8001085241935,1570.8001085241935,1.0002029179130776,0.000979658167098216
1570.8070531042745,1570.8070531042745,1.000352737522252,0.0009792492436749437
1570.8139976844018,1570.8139976844018,1.000612054898438,0.000978040361218253
1570.8209422645518,1570.8209422645518,1.0005348039221684,0.0009778431141998878
1570.8278868447485,1570.8278868447485,1.000690666579222,0.000977027515362094
1570.8348314249454,1570.8348314249454,0.9993815543157412,0.000975595984920772
1570.8417760051893,1570.8417760051893,0.9993099642096988,0.0009750138302341653
1570.848720585433,1570.848720585433,0.9998620100228888,0.0009751187622357436
1570.8556651656995,1570.8556651656995,0.9987267967443207,0.0009737277880606827
1570.8626097460128,1570.8626097460128,1.0015090236666324,0.0009737963134189909
1570.8695543263025,1570.8695543263025,0.9988133336342632,0.000973068305790258
1570.877054473087,1570.877054473087,0.9995894621648939,0.0009731781952079657
1570.884832403095,1570.884832403095,1.001301594388174,0.0009722608899878953
1570.8917769834777,1570.8917769834777,1.0008044602873594,0.0009712165130777715
1570.8987215638845,1570.8987215638845,0.999873182647877,0.0009705007126464358
1570.9056661443135,1570.9056661443135,0.9990561826181983,0.0009691547989933655
1570.9126107247441,1570.9126107247441,1.000749874773625,0.0009690930925959138
1570.9195553052207,1570.9195553052207,0.999772190338529,0.0009684170638973716
1570.9264998856966,1570.9264998856966,1.0005063025018324,0.000967319759172309
1570.9334444662193,1570.9334444662193,0.9997797495293582,0.00096669146262148
1570.9403890466954,1570.9403890466954,0.99954975138173,0.0009661784343954026
1570.9473336272888,1570.9473336272888,0.9994341783721522,0.0009654132810319527
1570.954278207812,1570.954278207812,1.0007661061021669,0.000964918273282154
1570.9612227883576,1570.9612227883576,0.9995707948291516,0.00096458698104676
1570.9681673689497,1570.9681673689497,1.0004635879262644,0.0009632153432423028
1570.9751119495425,1570.9751119495425,1.0004937845795372,0.0009631476634469657
1570.9820565302523,1570.9820565302523,0.9986444374683037,0.0009612144690004756
1570.989001110845,1570.989001110845,1.0012070407138605,0.000961041532789627
1570.9959456915076,1570.9959456915076,0.999552543251055,0.0009610904566445394
1571.0028902721697,1571.0028902721697,1.0002562436267768,0.0009590480825652859
1571.0098348528554,1571.0098348528554,1.0000111760674488,0.0009595072603625987
1571.016779433565,1571.016779433565,0.9992753186456493,0.0009577157298192006
1571.0237240142746,1571.0237240142746,0.9991214673031894,0.0009567894086865878
1571.0306685950068,1571.0306685950068,1.0000958781797598,0.0009568777796725852
1571.037613175739,1571.037613175739,1.0017626769865515,0.0009555317351482085
1571.044557756471,1571.044557756471,1.000325096149234,0.0009554074723639057
1571.0515023372732,1571.0515023372732,1.0006068590726986,0.000955118195044891
1571.0584469180064,1571.0584469180064,0.9990668543214388,0.0009536983730140513
1571.065391498832,1571.065391498832,0.9993483602291565,0.0009531303530807189
1571.0723360796342,1571.0723360796342,0.9992679533996963,0.0009525396561118795
1571.079280660436,1571.079280660436,0.9994493018923223,0.0009508238497223884
1571.0862252412614,1571.0862252412614,0.9997519253586347,0.000950018611067369
1571.0931698220877,1571.0931698220877,1.001160669735535,0.0009492220574165896
1571.1001144029601,1571.1001144029601,1.0001252220450172,0.0009479183681226451
1571.1070589838087,1571.1070589838087,1.0015097706365519,0.0009482381584469039
1571.1140035646802,1571.1140035646802,0.9999793532566559,0.0009465829354483128
1571.1209481455755,1571.1209481455755,0.9981833565253201,0.0009456398002274564
1571.1278927264482,1571.1278927264482,1.000329524471335,0.0009453383889151788
1571.1348373073438,1571.1348373073438,0.999933431331024,0.0009445590699708476
1571.1417818882624,1571.1417818882624,1.0002713530639984,0.0009443968630425912
1571.1487264691573,1571.1487264691573,1.0009055165990592,0.0009436967813246218
1571.1556710500988,1571.1556710500988,0.999210402874321,0.0009433614176459285
1571.1626156310183,1571.1626156310183,1.0000241421817062,0.0009422433711236691
1571.1695602119603,1571.1695602119603,1.0002935971859195,0.0009426055201350138
1571.1765047929255,1571.1765047929255,0.9993402935485518,0.0009415749107323455
1571.1834493738907,1571.1834493738907,0.9995990036288551,0.0009422183218180114
1571.190393954832,1571.190393954832,1.0011778711679828,0.0009413592031189369
1571.1973385357976,1571.1973385357976,0.9994790567872833,0.0009408378241581182
1571.2042831167869,1571.2042831167869,0.9996169302474781,0.0009406234456187017
1571.211227697775,1571.211227697775,1.001183594869519,0.000940273857895806
1571.2181722787636,1571.2181722787636,0.9999914569905577,0.0009396538513574464
1571.2251168597747,1571.2251168597747,0.9991527246153593,0.0009395606939241994
1571.2320614407633,1571.2320614407633,0.9989785082480053,0.000939714334007482
1571.2390060217763,1571.2390060217763,1.0004325180706786,0.0009388077938435682
1571.245950602811,1571.245950602811,1.0001028855346707,0.0009379552038714528
1571.2528951838228,1571.2528951838228,1.0002737950351517,0.0009379696397056386
1571.2598397648344,1571.2598397648344,1.0004943186621749,0.0009379923028383773
1571.2667843458926,1571.2667843458926,0.99844592374013,0.0009371043064518435
1571.2737289269278,1571.2737289269278,1.000667774094746,0.0009369801827241791
1571.28067350794,1571.28067350794,1.00024258648833,0.000936602527639723
1571.2876180889984,1571.2876180889984,1.0005240382156113,0.0009358319895024206
1571.294562670033,1571.294562670033,1.000093141516097,0.0009364138759963145
1571.3015072510912,1571.3015072510912,1.0022504770401497,0.0009351987072730489
1571.3084518321498,1571.3084518321498,0.9992258343839028,0.0009349632597559058
1571.3153964132089,1571.3153964132089,0.9988360667674654,0.0009330025996875265
1571.322340994267,1571.322340994267,1.000097158656152,0.0009342862968705628
1571.329285575325,1571.329285575325,0.9985138104250293,0.0009324651158360136
1571.336230156383,1571.336230156383,1.000212455665654,0.0009322439030580814
1571.3431747374648,1571.3431747374648,1.000113703483336,0.0009315260340502979
1571.3501193185236,1571.3501193185236,0.999100215235794,0.0009307315436991239
1571.3570638996055,1571.3570638996055,1.0023329409183823,0.0009313479975905847
1571.3640084806639,1571.3640084806639,1.0000340625027464,0.0009302558326259533
1571.3709530617448,1571.3709530617448,0.9987773152960809,0.0009287461319065504
1571.3778976428266,1571.3778976428266,1.0007043917229903,0.0009290854877697664
1571.3848422239084,1571.3848422239084,0.9995921160772475,0.0009280902626926265
1571.3917868049905,1571.3917868049905,0.9992947464826729,0.000927422992753813
1571.398731386072,1571.398731386072,0.9994197208520156,0.0009280816907103678
1571.4056759671303,1571.4056759671303,1.0005694956284572,0.0009264971667815562
1571.4126205482116,1571.4126205482116,1.0014362718791074,0.0009271393091744859
1571.4195651292935,1571.4195651292935,0.9999243591728911,0.0009255133444608799
1571.4265097103753,1571.4265097103753,1.0000639686814556,0.0009254901592185775
1571.4334542914573,1571.4334542914573,0.998697625313984,0.0009257022808827426
1571.440398872539,1571.440398872539,1.000753943084081,0.000925288994083201
1571.44734345362,1571.44734345362,0.9992502317316406,0.000925645018294395
1571.4542880347014,1571.4542880347014,1.0010064457790133,0.0009249631548859773
1571.4612326157599,1571.4612326157599,0.9993428669248601,0.0009253489858222413
1571.4681771968658,1571.4681771968658,1.0000338989017272,0.0009245934357840246
1571.475121777924,1571.475121777924,1.0001324697837344,0.000924590058917207
1571.482066359005,1571.482066359005,1.001091034314808,0.0009252401988896839
1571.4890109400635,1571.4890109400635,0.9987682816915789,0.0009244113769149874
1571.4959555211449,1571.4959555211449,1.001289696858067,0.0009252225906604891
1571.502900102204,1571.502900102204,1.000470570569353,0.0009246488729608787
1571.5098446832626,1571.5098446832626,0.9997494206585344,0.0009249180020014503
1571.51678926432,1571.51678926432,0.9981183901767998,0.0009239731262351142
1571.523733845402,1571.523733845402,1.00099578815375,0.0009249118787895489
1571.53067842646,1571.53067842646,1.000472982419161,0.0009243316258400875
1571.5376230074949,1571.5376230074949,1.000733618195674,0.0009243330307726958
1571.5445675885544,1571.5445675885544,0.9993532647293571,0.0009238483518290262
1571.5515121696121,1571.5515121696121,1.0008111190178375,0.0009244871980310157
1571.5584567506473,1571.5584567506473,1.000787225278069,0.0009236963349366004
1571.5654013316823,1571.5654013316823,0.999645034957769,0.0009235279116849295
1571.572345912717,1571.572345912717,0.9995907156752567,0.0009235011821491437
1571.5792904937525,1571.5792904937525,0.9992856526272386,0.0009231951965116279
1571.586235074788,1571.586235074788,0.9990407409028877,0.0009235510755090769
1571.5931796557995,1571.5931796557995,1.000429764144823,0.0009242062291515958
1571.6001242368345,1571.6001242368345,1.000791225996511,0.0009238398576926672
1571.6070688178695,1571.6070688178695,1.0007218264521978,0.000924201864015751
1571.6140133988574,1571.6140133988574,0.999841059335882,0.0009239425029084543
1571.6209579798706,1571.6209579798706,1.0001865949169229,0.0009246505621195927
1571.6279025608592,1571.6279025608592,1.0004885670792951,0.0009245162726858382
1571.6348471418703,1571.6348471418703,0.9990427801559802,0.0009233031245724893
1571.6417917228355,1571.6417917228355,0.9997408891158605,0.0009241062451741172
1571.6487363038236,1571.6487363038236,0.9988115860939025,0.0009227892311052348
1571.655680884812,1571.655680884812,1.0012999242285978,0.0009242198049121177
1571.6626254657785,1571.6626254657785,0.9994001311459193,0.0009232999597329746
1571.6695700467667,1571.6695700467667,0.9990971969878866,0.0009229825175880915
1571.6765146277316,1571.6765146277316,0.9997513336546907,0.000922816311882658
1571.6834592086964,1571.6834592086964,1.0020041612457773,0.000922776176628342
1571.6904037896381,1571.6904037896381,1.0003717066562576,0.0009225317864416556
1571.6973483705806,1571.6973483705806,1.0003710876493124,0.0009227677033960115
1571.7042929514996,1571.7042929514996,1.0006526804919205,0.0009223224635409386
1571.7112375324416,1571.7112375324416,0.9984284474533709,0.0009228353500092138
1571.7181821133831,1571.7181821133831,0.9999563509858653,0.0009229658640683295
1571.7251266942785,1571.7251266942785,0.9996154480590127,0.0009224177238764515
1571.732071275197,1571.732071275197,0.9991337876429096,0.0009221461648247899
1571.739015856093,1571.739015856093,1.000550266498847,0.0009210825414641681
1571.7459604369885,1571.7459604369885,1.0010065838187259,0.0009212838021918815
1571.7529050178605,1571.7529050178605,1.0008693557247423,0.0009212237039866149
1571.7598495987554,1571.7598495987554,0.9990834656889239,0.000921508117968123
1571.7667941796276,1571.7667941796276,0.9996229222912811,0.0009196635763451078
1571.773738760499,1571.773738760499,0.999714424349525,0.0009194316889908391
1571.7806833413492,1571.7806833413492,0.9999026298445223,0.0009204212242553218
1571.787627922198,1571.787627922198,0.9997257174338452,0.0009197418582995949
1571.7945725030463,1571.7945725030463,1.0003163086110738,0.0009193894361695116
1571.8015170838714,1571.8015170838714,1.00091187039633,0.0009184835955664444
1571.8084616646736,1571.8084616646736,1.0001900437013584,0.0009190483784726986
1571.815406245499,1571.815406245499,0.9990849017123221,0.0009182362047033211
1571.8223508263022,1571.8223508263022,1.0008700913609154,0.0009188751633555139
1571.8292954071044,1571.8292954071044,0.9991694475127975,0.0009186848125771113
1571.836239987906,1571.836239987906,1.0002777799223044,0.0009176937863642689
1571.843184568662,1571.843184568662,0.999265413946125,0.0009184316062230858
1571.8501291494406,1571.8501291494406,1.0012153502689638,0.0009184120636781158
1571.857073730173,1571.857073730173,0.9993820195935079,0.0009191760294700021
1571.8640183109528,1571.8640183109528,0.9999973979767314,0.0009183882114461225
1571.8709628916847,1571.8709628916847,0.9995064199660574,0.0009168691080878562
1571.8779074724173,1571.8779074724173,1.0005066108724303,0.0009174900439413375
1571.8848520531262,1571.8848520531262,0.9992911118646385,0.0009183254901208342
1571.891796633835,1571.891796633835,0.9996984990971596,0.0009175965965514049
1571.898741214544,1571.898741214544,1.0006639294627926,0.0009166710835411283
1571.9056857952307,1571.9056857952307,1.0007169044315405,0.0009171781761278631
1571.912630375893,1571.912630375893,0.9994765100917439,0.0009167336170528316
1571.919574956602,1571.919574956602,0.9999144257129731,0.0009175806421109162
1571.9265195372177,1571.9265195372177,0.9999495228106492,0.0009167335830445871
1571.9334641179034,1571.9334641179034,1.0005974942294409,0.0009177129304289847
1571.940408698496,1571.940408698496,0.999676911155559,0.0009173721025118717
1571.947353279113,1571.947353279113,1.0002228970948333,0.0009174639975595264
1571.9542978597988,1571.9542978597988,1.0007763938374372,0.0009178447330389326
1571.9612424403908,1571.9612424403908,1.0001628406726701,0.0009171469430815603
1571.9681870209834,1571.9681870209834,1.0000624037411254,0.0009170553397115104
1571.9751316015759,1571.9751316015759,0.9984385272651138,0.0009170339700167475
1571.9820761820756,1571.9820761820756,0.9989582008174394,0.0009169947045718855
1571.9890207626459,1571.9890207626459,1.0002277624469151,0.0009180848163065751
1571.995965343238,1571.995965343238,1.0007590027889688,0.0009168938876540857
1572.0029099237142,1572.0029099237142,1.0011411927609473,0.0009171398480796721
1572.0098545042604,1572.0098545042604,1.0008564322346722,0.0009158793000482284
1572.0167990847826,1572.0167990847826,0.9991262932214845,0.0009157329696314628
1572.0237436652592,1572.0237436652592,1.0005458097143356,0.0009155650833259585
1572.0306882457596,1572.0306882457596,1.00001249678014,0.0009159020661765641
1572.0376328262355,1572.0376328262355,1.0009366020179584,0.0009159085019547668
1572.0445774066886,1572.0445774066886,0.9985538889151861,0.0009146388403998307
1572.0515219871413,1572.0515219871413,0.9995041864449339,0.0009152111747961838
1572.0584665675703,1572.0584665675703,1.0007901253213658,0.0009151442478166804
1572.0654111480005,1572.0654111480005,1.0006566051752759,0.0009153245947379254
1572.0723557284077,1572.0723557284077,0.9998220136004742,0.0009147901512545454
1572.0793003087906,1572.0793003087906,0.9992808941246141,0.0009149460089309533
1572.086244889197,1572.086244889197,1.0010146722038613,0.0009142753893540906
1572.0931894695564,1572.0931894695564,0.9997630866746936,0.0009143406068121134
1572.1001340499392,1572.1001340499392,1.000624877778638,0.0009150308201242954
1572.1070786302757,1572.1070786302757,0.9993391909412891,0.0009134576283152679
