time,time,flux,flux_err
1410.9113975352082,1410.9113975352082,0.9998876537254803,0.00011118741704545782
1410.9190367521471,1410.9190367521471,0.9998094632611295,0.00010149108205067198
1410.925981494684,1410.925981494684,1.0001737071457713,0.0001015094201559185
1410.9329262370334,1410.9329262370334,0.9999908819839087,0.00010150237582513676
1410.9398709791976,1410.9398709791976,1.0000296424915285,0.0001014992751102695
1410.9468157210817,1410.9468157210817,0.9999335874697243,0.00010149552724198177
1410.9537604627797,1410.9537604627797,1.000071609203499,0.00010148284666732135
1410.9607052042925,1410.9607052042925,1.0001126939112988,0.0001014948233825208
1410.9690388937706,1410.9690388937706,0.9998837184771412,0.00010143584273810812
1410.985150692629,1410.985150692629,1.0000158894068671,0.0001013921670000217
1410.992651012285,1410.992651012285,1.0000851090510376,0.00010146834849068128
1411.0023736487065,1411.0023736487065,0.9991522092969077,0.00010138832828530775
1411.0120962845697,1411.0120962845697,1.0000549704943065,0.00010144030928876469
1411.0190410242187,1411.0190410242187,1.0000985952973214,0.00010144263984251215
1411.0259857637748,1411.0259857637748,0.9999252666814581,0.00010145588676004962
1411.0329305029586,1411.0329305029586,0.9999394381338578,0.00010143350934795985
1411.0398752420483,1411.0398752420483,0.9998834050723737,0.00010140706874806659
1411.0468199808602,1411.0468199808602,0.9996868178160916,0.00010140131650820811
1411.0548758774482,1411.0548758774482,0.9997020976717537,0.00010140235058588754
1411.0620984054244,1411.0620984054244,1.000307616893679,0.00010142346213148578
1411.0690431435835,1411.0690431435835,1.0001710443347995,0.00010142590995858804
1411.075987881463,1411.075987881463,0.9998180253345902,0.00010142112415253957
1411.0829326191572,1411.0829326191572,0.999960152842089,0.00010143886752018831
1411.089877356571,1411.089877356571,0.999936327376908,0.00010140686327783383
1411.096822093799,1411.096822093799,1.0001125057601643,0.00010143029416832527
1411.1037668309336,1411.1037668309336,1.0001208615561858,0.0001014539160256004
1411.1107115676955,1411.1107115676955,0.9997203577984107,0.00010139495366116074
1411.1176563042718,1411.1176563042718,1.000014518313512,0.00010142549845428171
1411.1246010406608,1411.1246010406608,1.0001074678434496,0.00010144148923417198
1411.1315457767712,1411.1315457767712,0.9999730017509922,0.00010138557857056103
1411.1384905127884,1411.1384905127884,0.9999958993016691,0.0001014463616119789
1411.1454352484325,1411.1454352484325,1.0000612562070388,0.00010141140554364669
1411.1523799838917,1411.1523799838917,1.0001003772772663,0.00010143269028281012
1411.1593247191627,1411.1593247191627,1.0000093941599097,0.00010140023235428777
1411.166269454156,1411.166269454156,1.000046632156632,0.00010142206640425947
1411.1732141890554,1411.1732141890554,0.9996377295817404,0.00010135815322387846
1411.1801589236752,1411.1801589236752,1.0000410428570161,0.00010142062475884755
1411.1871036581097,1411.1871036581097,1.0000990582475462,0.00010139690894186964
1411.1940483923568,1411.1940483923568,0.9999196825100034,0.00010140356287884867
1411.2009931262319,1411.2009931262319,1.0000886598651963,0.0001014187015956381
1411.207937860014,1411.207937860014,1.0001320723812175,0.00010141975633268031
1411.214882593516,1411.214882593516,0.9999916805165127,0.0001013858152698548
1411.221827326833,1411.221827326833,0.9999380044341846,0.00010137182522458043
1411.2287720599622,1411.2287720599622,1.000056226646897,0.00010141046128802903
1411.2357167928133,1411.2357167928133,0.9997457760791768,0.00010136692235655079
1411.2426615254776,1411.2426615254776,1.000178058815468,0.0001014075179559197
1411.249606257862,1411.249606257862,1.0002900995499526,0.00010143325827880115
1411.2565509901547,1411.2565509901547,1.0000616503044728,0.00010140931078165374
1411.2634957221667,1411.2634957221667,0.999880539405234,0.00010140496491393815
1411.2704404538067,1411.2704404538067,0.9998087927328999,0.00010140274049920983
1411.2773851855395,1411.2773851855395,0.9999391853888462,0.00010139196842809525
1411.2843299167134,1411.2843299167134,1.0000839390762244,0.00010138860434281396
1411.291274647981,1411.291274647981,0.9995282812163481,0.0001013917910435788
1411.298219378969,1411.298219378969,1.0002180085063093,0.00010141756667331871
1411.3051641096777,1411.3051641096777,0.9998567392672701,0.00010140251860170535
1411.312108840107,1411.312108840107,1.0000462390516895,0.00010141908801519755
1411.3190535703495,1411.3190535703495,1.0001279731781745,0.00010142736834816263
1411.3259983004998,1411.3259983004998,0.9998630141214493,0.00010141704602347614
1411.3329430302765,1411.3329430302765,1.0000244985658369,0.0001014057461706501
1411.3398877599607,1411.3398877599607,0.9998932896191113,0.00010139115849729242
1411.3468324894584,1411.3468324894584,1.0002230331529138,0.00010143171145767377
1411.353777218677,1411.353777218677,1.0000586354030703,0.00010142302125830678
1411.3607219475232,1411.3607219475232,1.0000882861698681,0.0001014274863626717
1411.3676666763683,1411.3676666763683,0.9998371359586798,0.00010138946056990241
1411.3746114049359,1411.3746114049359,0.9998865776878354,0.00010140986206297036
1411.3815561332224,1411.3815561332224,0.9998910140893095,0.0001014479919310618
1411.3885008614166,1411.3885008614166,0.9998053176692716,0.00010138767387709899
1411.3954455893313,1411.3954455893313,0.9999953518296127,0.00010142621676295966
1411.402390317059,1411.402390317059,1.0000253571163267,0.00010139471050352662
1411.4093350445087,1411.4093350445087,1.0001187852152016,0.00010141433605090775
1411.416279771864,1411.416279771864,1.000075663928362,0.0001014214122256242
1411.4232244987543,1411.4232244987543,0.9999898553349839,0.0001013912010595811
1411.430169225924,1411.430169225924,0.999891548638088,0.0001013845550425126
1411.4371139523478,1411.4371139523478,1.0003874989326889,0.0001014130619122089
1411.444058678866,1411.444058678866,0.9999805360451427,0.00010138188436581773
1411.4510034051968,1411.4510034051968,0.9999632524594645,0.0001013689737927149
1411.4579481311557,1411.4579481311557,0.9999798798849355,0.00010139973645332822
1411.4648928570218,1411.4648928570218,0.9999245906582814,0.00010140449401809272
1411.4718375826076,1411.4718375826076,1.00006084332014,0.00010138148825715999
1411.4787823080085,1411.4787823080085,0.9998822331455323,0.00010140192514802754
1411.4857270332218,1411.4857270332218,0.9999712818681479,0.00010141056426879328
1411.4926717582496,1411.4926717582496,1.0000229960538038,0.00010140592528658078
1411.4996164829042,1411.4996164829042,1.0001414813039455,0.00010142674337415402
1411.506561207745,1411.506561207745,0.9998982064017576,0.00010142692719097907
1411.5135059319348,1411.5135059319348,0.9997532548398377,0.00010141415907126974
1411.5204506561238,1411.5204506561238,0.9999134156834877,0.0001013945638984875
1411.527395380034,1411.527395380034,1.000029565983246,0.00010141707244514227
1411.5343401037576,1411.5343401037576,1.0003138723080982,0.00010144957143277843
1411.541284827388,1411.541284827388,1.0000543147835068,0.00010143444624374902
1411.5482295507395,1411.5482295507395,1.0001077293471479,0.00010139145046716267
1411.5551742738107,1411.5551742738107,1.0000207803106582,0.00010142549690138878
1411.5621189967899,1411.5621189967899,0.9998945655237284,0.00010144524292768201
1411.5690637194884,1411.5690637194884,0.9999741741497425,0.00010141321206431054
1411.576008442095,1411.576008442095,0.999867955717947,0.00010140775846298854
1411.5829531643285,1411.5829531643285,0.9998955023689661,0.00010141893522684612
1411.5898978864684,1411.5898978864684,1.0000527742014693,0.0001014539922939319
1411.5968426084232,1411.5968426084232,0.9999506466064603,0.00010143883148119125
1411.603787330097,1411.603787330097,0.9999890178652298,0.00010145269465895969
1411.6107320516794,1411.6107320516794,0.9999802790093743,0.0001014376204249445
1411.6176767729814,1411.6176767729814,1.0000597027785407,0.0001014488016026992
1411.6246214940038,1411.6246214940038,1.0002315940699469,0.00010144966383141553
1411.631566214934,1411.631566214934,0.9999131922169034,0.00010144748274318392
1411.6385109356772,1411.6385109356772,1.0000890242019387,0.00010145683050839858
1411.6454556562344,1411.6454556562344,0.9997702681415955,0.00010143661691895064
1411.652400376419,1411.652400376419,1.0002495774735232,0.00010145322800091724
1411.6593450966966,1411.6593450966966,0.99999714990159,0.00010144297572138792
1411.666289816509,1411.666289816509,0.9998989831996484,0.0001014580690199825
1411.6732345363205,1411.6732345363205,0.999798831060037,0.00010144839923952873
1411.6801792557605,1411.6801792557605,1.0001343658986594,0.00010144732540248178
1411.687123975107,1411.687123975107,1.0000526401760925,0.00010144440830074895
1411.694068694174,1411.694068694174,0.9999245459670074,0.00010146167196112186
1411.7010134131483,1411.7010134131483,1.000033558083775,0.00010144846769890103
1411.707958131749,1411.707958131749,1.000026272146476,0.00010144988715511495
1411.714902850444,1411.714902850444,0.9998371453003003,0.00010142838822974687
1411.7218475687655,1411.7218475687655,0.9999959571706792,0.00010145732576262408
1411.7287922868084,1411.7287922868084,0.9999457764793981,0.00010144073185156526
1411.7357370048508,1411.7357370048508,1.0002003785580986,0.00010145439479292953
1411.742681722614,1411.742681722614,0.9999898155647117,0.00010143659362748444
1411.7496264402844,1411.7496264402844,1.0001170344607992,0.00010145740924021188
1411.7565711574885,1411.7565711574885,0.9999742782703539,0.00010144812026485482
1411.7635158746934,1411.7635158746934,0.9999099439621949,0.00010145583345246118
1411.770460591618,1411.770460591618,1.0000788110523062,0.00010148935542009309
1411.7774053085432,1411.7774053085432,0.999919220426728,0.00010144454639451626
1411.7843500250024,1411.7843500250024,0.9999357731170188,0.00010146427217351704
1411.7912947413681,1411.7912947413681,1.0002790472465128,0.0001014772375442067
1411.7982394576418,1411.7982394576418,0.9999562709514056,0.00010147908677848221
1411.805184173635,1411.805184173635,1.000074962833458,0.0001014834811794098
1411.8121288895359,1411.8121288895359,1.0001330586169126,0.00010145516195130954
1411.819073605157,1411.819073605157,0.9997318565007545,0.00010145087720638088
1411.8260183204984,1411.8260183204984,1.0001545001019,0.00010146847153877302
1411.8329630356548,1411.8329630356548,0.9998649946838768,0.0001014635645671315
1411.8399077508093,1411.8399077508093,0.9999651306038215,0.00010144624181244655
1411.8468524657794,1411.8468524657794,1.0001930542958268,0.00010146550147696053
1411.8537971804685,1411.8537971804685,1.0000611026071602,0.00010147786193872907
1411.8607418950653,1411.8607418950653,0.9999821720703915,0.0001014733222010944
1411.8676866092896,1411.8676866092896,0.9999992828317783,0.00010147288990692833
1411.87463132342,1411.87463132342,1.0000635499537376,0.00010146823591020977
1411.8815760373657,1411.8815760373657,0.9999687191016322,0.00010147820921265103
1411.8885207511235,1411.8885207511235,0.9998009805805582,0.0001014614513308758
1411.8954654646964,1411.8954654646964,1.000333606890985,0.00010149524733137557
1411.902410178082,1411.902410178082,1.000082055650183,0.0001014770471924582
1411.909354891189,1411.909354891189,0.9999327897976231,0.00010145876130257998
1411.9162996043885,1411.9162996043885,1.0000801143712692,0.00010147353681000443
1411.9232443172154,1411.9232443172154,0.9995895304750565,0.00010143561216207442
1411.9301890296706,1411.9301890296706,0.9998879128145253,0.00010148004781464977
1411.9371337422178,1411.9371337422178,1.0001794805587323,0.00010146892008614941
1411.9440784544868,1411.9440784544868,1.0001690568545025,0.00010146913484729669
1411.9510231665686,1411.9510231665686,1.000082286191664,0.00010148268792997918
1411.9579678784642,1411.9579678784642,1.000102755353978,0.00010148054965458434
1411.964912590174,1411.964912590174,0.999990243512413,0.0001014880275945376
1411.971857301697,1411.971857301697,0.9998550615013009,0.00010147580010342683
1411.9788020131277,1411.9788020131277,1.0006835494025617,0.00010148761265736661
1411.9857467241852,1411.9857467241852,1.0000260692320593,0.00010147373079617201
1411.9926914352432,1411.9926914352432,0.999975777838665,0.00010147237462199195
1411.9996361460214,1411.9996361460214,0.9998956682942728,0.00010144124630173844
1412.0065808567992,1412.0065808567992,1.000121135759255,0.00010150741327339802
1412.0135255672055,1412.0135255672055,0.9998185651595823,0.0001014785199715589
1412.0204702773312,1412.0204702773312,0.9998650646386672,0.00010146928322766536
1412.027414987458,1412.027414987458,1.0002927132454007,0.00010149163786741613
1412.0343596973978,1412.0343596973978,1.0001346853958935,0.00010148189825072934
1412.0413044071518,1412.0413044071518,1.000088292538062,0.00010147638462437681
1412.0482491166263,1412.0482491166263,0.9999667957526441,0.00010143260644231034
1412.0551938260073,1412.0551938260073,1.0000023491480365,0.00010146663571481264
1412.062138535203,1412.062138535203,0.9998940454862947,0.00010147271263483213
1412.0690832443042,1412.0690832443042,0.9997419387768864,0.00010147084089043927
1412.0760279531276,1412.0760279531276,0.9999836355634333,0.00010148707161216283
1412.082972661763,1412.082972661763,0.999880408496772,0.00010147881470826264
1412.0899173702132,1412.0899173702132,1.000250231350006,0.00010149256178216355
1412.0968620783838,1412.0968620783838,1.0002251057376637,0.00010148927479803534
1412.103806786554,1412.103806786554,1.000055402160914,0.00010148940353828901
1412.1107514946323,1412.1107514946323,0.9999533647442146,0.00010148102239082905
1412.1176962023367,1412.1176962023367,0.9998225004302629,0.00010149292036469687
1412.1246409099485,1412.1246409099485,1.000017699474068,0.00010149257282446227
1412.131585617374,1412.131585617374,0.9998391028081285,0.00010146205504549016
1412.1385303247066,1412.1385303247066,1.0001813087230502,0.00010149297532740114
1412.1454750317596,1412.1454750317596,0.9999314388495846,0.00010146343316255472
1412.152419738626,1412.152419738626,1.0001367872615752,0.0001015083941200558
1412.1593644454001,1412.1593644454001,0.9999180169480881,0.0001014545528309184
1412.166309151987,1412.166309151987,1.0002742955959356,0.00010150418527441135
1412.173253858295,1412.173253858295,0.9999748332831462,0.0001014830344562337
1412.1801985645097,1412.1801985645097,0.9999426188480103,0.00010147900401714966
1412.1871432706316,1412.1871432706316,0.9998470514387746,0.00010148932301756235
1412.1940879764738,1412.1940879764738,0.999941642859184,0.00010147703790755378
1412.2010326822224,1412.2010326822224,1.0000439866043933,0.0001014996397447459
1412.2079773876928,1412.2079773876928,1.000133345590483,0.00010150093835868432
1412.2149220929757,1412.2149220929757,0.9999434179178923,0.00010149493109232782
1412.2218667981665,1412.2218667981665,1.0001474406088715,0.00010150162777073334
1412.2288115031706,1412.2288115031706,1.0001588410412758,0.00010149855671627353
1412.2357562080815,1412.2357562080815,0.9999186752160183,0.00010149772407305743
1412.2427009127134,1412.2427009127134,0.9998138421632821,0.0001014648440513837
1412.249645617158,1412.249645617158,0.9997738612082705,0.00010145170963372075
1412.2574236860255,1412.2574236860255,0.9998781398305912,0.00010145120215351825
1412.2660351191275,1412.2660351191275,0.9998372923944217,0.00010135728515026515
1412.27603549284,1412.27603549284,1.0002028962264007,0.0001014581677946536
1412.2874248066032,1412.2874248066032,1.0001332603078956,0.00010139552952191286
1412.2954806626785,1412.2954806626785,0.9993772846179741,0.00010140990650000697
1412.3024253658205,1412.3024253658205,1.0000454260703302,0.00010146993915043766
1412.3093700689617,1412.3093700689617,1.0000649126589276,0.00010146279615905226
1412.3163147718237,1412.3163147718237,0.9998208229919285,0.00010144508994649269
1412.3232594744998,1412.3232594744998,1.0000337401266308,0.00010149387745562536
1412.3302041770821,1412.3302041770821,1.0000181407416842,0.00010143203126572041
1412.337148879479,1412.337148879479,0.9999170187371963,0.00010148534150545199
1412.3440935816884,1412.3440935816884,1.0001376648368363,0.00010147857947715667
1412.3510382836198,1412.3510382836198,0.9999066632301112,0.00010143871059607261
1412.357982985643,1412.357982985643,1.000022028469358,0.00010144226818973505
1412.364927687295,1412.364927687295,1.0001986973361914,0.00010144817453215743
1412.3718723887598,1412.3718723887598,0.9998150892717852,0.0001014544766905486
1412.378817090411,1412.378817090411,0.9998526920008093,0.00010148117309308445
1412.385761791597,1412.385761791597,0.9999498363484818,0.00010148706215363024
1412.3927064925958,1412.3927064925958,1.0001193761218081,0.00010147790878449951
1412.399651193503,1412.399651193503,1.0000173180183909,0.0001014863434554423
1412.4065958941294,1412.4065958941294,1.0003860768206274,0.00010149046937383854
1412.4135405947563,1412.4135405947563,0.9999470583129757,0.00010144000867752317
1412.4204852951966,1412.4204852951966,0.9999966845689572,0.00010143423416352057
1412.4274299953581,1412.4274299953581,0.9996752497995341,0.00010146383160660467
1412.4343746956124,1412.4343746956124,1.000023841760722,0.0001014884664707608
1412.441319395401,1412.441319395401,0.9999469519162352,0.00010149561291033033
1412.4482640950969,1412.4482640950969,1.0004265243400934,0.00010148103129214067
1412.455208794792,1412.455208794792,0.9999195325583019,0.00010145387336512864
1412.4621534942085,1412.4621534942085,0.9998318321806192,0.00010143332914654203
1412.4690981935314,1412.4690981935314,0.999894521030841,0.0001014371066780832
1412.4760428925752,1412.4760428925752,1.0003188949270791,0.00010146653242412655
1412.4829875914322,1412.4829875914322,0.9999860465656976,0.0001014123882712901
1412.4899322902893,1412.4899322902893,0.9999656523346095,0.00010147527618357361
1412.4968769890543,1412.4968769890543,0.9998362607952892,0.00010147245639537392
1412.5038216874452,1412.5038216874452,0.9998609572240721,0.00010144513398002379
1412.5107663857448,1412.5107663857448,1.000085801013388,0.00010148096074570356
1412.5177110838565,1412.5177110838565,0.9999584595407411,0.00010148142405814431
1412.524655781876,1412.524655781876,1.000485475240493,0.00010151408994152312
1412.531600479802,1412.531600479802,1.000115643356791,0.0001015028556454631
1412.5385451774482,1412.5385451774482,0.9997059344111762,0.00010146973959071066
1412.545489874909,1412.545489874909,1.000166401170286,0.00010150719797699244
1412.5524345723688,1412.5524345723688,0.9998526368885214,0.00010147958961767938
1412.5593792694572,1412.5593792694572,1.0002112219208306,0.00010150755851316047
1412.5663239665448,1412.5663239665448,0.9999248570963168,0.00010148131632576772
1412.5732686635397,1412.5732686635397,1.0001308023819695,0.00010150182566220597
1412.5802133600687,1412.5802133600687,0.9998141644765728,0.00010148814369704213
1412.587158056598,1412.587158056598,1.0000451832082595,0.00010149342068218382
1412.5941027531271,1412.5941027531271,1.0000236538336704,0.00010150652537958536
1412.6010474494694,1412.6010474494694,0.999911256333697,0.00010147831808664759
1412.6079921455334,1412.6079921455334,1.0002124363425393,0.00010150100276093233
1412.6149368415029,1412.6149368415029,1.0000932053311842,0.00010148944633288207
1412.6218815372874,1412.6218815372874,1.000029605238376,0.00010149141678411934
1412.6288262328849,1412.6288262328849,0.9999066727085161,0.00010143427385525434
1412.6357709284825,1412.6357709284825,1.0000362618855867,0.00010148366023237155
1412.6427156238012,1412.6427156238012,0.9998681913252991,0.00010148150051728677
1412.6496603189332,1412.6496603189332,1.0000404376200855,0.00010149441624347372
1412.6566050139725,1412.6566050139725,1.000078656618435,0.00010149838641533653
1412.6635497088246,1412.6635497088246,0.999946799899954,0.0001014944477984588
1412.6704944034916,1412.6704944034916,0.9999124101959003,0.00010149147550499602
1412.6774390979713,1412.6774390979713,0.9999692610722557,0.00010149474254392498
1412.684383792638,1412.684383792638,0.9997246363679819,0.00010141812942175468
