time,time,flux,flux_err
1571.1124929919044,1571.1124929919044,1.0001816167830084,0.00012445663654967728
1571.1208263691726,1571.1208263691726,0.9998182348685192,0.00012435635809767852
1571.1284652983366,1571.1284652983366,0.9999304847018685,0.00011346382973279952
1571.1354097793949,1571.1354097793949,0.9999608560652582,0.00011341359112623415
1571.142354260452,1571.142354260452,1.0000531014346918,0.0001133709357076998
1571.1492987415097,1571.1492987415097,0.9998669076336769,0.00011331138830363038
1571.1562432222877,1571.1562432222877,1.000203249311485,0.0001132826615918378
1571.1631877031589,1571.1631877031589,0.9998435945600684,0.00011321854290140298
1571.1701321842172,1571.1701321842172,1.0000949248408382,0.00011318912846647504
1571.1770766652749,1571.1770766652749,1.0000496913378139,0.0001131511009413926
1571.1840211459598,1571.1840211459598,1.0000658051328422,0.00011311322547782338
1571.1909656269238,1571.1909656269238,1.0000706664202414,0.00011309118576587547
1571.197910107981,1571.197910107981,0.9999649463536929,0.0001130422077775499
1571.204854588574,1571.204854588574,0.9999578313716129,0.00011301960487993959
1571.2117990696318,1571.2117990696318,1.0000234798166243,0.00011298998604952694
1571.2187435503165,1571.2187435503165,1.000049152458814,0.00011296543019922302
1571.2256880312805,1571.2256880312805,0.9997625199893923,0.00011290697372057376
1571.2326325119654,1571.2326325119654,0.9998483100606457,0.00011288361660337206
1571.2395769929306,1571.2395769929306,1.00010312143866,0.00011287944756420467
1571.2465214735228,1571.2465214735228,1.0002204255981875,0.00011285347074720166
1571.253465954394,1571.253465954394,0.9999759118946834,0.00011282021996377909
1571.260410435172,1571.260410435172,1.0000119068404514,0.0001127940219382829
1571.2673549157637,1571.2673549157637,1.0001588322616501,0.00011275359490460028
1571.2742993965421,1571.2742993965421,0.9999836105467133,0.00011273133217341161
1571.2812438772278,1571.2812438772278,0.9999518227023495,0.00011269617543375992
1571.2881883579125,1571.2881883579125,1.0000171266776534,0.00011265785803943745
1571.2951328385977,1571.2951328385977,0.9998528980421858,0.00011262958013253494
1571.302077319189,1571.302077319189,0.999883312876333,0.00011260270425750437
1571.309021799781,1571.309021799781,0.9999468054387457,0.00011256406145887861
1571.3159662803737,1571.3159662803737,1.0000074842874103,0.00011253187824090003
1571.3229107609654,1571.3229107609654,1.000148576521347,0.00011250438028770292
1571.3298552415577,1571.3298552415577,0.9998616023972081,0.0001124492354101991
1571.3367997220557,1571.3367997220557,1.0000874330815388,0.00011242434618284151
1571.3437442025545,1571.3437442025545,1.000210740981537,0.00011239120066854919
1571.350688683054,1571.350688683054,0.9999192167518747,0.00011233977587386591
1571.357633163553,1571.357633163553,1.000297915143125,0.00011232446290494139
1571.3645776439585,1571.3645776439585,0.9999093235475082,0.00011227082293637288
1571.3715221243642,1571.3715221243642,0.9998437084392119,0.00011222925751014309
1571.3784666047693,1571.3784666047693,1.0002780010125933,0.00011222578278621481
1571.3854110851748,1571.3854110851748,0.9999744680717431,0.00011217605599211069
1571.3923555654885,1571.3923555654885,0.9997570228281791,0.00011212711866718985
1571.3993000458008,1571.3993000458008,0.9999088037056542,0.00011210726624303785
1571.4062445262061,1571.4062445262061,0.9999915008381366,0.00011208336357631421
1571.4131890064255,1571.4131890064255,1.0001028063910238,0.00011205967376324945
1571.4201334866448,1571.4201334866448,0.9999618223424853,0.00011201800656415388
1571.427077966864,1571.427077966864,0.9999103940132459,0.00011199311170726099
1571.434022447084,1571.434022447084,0.9999970090376614,0.00011199624884038133
1571.4409669273039,1571.4409669273039,1.0001705814768744,0.00011197006737113584
1571.4479114074295,1571.4479114074295,0.9999953521398952,0.00011193896788842317
1571.4548558875556,1571.4548558875556,1.0000283181840102,0.00011193733511763373
1571.4618003675882,1571.4618003675882,0.9999954708437319,0.00011191666649802351
1571.4687448477155,1571.4687448477155,1.0001021181436092,0.00011190901409121946
1571.4756893277488,1571.4756893277488,0.9999576290005271,0.00011190277671818436
1571.4826338076884,1571.4826338076884,0.9999109763318706,0.00011189231173870377
1571.4895782876285,1571.4895782876285,1.0001408608459068,0.00011190440803693857
1571.4965227677546,1571.4965227677546,0.9999073259538207,0.00011188615063105619
1571.5034672476015,1571.5034672476015,0.999905808488234,0.0001118869161902216
1571.510411727542,1571.510411727542,1.0000696013479298,0.00011188227895746436
1571.5173562073887,1571.5173562073887,0.9999945285605989,0.000111870658493158
1571.5243006871424,1571.5243006871424,1.0001814873853405,0.00011187450266027887
1571.5312451669893,1571.5312451669893,0.9997812090304141,0.00011184405233792491
1571.5381896467425,1571.5381896467425,0.9998899612039285,0.0001118477830861836
1571.5451341264973,1571.5451341264973,1.0001310418433598,0.0001118451072140587
1571.552078606158,1571.552078606158,1.000044857627794,0.00011183743847504714
1571.5590230859111,1571.5590230859111,0.9999438903585162,0.00011184378643168194
1571.565967565572,1571.565967565572,0.9999204543493174,0.00011182714147904557
1571.572912045232,1571.572912045232,1.000160248639041,0.00011183586891540506
1571.5798565247064,1571.5798565247064,0.9999226113371092,0.00011182352576762786
1571.586801004368,1571.586801004368,1.0000000239337328,0.00011181115055376129
1571.5937454838418,1571.5937454838418,1.000099094308652,0.00011181368008087703
1571.6006899634094,1571.6006899634094,1.000060114826689,0.0001118153964227953
1571.6076344426972,1571.6076344426972,1.000049531057659,0.00011180074396904378
1571.6145789222644,1571.6145789222644,0.9998045605577464,0.00011178378057698018
1571.621523401553,1571.621523401553,0.9998790196557555,0.00011177872998626467
1571.628467881028,1571.628467881028,0.9999887710283364,0.00011178590732877377
1571.6354123603157,1571.6354123603157,1.000206557686582,0.00011178266780302643
1571.6423568396035,1571.6423568396035,0.9997991065623919,0.00011176741973645728
1571.649301318798,1571.649301318798,1.0001372619877498,0.0001117836176343953
1571.656245797993,1571.656245797993,0.9999770537914587,0.00011176067613659815
1571.6631902771887,1571.6631902771887,1.0000004645002403,0.0001117485528398962
1571.6701347563837,1571.6701347563837,1.0000503743339504,0.0001117486018378903
1571.6770792354855,1571.6770792354855,0.9999320087504356,0.0001117443595947377
1571.6840237144934,1571.6840237144934,1.0001197244879907,0.00011174441642550533
1571.6909681936886,1571.6909681936886,0.9999483275448864,0.00011171337904694828
1571.6979126726042,1571.6979126726042,1.0000102627805298,0.00011171611784059596
1571.7048571516134,1571.7048571516134,1.0000080575637709,0.00011171134559319724
1571.7118016304357,1571.7118016304357,0.9999523815240579,0.00011169662252899561
1571.7187461095375,1571.7187461095375,0.9998629293359752,0.00011167491684084881
1571.7256905882664,1571.7256905882664,1.0000542451811352,0.00011167434140841798
1571.7326350669957,1571.7326350669957,0.9999050393005193,0.00011164741055498086
1571.739579545725,1571.739579545725,1.000015089972066,0.00011164076218690886
1571.746524024455,1571.746524024455,1.0002013864851438,0.00011163716803401376
1571.7534685031842,1571.7534685031842,1.000043791863683,0.00011161083650487182
1571.7604129819133,1571.7604129819133,1.0000154000528167,0.0001115957973814595
1571.7673574606422,1571.7673574606422,1.0002386526655909,0.00011159968206113632
1571.7743019393713,1571.7743019393713,0.9998081705478821,0.00011154807353995521
1571.7812464177284,1571.7812464177284,0.9998114716159143,0.00011153640369261786
1571.788190896365,1571.788190896365,0.9999434918617716,0.00011153038321818861
1571.7951353747217,1571.7951353747217,0.9998419963038403,0.00011151944093175624
1571.8020798532646,1571.8020798532646,1.0001612255599488,0.00011152229486775746
1571.8090243316212,1571.8090243316212,0.9999756952918879,0.00011149207067224873
1571.8159688099774,1571.8159688099774,0.999918454051295,0.00011149524353831803
1571.8229132883348,1571.8229132883348,1.000438917989793,0.00011150117202024939
1571.8298577665987,1571.8298577665987,1.0002949614815655,0.0001114899203600824
1571.8368022448622,1571.8368022448622,0.999955514307388,0.00011144394449122686
1571.8437467230324,1571.8437467230324,0.9999041387835457,0.00011145103456483172
1571.8506912011094,1571.8506912011094,0.9999699611334119,0.00011143659422992974
1571.85763567928,1571.85763567928,0.9998438540261072,0.00011144100406195029
1571.8645801574512,1571.8645801574512,0.9999597914002459,0.00011141739543789901
1571.8715246353422,1571.8715246353422,0.9999652981473789,0.00011141818548499292
1571.8784691133264,1571.8784691133264,1.000108326891883,0.00011142027738811344
1571.8854135913105,1571.8854135913105,1.0000778473992464,0.00011141785883053964
1571.8923580692012,1571.8923580692012,0.9999936455072621,0.00011141553803650983
1571.8993025470922,1571.8993025470922,0.9999504163922204,0.00011141162390403704
1571.9062470249842,1571.9062470249842,1.0001489913685768,0.0001114261142269654
1571.9131915026887,1571.9131915026887,0.9999982118072837,0.0001114164826023297
1571.920135980487,1571.920135980487,1.0001546796262077,0.00011141575206718502
1571.9270804581913,1571.9270804581913,0.9998569932869845,0.00011139355940628901
1571.9340249358029,1571.9340249358029,0.9999123319760181,0.00011140035884079783
1571.9409694134145,1571.9409694134145,0.9999531973501149,0.00011140547874634996
1571.9479138909337,1571.9479138909337,0.9999441273433337,0.00011139210960952445
1571.9548583685457,1571.9548583685457,1.0001099569571548,0.00011139455683916195
1571.9618028459709,1571.9618028459709,1.00012806465484,0.00011138885224100258
1571.9687473233957,1571.9687473233957,1.0000549898491404,0.00011137746496936356
1571.975691800821,1571.975691800821,0.9999583133740458,0.00011137169969912237
1571.9826362781532,1571.9826362781532,1.0000244846666762,0.000111357347411446
1571.9895807554863,1571.9895807554863,0.9999730354745088,0.00011136041056300969
1571.9965252326324,1571.9965252326324,1.0002011441720526,0.00011136995400551479
1572.0034697099643,1572.0034697099643,0.9998938788834723,0.00011134387567963551
1572.0104141871102,1572.0104141871102,0.9998523667547989,0.00011133315593647542
1572.017358664163,1572.017358664163,1.0000505349116378,0.00011133060890005609
1572.0243031412156,1572.0243031412156,0.9999252758211448,0.00011133166586214501
1572.0312476182694,1572.0312476182694,1.000077369916669,0.00011131912937346136
1572.0381920953223,1572.0381920953223,0.9998921730155838,0.00011129910089810685
1572.0451365721888,1572.0451365721888,0.9999000885550204,0.00011129992487260074
1572.0520810490552,1572.0520810490552,1.0000650058773144,0.00011130035766921421
1572.0590255259215,1572.0590255259215,1.0000509504268593,0.0001112862818311118
1572.065970002695,1572.065970002695,1.0001561422192362,0.00011128775819679028
1572.0729144795625,1572.0729144795625,1.0000372066375134,0.00011128408759900428
1572.0798589561496,1572.0798589561496,0.9999756348210687,0.00011127527972549413
1572.0868034328298,1572.0868034328298,1.0000485776126984,0.00011125368641080367
1572.0937479094168,1572.0937479094168,0.9998995899435892,0.00011125552727504028
1572.100692386097,1572.100692386097,1.000276152158409,0.0001112705424827165
1572.1076368624977,1572.1076368624977,0.9998094043554537,0.00011122705325269796
1572.1145813388996,1572.1145813388996,1.0000454318438181,0.00011123755197959568
1572.1215258153009,1572.1215258153009,0.9999865647340958,0.00011122051679519844
1572.1284702917014,1572.1284702917014,0.9999972710704125,0.00011122208711364509
1572.135414768102,1572.135414768102,0.9999870538197342,0.0001112153165175622
1572.142359244503,1572.142359244503,1.0001098948490976,0.00011120027498883099
1572.1493037205312,1572.1493037205312,1.0000930015890082,0.00011121326476029396
1572.1562481968394,1572.1562481968394,0.9998790776415343,0.00011121195992885333
1572.1631926728683,1572.1631926728683,1.0000147109215294,0.00011120718961402543
1572.1701371489896,1572.1701371489896,1.0000368625099207,0.00011120414068919336
1572.1770816250178,1572.1770816250178,1.0000101097401373,0.00011119388412179592
1572.1840261010464,1572.1840261010464,0.9999973297261278,0.00011118830157912999
1572.190970576888,1572.190970576888,1.000112270236212,0.00011118753917502805
1572.1979150528236,1572.1979150528236,0.9999964357808601,0.0001111909956015582
1572.2048595286665,1572.2048595286665,1.0000011445312125,0.00011118001383026932
1572.2118040045084,1572.2118040045084,1.0000603749377448,0.00011118177367839727
1572.2187484801645,1572.2187484801645,0.9999922512451306,0.00011118226642461821
1572.225692955913,1572.225692955913,0.9999899495756418,0.00011115904945189483
1572.2326374314755,1572.2326374314755,0.9999474954377868,0.00011117251145866628
1572.2395819071312,1572.2395819071312,1.0001827863787296,0.0001111774717994979
1572.246526382602,1572.246526382602,0.9997650700126879,0.00011114776569115376
1572.2534708580715,1572.2534708580715,0.9999737848271988,0.0001111562496297608
1572.2604153335408,1572.2604153335408,1.0004587325573522,0.0001111877041108254
1572.2673598089173,1572.2673598089173,0.9999052460311832,0.00011115376497242161
1572.2743042842935,1572.2743042842935,1.0000121005480351,0.00011114752666151885
1572.2812487595766,1572.2812487595766,1.0001241995254202,0.00011114741354784511
1572.288193234861,1572.288193234861,0.9999371035370697,0.00011113064134207606
1572.2951377098648,1572.2951377098648,0.9997413809272432,0.00011111181757654354
1572.302082185055,1572.302082185055,1.000106634890283,0.00011113169705012937
1572.309026660152,1572.309026660152,0.9999842745473014,0.00011112244214730682
1572.3159711351555,1572.3159711351555,1.0000053521997103,0.00011110490345697886
1572.3229156101593,1572.3229156101593,0.9999805445000352,0.00011111648489119805
1572.3298600849773,1572.3298600849773,1.000069452433336,0.0001111099900742162
1572.3368045598888,1572.3368045598888,1.0001232516154868,0.00011109762212489362
1572.3437490347064,1572.3437490347064,0.9999936099707296,0.00011109439680302658
1572.3506935094313,1572.3506935094313,1.0001266953887546,0.0001110884767988361
1572.3576379842484,1572.3576379842484,0.9998569276040428,0.00011106288433880298
1572.3645824588796,1572.3645824588796,0.9999336957590691,0.00011106585011538791
1572.3715269334177,1572.3715269334177,1.0000515792203952,0.00011107276513472858
1572.378471407957,1572.378471407957,0.9997775243080984,0.00011103390602562125
1572.3854158824954,1572.3854158824954,0.9999172569631511,0.00011103396764691094
1572.3923603569401,1572.3923603569401,1.0001918546367004,0.00011104422661888355
1572.399304831292,1572.399304831292,1.000147736494013,0.00011104542651129341
1572.4062493057372,1572.4062493057372,1.000008201376747,0.00011102769749077098
1572.4131937799025,1572.4131937799025,0.9999882803932166,0.0001110145640338907
1572.4201382540691,1572.4201382540691,1.0000119092978768,0.00011102066688483089
1572.4270827285145,1572.4270827285145,1.0000875496719401,0.00011101268615049439
1572.434027202587,1572.434027202587,0.9999784937362051,0.00011100440759158688
1572.4409716766597,1572.4409716766597,0.9997641019319536,0.00011098784341572384
1572.447916150732,1572.447916150732,0.9998497095687517,0.00011099646611382002
1572.454860624432,1572.454860624432,1.0002278174881973,0.0001110093435618078
1572.461805098411,1572.461805098411,0.9999189228193405,0.0001109852547704041
1572.4687495722987,1572.4687495722987,0.9999209505214415,0.00011099645415312252
1572.4756940460918,1572.4756940460918,1.0000408427765586,0.0001109973407251079
1572.4826385197916,1572.4826385197916,1.000065266965716,0.00011098697304935145
1572.4895829934917,1572.4895829934917,1.0001122248691083,0.00011098530041884068
1572.4965274670983,1572.4965274670983,1.00000637748663,0.00011098574691016343
1572.5034719407054,1572.5034719407054,0.9999991671140454,0.00011097615029866826
1572.5104164142192,1572.5104164142192,1.0000200625873528,0.00011097908810657627
1572.5173608876405,1572.5173608876405,1.0000451586888683,0.00011097774298996386
1572.5243053611543,1572.5243053611543,0.9999451622830829,0.00011097528148087989
1572.5312498344822,1572.5312498344822,0.999778036077136,0.00011096309124940468
1572.5381943078091,1572.5381943078091,1.0001765010819033,0.00011099169914226979
1572.5451387810435,1572.5451387810435,0.9998664267124686,0.00011097115713517752
1572.5520832541843,1572.5520832541843,1.0001227726965878,0.00011098056624900978
1572.5590277273266,1572.5590277273266,1.000054030654883,0.00011097285959900281
1572.5659722003752,1572.5659722003752,1.0002447830351744,0.00011098739819286028
1572.572916673423,1572.572916673423,0.9997146109809469,0.00011095688146840361
1572.5798611463777,1572.5798611463777,0.9998937276822997,0.0001109553274691233
1572.5868056192394,1572.5868056192394,0.999937719962829,0.00011096806377830398
1572.5937500921943,1572.5937500921943,1.000065260327911,0.00011096815576964786
1572.600694564963,1572.600694564963,0.9999780871978785,0.00011096466473787319
1572.6076390376397,1572.6076390376397,1.0000677376681162,0.00011096153376337766
1572.6243057719676,1572.6243057719676,1.0000721334636131,0.00011095850646069035
1572.6312502445503,1572.6312502445503,0.9999774217747127,0.00011096059153782507
1572.6381947170396,1572.6381947170396,1.0000858528436223,0.00011095301643443932
1572.6451391894357,1572.6451391894357,0.9998617922745587,0.00011094647415264452
1572.652083661832,1572.652083661832,0.9999248647423441,0.00011095660144521035
1572.659028134229,1572.659028134229,1.0001004780007166,0.00011095867324037155
1572.665972606439,1572.665972606439,0.9998755499868228,0.00011093553169777773
1572.6729170785554,1572.6729170785554,1.0000839202697278,0.00011094075921975006
1572.679861550765,1572.679861550765,0.999903884888254,0.0001109326812027951
1572.686806022882,1572.686806022882,0.9999919655927758,0.00011095257583988163
1572.6937504948123,1572.6937504948123,1.0001315664528196,0.00011095632388577765
1572.7006949669299,1572.7006949669299,0.9998927743097724,0.00011094399295656917
1572.7076394386745,1572.7076394386745,1.0000162243648245,0.00011093817643370144
1572.7145839104185,1572.7145839104185,1.0000681845651225,0.00011093696174754618
1572.7215283821627,1572.7215283821627,0.9998489851644367,0.00011092452412677997
1572.7284728539066,1572.7284728539066,1.000207637345286,0.00011093276056731581
1572.7354173256513,1572.7354173256513,1.0003178454394677,0.00011093571862122657
1572.742361797395,1572.742361797395,0.9999446850682625,0.00011092123849848622
1572.749306269047,1572.749306269047,0.9999026970326186,0.00011091096709670496
1572.756250740419,1572.756250740419,0.999930532573611,0.00011092108984192453
1572.7631952118838,1572.7631952118838,1.0000004535845008,0.00011091666921275072
1572.7701396833486,1572.7701396833486,1.0000092988089673,0.00011091334220146385
1572.777084154627,1572.777084154627,0.9998612687336781,0.00011090365521883503
1572.7840286259056,1572.7840286259056,1.0000291242237254,0.00011090291700651138
1572.790973097091,1572.790973097091,1.0000283367070744,0.00011091353073853201
1572.7979175682776,1572.7979175682776,1.0001416952191957,0.00011089750857698995
1572.804862039277,1572.804862039277,0.999986384747644,0.00011090895060363879
1572.8118065103688,1572.8118065103688,0.9999553092629156,0.00011089219629443795
1572.818750981275,1572.818750981275,0.9999653224684918,0.00011090079651685237
1572.8256954522742,1572.8256954522742,1.0000944102984763,0.00011090901422168177
1572.8326399230866,1572.8326399230866,0.999924842071992,0.00011088820612240017
1572.8395843938065,1572.8395843938065,1.0000722139243676,0.00011089248737210897
1572.8465288646205,1572.8465288646205,1.0000185482656847,0.00011088220667409114
1572.853473335154,1572.853473335154,0.999958541615146,0.00011087329462819887
1572.8604178057808,1572.8604178057808,0.9999597329079645,0.00011089081774692199
1572.8673622763145,1572.8673622763145,1.0000186440051508,0.00011088362430548161
