time,time,flux,flux_err
1570.412595914635,1570.412595914635,1.0000878306560892,0.0003520975701499816
1570.4209293041856,1570.4209293041856,0.9997706407775557,0.0003511702184442032
1570.4320404903312,1570.4320404903312,1.000321805246991,0.0003506298408920314
1570.4438461257184,1570.4438461257184,0.9996905741178308,0.00034965704327050124
1570.4521795154822,1570.4521795154822,1.000295918059807,0.00031913266099327863
1570.459124006959,1570.459124006959,1.0000136753652344,0.00031862676002519964
1570.4660684985179,1570.4660684985179,0.999795258198341,0.0003182809911407482
1570.4730129900995,1570.4730129900995,1.000224226713207,0.0003178721465541737
1570.4799574817157,1570.4799574817157,0.9997520612024271,0.00031758510538266435
1570.4869019733785,1570.4869019733785,0.999867437639739,0.0003173462169306871
1570.4938464650645,1570.4938464650645,1.0000200835643436,0.0003169106775917005
1570.5007909567867,1570.5007909567867,0.9996214703104915,0.00031657959718823055
1570.5077354485431,1570.5077354485431,1.0004860033725484,0.0003163882828666779
1570.5146799403453,1570.5146799403453,1.0006045431408102,0.00031625089843235305
1570.522179991517,1570.522179991517,1.0001075095038594,0.00031578298189657774
1570.5299578223742,1570.5299578223742,0.9997666958923551,0.00031564432480017944
1570.537180093944,1570.537180093944,0.999716099691145,0.0003152378493718247
1570.5466246029785,1570.5466246029785,0.9997032721754321,0.00031498269954380515
1570.5535690949323,1570.5535690949323,1.0002695233995067,0.0003147116828568171
1570.5605135869441,1570.5605135869441,0.9995867107728706,0.00031441149355342324
1570.5674580789573,1570.5674580789573,0.9996875117164393,0.0003142880955303191
1570.574402571016,1570.574402571016,1.0004283286610856,0.00031426169496554
1570.5813470630978,1570.5813470630978,0.9999081946809877,0.0003139226313450279
1570.588291555215,1570.588291555215,1.0000660217831645,0.0003137161119454211
1570.5952360473434,1570.5952360473434,1.0001862465440956,0.00031348745649791454
1570.6021805395194,1570.6021805395194,1.000406393184526,0.0003134141555555852
1570.6105139301417,1570.6105139301417,1.000071721157535,0.00031297618039027934
1570.6174584223747,1570.6174584223747,0.9993838976966944,0.000312552931579972
1570.6244029146196,1570.6244029146196,1.0008462652437429,0.0003123960069748726
1570.6327363053465,1570.6327363053465,1.000158339552525,0.00031210949375596773
1570.639680797662,1570.639680797662,0.9998327059345582,0.0003118300461556685
1570.6466252899766,1570.6466252899766,0.9994707174048403,0.0003116017430358608
1570.6535697823379,1570.6535697823379,0.9998104151552696,0.000311379646147093
1570.6605142746878,1570.6605142746878,1.00015747986311,0.00031113209993551813
1570.6674587670962,1570.6674587670962,0.9997504135216093,0.00031094718649150085
1570.6744032595047,1570.6744032595047,1.0008121719682577,0.00031068092750633554
1570.6813477519595,1570.6813477519595,0.9995455127687712,0.0003101960433639468
1570.6882922444136,1570.6882922444136,1.0004179091688892,0.0003099944483531308
1570.6952367368915,1570.6952367368915,1.000229874486347,0.00030979118913639027
1570.7021812293933,1570.7021812293933,0.9996491680054724,0.0003094679796253386
1570.7091257219176,1570.7091257219176,0.9998131862183532,0.0003090862410866738
1570.7160702144658,1570.7160702144658,1.0000116597228328,0.0003090297939467787
1570.7230147070134,1570.7230147070134,1.0000551727738152,0.00030872425485473494
1570.7299591995957,1570.7299591995957,1.0001604964272888,0.0003083947549464858
1570.7369036921907,1570.7369036921907,1.0003609413480818,0.00030816674423755745
1570.7438481848203,1570.7438481848203,1.0000463441451581,0.0003077260019607701
1570.7507926774492,1570.7507926774492,0.9991473404805958,0.0003074112552754904
1570.7577371700902,1570.7577371700902,1.0004234467851398,0.0003072211097974443
1570.7646816627653,1570.7646816627653,0.9997960998366672,0.0003068892346217509
1570.7716261554306,1570.7716261554306,0.9997534194504862,0.0003065973285469991
1570.7785706481295,1570.7785706481295,1.0002080004603537,0.00030649204556398575
1570.7855151408753,1570.7855151408753,0.9999932858727089,0.00030614189825071286
1570.7924596335858,1570.7924596335858,1.0003594128875068,0.0003059606500609703
1570.799404126343,1570.799404126343,0.9999501757411894,0.0003057674682491474
1570.8063486191127,1570.8063486191127,0.9999603572712641,0.0003055023627831563
1570.8132931118819,1570.8132931118819,0.9998519923524523,0.0003052852605223013
1570.8202376046736,1570.8202376046736,0.9999191672136944,0.0003051529159580257
1570.8271820974776,1570.8271820974776,1.0000779291312738,0.00030491824340707065
1570.8341265902927,1570.8341265902927,1.0004585498557317,0.00030486090400210755
1570.8410710831324,1570.8410710831324,0.9996661667076754,0.0003045578134065382
1570.8480155759833,1570.8480155759833,0.9999878294407262,0.0003044833150284707
1570.8549600688216,1570.8549600688216,0.9996008141626117,0.0003043923803887604
1570.8619045616952,1570.8619045616952,1.0001694213319818,0.0003042433317539231
1570.8688490545803,1570.8688490545803,1.0000982572863204,0.00030399463070481187
1570.8763491069053,1570.8763491069053,0.9997852932940562,0.00030401006805460477
1570.88412693895,1570.88412693895,0.9998613038062393,0.0003039069750876806
1570.89107143187,1570.89107143187,1.0002049158967483,0.0003036448961537397
1570.8980159248017,1570.8980159248017,1.0003342865315923,0.00030378387011879805
1570.9049604177333,1570.9049604177333,1.0002443382581603,0.0003034997326206844
1570.9119049106896,1570.9119049106896,0.99990169746604,0.0003034052123553071
1570.9188494036334,1570.9188494036334,0.9999572804327113,0.00030326364248317036
1570.9257938966111,1570.9257938966111,1.0000181656472482,0.0003030568717355353
1570.9327383896016,1570.9327383896016,0.9996675441975011,0.0003029702845260839
1570.9396828825916,1570.9396828825916,1.0002697492200547,0.00030285666987218496
1570.946627375582,1570.946627375582,0.9997777075441523,0.0003027136831998289
1570.953571868573,1570.953571868573,0.9997478091043724,0.00030259122348832415
1570.9605163615627,1570.9605163615627,1.000284155833651,0.00030256236910188993
1570.9674608546106,1570.9674608546106,1.0006222614894829,0.000302310251851452
1570.9744053476124,1570.9744053476124,1.0001834794380184,0.00030228800162703017
1570.9813498406497,1570.9813498406497,0.9998729459647775,0.0003021846608616627
1570.9882943336984,1570.9882943336984,0.9997206834977552,0.0003019362495671891
1570.995238826735,1570.995238826735,0.9999578633861859,0.00030182902613065513
1571.0021833197945,1571.0021833197945,1.0002595044880138,0.00030170883270415994
1571.0091278128543,1571.0091278128543,0.9996798659675695,0.0003014752254298562
1571.016072305903,1571.016072305903,0.9999910066048603,0.00030131647964657803
1571.0230167989987,1571.0230167989987,1.0003773652576051,0.00030117022080429473
1571.02996129207,1571.02996129207,1.0003955849897934,0.000301054124416219
1571.0369057851412,1571.0369057851412,0.9999017850091596,0.00030084171881293077
1571.043850278213,1571.043850278213,0.9997622411985947,0.000300528430792182
1571.050794771331,1571.050794771331,0.9991634743435689,0.0003004513740075893
1571.0577392644268,1571.0577392644268,1.000141812652252,0.0003003816308769767
1571.0646837575218,1571.0646837575218,1.0004358339475008,0.00030035257865463353
1571.0716282506398,1571.0716282506398,1.0000471116760792,0.0002999863765340244
1571.0785727437344,1571.0785727437344,1.000098172324481,0.0002998114415511572
1571.0855172368524,1571.0855172368524,1.0000505665476827,0.00029965370812075494
1571.0924617299713,1571.0924617299713,1.0000637328798978,0.0002995652420291736
1571.0994062230898,1571.0994062230898,1.0000519350662969,0.0002993990944931775
1571.1063507162078,1571.1063507162078,0.9996284259666257,0.0002992528271568132
1571.113295209349,1571.113295209349,0.9996289695326025,0.0002990906488882411
1571.120239702467,1571.120239702467,1.0004584059060893,0.00029922323948609235
1571.1271841955859,1571.1271841955859,1.000116009822538,0.0002990160949776847
1571.1341286887277,1571.1341286887277,1.00067938169452,0.0002989131435985532
1571.1410731818457,1571.1410731818457,1.00024820793659,0.0002988261438287293
1571.148017674987,1571.148017674987,0.9997696364620395,0.00029879280460242194
1571.1549621681283,1571.1549621681283,0.9999741699390692,0.00029855272532375716
1571.1619066612934,1571.1619066612934,0.9993141734731654,0.00029839225471688476
1571.1688511544355,1571.1688511544355,1.0001802488067884,0.00029842785323805956
1571.1757956475533,1571.1757956475533,0.9996156442208106,0.0002983465776682976
1571.182740140695,1571.182740140695,1.0002961067592504,0.0002983478688459033
1571.189684633836,1571.189684633836,0.9998440438118074,0.0002981791443091596
1571.196629127001,1571.196629127001,1.0002208380314999,0.00029826626393971236
1571.2035736201435,1571.2035736201435,1.0006438908966337,0.0002982050405539595
1571.210518113261,1571.210518113261,1.0003403337454693,0.00029809186369810436
1571.217462606403,1571.217462606403,0.999464520432906,0.00029797951111609094
1571.2244070995669,1571.2244070995669,1.0001008614565607,0.00029794748012304864
1571.2313515927083,1571.2313515927083,0.9994088043654715,0.0002977687230121972
1571.238296085851,1571.238296085851,0.9999883052124943,0.0002978438960152494
1571.2452405789688,1571.2452405789688,0.9997220592057184,0.0002977200198562667
1571.2521850721103,1571.2521850721103,1.0000391601989842,0.00029760225084236175
1571.2591295652746,1571.2591295652746,1.0005655718873787,0.0002976638529463343
1571.266074058416,1571.266074058416,0.9998404438441796,0.0002974830395148846
1571.273018551558,1571.273018551558,1.0005576296095318,0.00029743673330999735
1571.2799630446766,1571.2799630446766,1.0002868599600627,0.0002973357805481625
1571.2869075377948,1571.2869075377948,1.0002615617756345,0.0002972660397682214
1571.2938520309358,1571.2938520309358,0.9999736192958177,0.0002973123923649478
1571.300796524054,1571.300796524054,0.9996996647170562,0.0002970501711791077
1571.3077410171954,1571.3077410171954,0.9998225411283357,0.00029699075280256065
1571.3146855103146,1571.3146855103146,0.9997803091614195,0.0002969010255006714
1571.3216300034092,1571.3216300034092,1.0001979407722543,0.0002967744831192876
1571.3285744965506,1571.3285744965506,0.9997320716872841,0.00029663188218897877
1571.3355189896686,1571.3355189896686,1.0001995170322697,0.0002965949027837198
1571.3424634827634,1571.3424634827634,0.9999513564063733,0.0002964785622993209
1571.3494079758823,1571.3494079758823,1.0004403671517212,0.0002965709199768857
1571.3563524689773,1571.3563524689773,1.0000965402404214,0.0002963252207998715
1571.3632969620953,1571.3632969620953,1.0001653699380237,0.000296278583696675
1571.37024145519,1571.37024145519,0.9998813774959554,0.00029620331133647666
1571.3771859482617,1571.3771859482617,0.9996513868026387,0.00029599190236889755
1571.3841304413568,1571.3841304413568,1.0000821223942244,0.00029597528468928503
1571.391074934452,1571.391074934452,0.9995176341675556,0.0002958599667278056
1571.3980194275236,1571.3980194275236,1.0002546901140144,0.000295780549077561
1571.404963920595,1571.404963920595,0.9997604863238262,0.00029574511888714983
1571.4119084136667,1571.4119084136667,1.0001483650113818,0.00029573093381761884
1571.4188529067383,1571.4188529067383,1.0006208826541783,0.0002956302399472233
1571.4257973998103,1571.4257973998103,0.9998560069195983,0.00029559035097239425
1571.4327418928592,1571.4327418928592,0.9997875389873425,0.00029552822646215587
1571.4396863859072,1571.4396863859072,1.0001016233120803,0.00029547379501636706
1571.446630878955,1571.446630878955,0.9999951450726385,0.0002954984944688552
1571.4535753719804,1571.4535753719804,0.9998259785283483,0.0002954726363643606
1571.4605198650283,1571.4605198650283,1.0000696535736808,0.0002954304194397109
1571.4674643580543,1571.4674643580543,1.000035973585575,0.00029538953701648246
1571.4744088510793,1571.4744088510793,1.0000504710511071,0.0002954667684938588
1571.481353344104,1571.481353344104,0.9999636550342746,0.0002954441799690714
1571.4882978371058,1571.4882978371058,0.9995862415021028,0.000295365762391805
1571.4952423301074,1571.4952423301074,0.9994065215928568,0.00029533505537599066
1571.5021868230865,1571.5021868230865,1.000006175663718,0.00029534686788082454
1571.5091313160888,1571.5091313160888,1.0005065917530744,0.00029544368219822987
1571.5160758090667,1571.5160758090667,1.0002075928342937,0.00029533130233714395
1571.5230203020687,1571.5230203020687,1.0001900683924174,0.0002953377471522686
1571.529964795047,1571.529964795047,1.0002397357703001,0.00029536219162920623
1571.5369092879787,1571.5369092879787,0.9997458019596307,0.0002952645441137615
1571.5438537809582,1571.5438537809582,1.0000569608506984,0.00029528798480696783
1571.550798273913,1571.550798273913,0.9994412750218536,0.00029520055644812853
1571.557742766845,1571.557742766845,0.9988258719308514,0.00029517648619009753
1571.5646872597767,1571.5646872597767,0.9998720749034371,0.00029526729936372515
1571.571631752708,1571.571631752708,1.000608703041557,0.00029548616278122955
1571.5785762456176,1571.5785762456176,1.0004082018279548,0.00029531140940438824
1571.5855207385498,1571.5855207385498,1.0000221530305198,0.0002953404979657646
1571.5924652314582,1571.5924652314582,1.0002605753031881,0.00029540057441420964
1571.5994097243433,1571.5994097243433,1.0000583513930477,0.00029537738150484593
1571.6063542172287,1571.6063542172287,0.9997748234765726,0.0002953097656159346
1571.6132987101137,1571.6132987101137,0.9994382966660007,0.00029513493857838375
1571.6202432029772,1571.6202432029772,0.9997003801155315,0.0002952228246366739
1571.6271876958392,1571.6271876958392,1.0002808795189655,0.00029523608624056725
1571.6341321887007,1571.6341321887007,0.9996966184173861,0.0002951439102889579
1571.6410766815395,1571.6410766815395,0.9998729251629127,0.00029515190965338176
1571.6480211743778,1571.6480211743778,1.000148234658207,0.00029525680277250866
1571.6549656671937,1571.6549656671937,1.0008391201930462,0.00029531662408384466
1571.6619101600104,1571.6619101600104,0.999952217221999,0.0002951067229828014
1571.6688546528253,1571.6688546528253,0.9998872551947521,0.00029516838822243234
1571.6757991456407,1571.6757991456407,0.999828684528158,0.00029516049594531394
1571.6827436384092,1571.6827436384092,0.9999609642058692,0.0002951326780383849
1571.6896881311782,1571.6896881311782,0.9993975773683745,0.0002950281171355835
1571.6966326239942,1571.6966326239942,0.9999434355513692,0.0002949760885007296
1571.703577116717,1571.703577116717,1.0002385750072327,0.00029514548492010924
1571.710521609509,1571.710521609509,1.0000480975445003,0.0002950330496972572
1571.7174661022077,1571.7174661022077,1.000404120274767,0.00029498059812083885
1571.7244105949535,1571.7244105949535,1.0000434804819893,0.0002948884236594339
1571.731355087722,1571.731355087722,0.9998871672156293,0.0002949108381150625
1571.738299580422,1571.738299580422,0.9997984832611815,0.00029479072402657796
1571.7452440731215,1571.7452440731215,0.9998067807605688,0.00029479802201978674
1571.7521885658202,1571.7521885658202,1.0003236069055634,0.00029477641313445
1571.759133058519,1571.759133058519,0.9999207759355245,0.0002946435678370412
1571.7660775511017,1571.7660775511017,1.0002854705772493,0.0002947493064546322
1571.7730220438004,1571.7730220438004,0.9997861708839892,0.00029462628376798956
1571.7799665364776,1571.7799665364776,1.0002176898810862,0.000294631703313816
1571.7869110290835,1571.7869110290835,0.9996470120094475,0.00029445504315868496
1571.7938555217122,1571.7938555217122,1.0003693925817758,0.00029456069742717447
1571.8008000143413,1571.8008000143413,0.9997219469557841,0.00029445326976472273
1571.8077445069473,1571.8077445069473,0.9993528878620654,0.000294306317373893
1571.8146889995296,1571.8146889995296,0.9998576058900441,0.0002944947752200895
1571.8216334921367,1571.8216334921367,1.0000072600946308,0.0002943551984026211
1571.828577984696,1571.828577984696,1.001164618644454,0.00029458665551276495
1571.835522477255,1571.835522477255,1.0003568854997595,0.0002943820626547309
1571.8424669698147,1571.8424669698147,0.9997265496768228,0.0002942798197739465
1571.8494114623502,1571.8494114623502,0.9999682126096963,0.0002942143502987004
1571.8563559548634,1571.8563559548634,0.9997565806953871,0.00029420984371959297
1571.863300447377,1571.863300447377,1.0000300433594944,0.00029436951017341393
1571.8702449398893,1571.8702449398893,1.0002027164632137,0.0002943223949789017
1571.8771894323788,1571.8771894323788,1.000368981863268,0.00029429024527679703
1571.8841339248684,1571.8841339248684,0.9996465796537617,0.0002942004176260945
1571.8910784173343,1571.8910784173343,1.0002844683314898,0.0002943735461917019
1571.8980229098008,1571.8980229098008,0.9994677312272605,0.0002941282275866558
1571.9049674022444,1571.9049674022444,0.9999071849576836,0.0002942393563863682
1571.9119118946642,1571.9119118946642,0.9996958980667252,0.0002942461625634036
1571.9188563870835,1571.9188563870835,1.0001212888758966,0.0002942273007955092
1571.9258008794798,1571.9258008794798,1.0001873389100242,0.0002942183003876824
1571.9327453718993,1571.9327453718993,1.000554315621623,0.00029419664531934157
1571.9396898642724,1571.9396898642724,1.000058658990161,0.0002941480772565471
1571.9466343566467,1571.9466343566467,0.9999173096216252,0.00029419461593598755
1571.9535788489964,1571.9535788489964,0.9999223954079242,0.00029418273582932774
1571.9605233413456,1571.9605233413456,0.9998949393777284,0.00029407232389385595
1571.9674678336721,1571.9674678336721,0.9995274078210125,0.00029412131642754687
1571.9744123259752,1571.9744123259752,1.0002614691033447,0.00029408826269833397
1571.981356818302,1571.981356818302,1.0004038094677945,0.00029414005318006655
1571.988301310583,1571.988301310583,0.9999142867991753,0.0002941009910815887
1571.9952458028624,1571.9952458028624,1.0000658736621064,0.00029417414475440217
1572.0021902951191,1572.0021902951191,0.9997569318386267,0.0002940003630920144
1572.0091347873758,1572.0091347873758,0.9999595420995021,0.0002940949223876737
1572.0160792796091,1572.0160792796091,1.000086100419138,0.00029398180838733983
1572.0230237718426,1572.0230237718426,0.9995252749646891,0.000293901225933992
1572.0299682640532,1572.0299682640532,0.9999989643524583,0.00029401371470532116
1572.03691275624,1572.03691275624,1.0006344575818826,0.0002939524209581772
1572.0438572484734,1572.0438572484734,1.0000862898502576,0.00029397575809870846
1572.05080174059,1572.05080174059,0.9996942057902535,0.0002939305658943249
1572.057746232777,1572.057746232777,1.000486127389469,0.0002939708540714076
1572.0646907249406,1572.0646907249406,0.9997421603529391,0.00029380131384283345
1572.071635217058,1572.071635217058,0.9996969439181689,0.00029377220110093525
1572.0785797091753,1572.0785797091753,0.9997973069651509,0.00029375055444072343
1572.085524201292,1572.085524201292,0.9998588823926251,0.00029395428147501715
1572.092468693339,1572.092468693339,1.000273348522675,0.0002938847317168561
1572.099413185409,1572.099413185409,0.9999173490831609,0.00029380949099006487
1572.106357677503,1572.106357677503,0.9999675945037186,0.0002937387847527008
1572.113302169528,1572.113302169528,0.9997951640867575,0.0002936769138058811
1572.1202466615516,1572.1202466615516,1.0006150915833145,0.00029380141704533924
1572.1271911535753,1572.1271911535753,1.000255612240714,0.00029365574282150714
1572.1341356455755,1572.1341356455755,0.9997754906771645,0.00029358293110069017
1572.1410801375762,1572.1410801375762,1.00011797091175,0.0002936215869901287
1572.148024629553,1572.148024629553,1.0002581227062595,0.00029367484116498
1572.154969121485,1572.154969121485,0.9995057132958296,0.00029365381413100247
1572.161913613462,1572.161913613462,0.9997344235183755,0.0002936789449148174
1572.1688581053695,1572.1688581053695,1.0003399262901684,0.0002937486774109661
1572.1758025973002,1572.1758025973002,0.999822623697766,0.0002936859613838826
1572.182747089184,1572.182747089184,1.0004916245498572,0.0002936772410986735
