time,time,flux,flux_err
1653.9285336741705,1653.9285336741705,0.9999451723546802,0.00022691637533921115
1653.9368672663516,1653.9368672663516,1.0000574218013343,0.00022693444384874208
1653.9445063920787,1653.9445063920787,1.0004739888282468,0.00020720370607585668
1653.951451051585,1653.951451051585,0.9994898319701001,0.00020708544320403193
1653.9583957106256,1653.9583957106256,0.9999019538403046,0.00020717645706274374
1653.9653403693876,1653.9653403693876,1.000043189199493,0.00020716602609462887
1653.9722850279625,1653.9722850279625,0.9997741812645616,0.00020718485334520823
1653.9792296860724,1653.9792296860724,1.0001258157361215,0.00020723540455242043
1653.9861743440883,1653.9861743440883,1.000266929382583,0.00020717404833204715
1653.9931190015463,1653.9931190015463,0.9999559631792655,0.00020711824477610512
1654.000063658911,1654.000063658911,0.9999905697018716,0.00020715529037029635
1654.0070083159026,1654.0070083159026,1.000233510638526,0.00020720086809940404
1654.0139529727087,1654.0139529727087,1.0001020583192983,0.00020715223638055792
1654.020897629235,1654.020897629235,1.0000893800074493,0.00020717575108285792
1654.0278422853885,1654.0278422853885,0.9999233579214059,0.00020715340427799236
1654.0347869413558,1654.0347869413558,1.0000842572205284,0.00020721181760335097
1654.0417315970444,1654.0417315970444,0.9998143017543188,0.00020721435227115956
1654.0486762525463,1654.0486762525463,0.9997557373622528,0.0002071879018355551
1654.0556209077688,1654.0556209077688,0.9998838609133248,0.00020726190908541565
1654.0625655627118,1654.0625655627118,1.0001668827988457,0.00020734970604033756
1654.069510217469,1654.069510217469,1.000186553545706,0.00020745348859371016
1654.076454871946,1654.076454871946,1.0000147212719148,0.00020745961875670902
1654.0833995263304,1654.0833995263304,1.0001217203856383,0.00020758663551407054
1654.0903441804353,1654.0903441804353,0.9999327454850675,0.00020762068276630277
1654.0972888342608,1654.0972888342608,1.0004493661251175,0.00020779214763274389
1654.104233487993,1654.104233487993,0.9998952431997031,0.00020789240174828874
1654.1111781413529,1654.1111781413529,0.9994038181196728,0.00020794580589274313
1654.1181227947127,1654.1181227947127,1.0000630473565504,0.00020813221615838753
1654.125067447793,1654.125067447793,0.9997816343654604,0.00020828923440736603
1654.1320121006872,1654.1320121006872,0.9999756799265977,0.00020851810110625676
1654.1389567533952,1654.1389567533952,1.0003560809089687,0.0002088059405269438
1654.145901405917,1654.145901405917,1.0001188822612523,0.00020890679193259466
1654.1528460583454,1654.1528460583454,1.0000828327459639,0.00020925854678436633
1654.1597907104945,1654.1597907104945,1.0000891270127692,0.00020933420740629964
1654.1672909346332,1654.1672909346332,1.0000422594412242,0.00020958185563164233
1654.1750689447194,1654.1750689447194,0.9997717527275112,0.0002098009220280622
1654.182013596403,1654.182013596403,0.9998790624202876,0.0002100163397437416
1654.1889582479002,1654.1889582479002,0.9999343522859322,0.00021017505286834458
1654.1959028993042,1654.1959028993042,1.0000942277580738,0.0002103366721696375
1654.202847550522,1654.202847550522,0.9999948743959912,0.00021052794232698916
1654.2097922018324,1654.2097922018324,0.9999269605895458,0.00021070546198420276
1654.2167368524922,1654.2167368524922,1.0000967805955407,0.00021095940983458026
1654.2236815034303,1654.2236815034303,0.9998808082882975,0.00021114275716014162
1654.2306261540894,1654.2306261540894,1.000143244528511,0.00021128361273884248
1654.2375708046554,1654.2375708046554,0.9996527907707622,0.00021145155646803133
1654.2445154551278,1654.2445154551278,0.9999831675303307,0.00021170694213893713
1654.2514601054143,1654.2514601054143,1.000362618098443,0.00021193256823844102
1654.258960327597,1654.258960327597,1.00025061387315,0.0002121353674896215
1654.2667383357282,1654.2667383357282,0.9996370992126101,0.00021237988752475465
1654.2736829856417,1654.2736829856417,1.0000843523364802,0.00021242268574010577
1654.2806276354627,1654.2806276354627,1.0000380751488467,0.00021266911872906967
1654.2875722852834,1654.2875722852834,1.0000380986844644,0.00021301268184832026
1654.2945169348247,1654.2945169348247,1.0000604129822441,0.00021304686985075611
1654.3014615844597,1654.3014615844597,0.9996852690564568,0.0002131084492920635
1654.3084062338141,1654.3084062338141,1.0000582553721746,0.0002132970347996052
1654.3153508831697,1654.3153508831697,1.0005220529062642,0.00021335687849950613
1654.3222955324316,1654.3222955324316,0.999781260567757,0.00021345551100933826
1654.3292401815074,1654.3292401815074,0.9996157487060842,0.0002135294987010556
1654.336184830583,1654.336184830583,0.9999527524645385,0.00021366651543852305
1654.3431294796587,1654.3431294796587,1.0000397539864976,0.00021372697812377717
1654.3500741284552,1654.3500741284552,1.00028955131653,0.00021395148527446852
1654.3570187771584,1654.3570187771584,0.9999593262043923,0.00021395771226826666
1654.3639634258611,1654.3639634258611,0.9999317818964633,0.00021406520683488157
1654.3709080745648,1654.3709080745648,1.0000113601332716,0.0002142060259602544
1654.377852723268,1654.377852723268,1.0003597968425226,0.0002143135360221822
1654.384797371785,1654.384797371785,1.0000424004925268,0.00021435615052005052
1654.3917420202088,1654.3917420202088,0.9997756216517907,0.00021449708156335564
1654.3986866685395,1654.3986866685395,0.9995052279771415,0.0002145644392791213
1654.40563131687,1654.40563131687,0.9999503883641176,0.00021461264199288681
1654.4125759651074,1654.4125759651074,1.0001916015918264,0.00021485656693014343
1654.4195206132522,1654.4195206132522,0.9999234944311336,0.0002147762196465704
1654.426465261303,1654.426465261303,1.0004772929679453,0.00021490309401023074
1654.4334099093546,1654.4334099093546,0.99994826084358,0.0002149540879730078
1654.4403545573125,1654.4403545573125,0.9998364182307767,0.00021495638761698534
1654.4472992051778,1654.4472992051778,1.000378651632966,0.0002152150386226813
1654.454243853136,1654.454243853136,0.9999294145548872,0.00021512831549630454
1654.4611885009076,1654.4611885009076,0.9999235281818981,0.00021511628593856667
1654.4681331485867,1654.4681331485867,1.0000874856651114,0.00021533426533196267
1654.4750777963586,1654.4750777963586,1.0000520972119902,0.00021535664049661483
1654.4820224439438,1654.4820224439438,0.9998708829112545,0.0002153632458959814
1654.4889670914367,1654.4889670914367,1.0004291451743352,0.0002154884068026144
1654.4959117390222,1654.4959117390222,0.9999581412837987,0.00021551810145030862
1654.504245316069,1654.504245316069,0.9997053237718445,0.00021557663337825873
1654.5167456814063,1654.5167456814063,0.9998132193933863,0.00021599903511649267
1654.5250792581744,1654.5250792581744,1.0002094605048135,0.0002160504032036708
1654.5320239055732,1654.5320239055732,1.000053178397795,0.0002161234978612601
1654.5389685527866,1654.5389685527866,1.0000730236225022,0.00021632023013464616
1654.5459131999996,1654.5459131999996,0.9999856247855139,0.00021635399161946993
1654.5528578471199,1654.5528578471199,1.000175969524019,0.0002165100980164605
1654.5598024943326,1654.5598024943326,1.000223151624867,0.00021659491404381462
1654.5667471413594,1654.5667471413594,1.0001741520469531,0.0002166039989852877
1654.5736917884794,1654.5736917884794,1.00012981438686,0.00021678173895860452
1654.5806364354128,1654.5806364354128,0.9996227179051971,0.0002168048901579537
1654.5875810823468,1654.5875810823468,1.000035137730325,0.0002168594151879227
1654.5945257293733,1654.5945257293733,1.0000552147483155,0.000216989182683996
1654.6014703762144,1654.6014703762144,0.9998326518687832,0.00021703034599775584
1654.608415023055,1654.608415023055,0.9999951109734869,0.00021693985884529868
1654.6153596698955,1654.6153596698955,0.9999308295243556,0.00021704354107865694
1654.6223043166428,1654.6223043166428,1.0000166291375108,0.00021707630745793064
1654.6298045351934,1654.6298045351934,0.9999983304442115,0.00021703971408985157
1654.637582539599,1654.637582539599,0.9999697255544453,0.00021703771375384184
1654.6445271862533,1654.6445271862533,1.0000206097311466,0.00021712867616967158
1654.6514718328144,1654.6514718328144,1.0002924901919816,0.00021710360345838007
1654.658416479655,1654.658416479655,0.999985005725288,0.00021707354729088164
1654.6653611260294,1654.6653611260294,1.0002114863472316,0.00021701159582598921
1654.67230577287,1654.67230577287,1.0000078186415586,0.00021711569197126955
1654.6792504192454,1654.6792504192454,0.9998260166659465,0.0002170617431053703
1654.6861950656203,1654.6861950656203,0.9999079245885986,0.00021714519043673154
1654.6931397123674,1654.6931397123674,0.9996616529517528,0.00021707311289722973
1654.7000843588353,1654.7000843588353,1.0002634983490093,0.0002170928800570221
1654.707029005211,1654.707029005211,0.9996065537974139,0.0002169087972325625
1654.7139736515855,1654.7139736515855,1.000232874032036,0.00021713176776801406
1654.72091829796,1654.72091829796,0.9999629630797828,0.0002170435673770886
1654.727862944335,1654.727862944335,0.9997432627755357,0.0002169542923968467
1654.7348075907103,1654.7348075907103,1.0000521918604828,0.00021709241870547941
1654.7417522370852,1654.7417522370852,1.000112239182643,0.00021705677189194856
1654.7486968831804,1654.7486968831804,1.000131633954275,0.00021708055177825525
1654.7556415293693,1654.7556415293693,0.9999022495939875,0.0002170688709206889
1654.7625861757442,1654.7625861757442,0.9998254765091378,0.00021706902874193217
1654.7695308219324,1654.7695308219324,0.9998421265230704,0.0002170785151830564
1654.776475468028,1654.776475468028,1.0003553720734897,0.00021705324860915096
1654.78342011431,1654.78342011431,1.000245863522131,0.0002170869522099041
1654.7903647603125,1654.7903647603125,0.9997813607988529,0.00021694345747767866
1654.7973094065007,1654.7973094065007,1.0000457730243477,0.00021699521181102547
1654.8042540525962,1654.8042540525962,1.000031172601392,0.00021703733022187117
1654.8111986985991,1654.8111986985991,0.9995637360258947,0.00021696686748729141
1654.8181433447874,1654.8181433447874,1.0000655279365933,0.00021697778220241258
1654.82508799079,1654.82508799079,1.0001699687858632,0.00021695334998768985
1654.8320326366988,1654.8320326366988,0.9997990152271996,0.00021686196238024854
1654.8389772827018,1654.8389772827018,1.000182935715333,0.00021680430109518589
1654.8459219287038,1654.8459219287038,1.0000276014004883,0.00021676337165188776
1654.852866574706,1654.852866574706,1.0001777689104672,0.0002167578846481547
1654.8598112206157,1654.8598112206157,1.0000021100483472,0.0002166356225480361
1654.8667558665245,1654.8667558665245,0.999676865999283,0.00021651129689043638
1654.8737005123407,1654.8737005123407,0.9999576036649629,0.00021649763518989456
1654.88064515825,1654.88064515825,0.9997921381853189,0.00021630719419704655
1654.887589804066,1654.887589804066,1.0000873724270989,0.00021626509802256372
1654.8945344499753,1654.8945344499753,1.000358318107132,0.0002160926121110934
1654.902034667315,1654.902034667315,1.0001257157759817,0.0002160334421726483
1654.9098126706958,1654.9098126706958,0.9999070620820856,0.00021595295393259404
1654.9167573165128,1654.9167573165128,1.0000470922886333,0.00021587607819337803
1654.923701962142,1654.923701962142,1.0000623772985056,0.00021578440739494767
1654.9306466079584,1654.9306466079584,1.0000205981290975,0.00021558054912291
1654.9375912535877,1654.9375912535877,0.9997404341899919,0.0002156055345936889
1654.9445358993114,1654.9445358993114,0.9996676870038481,0.00021548308464982077
1654.951480545034,1654.951480545034,1.0003516154868501,0.00021549509390377284
1654.958425190664,1654.958425190664,0.9999360128874942,0.0002154750573454755
1654.9653698362004,1654.9653698362004,1.0000842286647575,0.00021530448439260522
1654.9723144818304,1654.9723144818304,1.0000024448421705,0.00021533757494753879
1654.9792591274604,1654.9792591274604,0.9998061540292664,0.00021527154494290282
1654.986203772997,1654.986203772997,0.9999360560708188,0.00021515913513757732
1654.9931484186266,1654.9931484186266,1.0000881422528318,0.00021511255880379607
1655.0000930642568,1655.0000930642568,1.0000170817245122,0.00021514895042589935
1655.0070377097004,1655.0070377097004,0.9998571387087611,0.0002151133652539074
1655.0139823552367,1655.0139823552367,0.9997815367221211,0.00021516217938613702
1655.0209270006806,1655.0209270006806,1.0002660985208984,0.00021509773347326355
1655.0278716462174,1655.0278716462174,0.9999785788939459,0.00021508146367378876
1655.034816291661,1655.034816291661,0.9998732847231816,0.00021506079419036228
1655.0417609371045,1655.0417609371045,0.9997626317415481,0.00021506658640781345
1655.0487055825477,1655.0487055825477,0.9998892848414677,0.0002151085201997385
1655.0556502278982,1655.0556502278982,1.0001586208260445,0.00021513066031924902
1655.062594873342,1655.062594873342,1.0001380687432446,0.00021515902834598022
1655.0695395185994,1655.0695395185994,1.0002956673215107,0.00021509526732195784
1655.076484164043,1655.076484164043,1.0002112279344852,0.0002151971113446809
1655.0834288093,1655.0834288093,0.9996801058411137,0.0002151606078600576
1655.090373454744,1655.090373454744,0.9999150198175968,0.00021518350141798344
1655.0973180999076,1655.0973180999076,1.0002336340869724,0.00021517605697714365
1655.1042627452582,1655.1042627452582,0.9998133578977411,0.0002151026669266301
1655.111207390609,1655.111207390609,0.9997585784904308,0.00021514947824932367
1655.1181520357727,1655.1181520357727,1.000230423340169,0.00021521842944145455
1655.12509668103,1655.12509668103,1.0000168592109229,0.00021517192236874343
1655.1320413261942,1655.1320413261942,1.000142508392433,0.00021525687393768918
1655.138985971452,1655.138985971452,0.9997543170274159,0.00021522160733593348
1655.1459306166157,1655.1459306166157,0.9997563589843577,0.00021530226344980164
1655.15287526178,1655.15287526178,1.0000851360045229,0.0002151896676483715
1655.159819906851,1655.159819906851,1.0001874035601541,0.00021519134433757104
1655.1667645520151,1655.1667645520151,1.0002816065795588,0.00021518627293495274
1655.1737091970863,1655.1737091970863,1.000329280999402,0.0002150647183207271
1655.1817649854838,1655.1817649854838,0.9997777847121622,0.00021501447277120703
1655.1889874163176,1655.1889874163176,1.0002731880681215,0.00021505118922369166
1655.1959320613882,1655.1959320613882,1.000053663222033,0.00021499464796975834
1655.2028767064592,1655.2028767064592,0.9997999349880888,0.0002148569211308237
1655.2098213514369,1655.2098213514369,0.999791501379586,0.0002148046921135874
1655.2167659964155,1655.2167659964155,1.0000536153269097,0.00021483916418845171
1655.223710641393,1655.223710641393,1.0004897344344204,0.00021483837428709637
1655.2306552863706,1655.2306552863706,0.9998172158094014,0.0002148000620923578
1655.2375999312558,1655.2375999312558,1.0001012443101795,0.00021475823441209114
1655.2445445762337,1655.2445445762337,0.9998100195641358,0.00021459513438352516
1655.2514892211184,1655.2514892211184,0.9999753934578365,0.00021458718214307924
1655.2589894376197,1655.2589894376197,0.9999376635048483,0.0002143431163656956
1655.266767439883,1655.266767439883,0.999858098456522,0.00021434898764704694
1655.2737120847682,1655.2737120847682,1.0002244331124182,0.00021439636658087123
1655.2806567296532,1655.2806567296532,1.0001754546461654,0.00021417056570594326
1655.2884347318236,1655.2884347318236,0.9999294858495176,0.0002142516025580768
1655.2959349481384,1655.2959349481384,0.9998237142679718,0.00021421663181321458
1655.3028795929306,1655.3028795929306,1.0003705651860941,0.00021423161646820678
1655.3098242377218,1655.3098242377218,0.9998565834047632,0.00021411264712883977
1655.3167688824208,1655.3167688824208,0.9997566713510491,0.00021406552177378598
1655.3237135272125,1655.3237135272125,1.00002779719556,0.0002140096596681919
1655.3306581718175,1655.3306581718175,0.9999180418175218,0.00021383744500614254
1655.3376028166094,1655.3376028166094,1.0001583671913299,0.0002138705428334704
1655.3445474612145,1655.3445474612145,0.9998804175539953,0.0002138072787870358
1655.35149210582,1655.35149210582,0.9999348776519994,0.000213837071470172
1655.3584367505184,1655.3584367505184,1.0001309145130632,0.0002137274445579557
1655.3653813951241,1655.3653813951241,0.9999983644255794,0.00021381131824776365
1655.3723260397292,1655.3723260397292,1.000341223179954,0.00021380559008877097
1655.3792706843346,1655.3792706843346,0.9998240960174071,0.00021373803484470372
1655.3862153288471,1655.3862153288471,0.9999348240336634,0.00021370785682206864
1655.3931599733592,1655.3931599733592,0.9995730773537854,0.00021352265814016238
1655.4001046179649,1655.4001046179649,1.0001616948857004,0.00021379644016828863
1655.4078826197624,1655.4078826197624,0.9999035664210204,0.00021364366642855626
1655.4153828357983,1655.4153828357983,0.9998044321378368,0.00021366345152719785
1655.4223274803105,1655.4223274803105,0.9995765117609219,0.00021358781997265407
1655.4292721247293,1655.4292721247293,0.9998015346872758,0.00021367447728007252
1655.4362167691488,1655.4362167691488,1.0001827869779591,0.0002135428798124206
1655.443161413475,1655.443161413475,1.0004610255856816,0.00021363986282420694
1655.450106057894,1655.450106057894,0.9997347978840769,0.00021369177043170168
1655.4570507023132,1655.4570507023132,1.0003532749094683,0.0002137499159849384
1655.463995346546,1655.463995346546,1.0001476079653668,0.00021371063205442433
1655.470939990965,1655.470939990965,0.9999189511807233,0.0002137286411239181
1655.4778846352906,1655.4778846352906,0.9997431428126136,0.00021364785102526534
1655.4848292795236,1655.4848292795236,0.9997141093237453,0.0002137267571996062
1655.4917739237567,1655.4917739237567,0.999989333687979,0.0002137533787715985
1655.4987185680827,1655.4987185680827,0.9997986014196918,0.00021364114125410456
1655.5056632121293,1655.5056632121293,0.9999216539962419,0.00021373306425505095
1655.5126078565481,1655.5126078565481,1.0004447332683775,0.00021387869145672974
1655.5195525006882,1655.5195525006882,0.9998064783046907,0.00021381437315396522
1655.5264971447348,1655.5264971447348,0.9999738828983187,0.00021389060217343682
1655.5334417887811,1655.5334417887811,0.9998129538371356,0.00021389234074848756
1655.5403864332002,1655.5403864332002,1.0000505632175343,0.00021388880111230897
1655.5473310773402,1655.5473310773402,0.9998560487544964,0.00021388729477417423
1655.5542757213868,1655.5542757213868,1.0003224649346831,0.0002139588301733447
1655.5612203654332,1655.5612203654332,0.9999094863679197,0.0002139906600076051
1655.5681650094798,1655.5681650094798,0.9998741090487371,0.00021393571100862497
1655.5751096535264,1655.5751096535264,1.0000382537958248,0.00021396724537462304
1655.582054297573,1655.582054297573,0.9997547010534884,0.00021395479864546961
1655.5889989413402,1655.5889989413402,1.0000040174216094,0.00021399702016858482
1655.5959435852005,1655.5959435852005,0.9999431630743529,0.00021394209931021704
1655.6028882292471,1655.6028882292471,0.9999209811367754,0.00021400094110401684
1655.6098328732937,1655.6098328732937,1.000357109825692,0.00021400585199328977
1655.616777517061,1655.616777517061,1.0003914025786442,0.0002139809347012929
1655.6237221609213,1655.6237221609213,1.0002162150267118,0.0002139487831684885
1655.6306668049674,1655.6306668049674,1.0004643344143973,0.0002140459058328055
1655.637611448549,1655.637611448549,0.9998289511346184,0.0002139303503368208
1655.6445560925954,1655.6445560925954,0.9999339439408035,0.00021383183154625898
1655.6515007361759,1655.6515007361759,0.9995200511596307,0.00021382982001298846
1655.6584453800365,1655.6584453800365,1.000164726169258,0.00021371500737411842
1655.6653900238039,1655.6653900238039,0.9999788612205744,0.0002137891935299061
1655.6723346674778,1655.6723346674778,0.9996680723183555,0.00021379176230530106
1655.6792793111515,1655.6792793111515,1.00011890087345,0.00021375343731630547
1655.6862239549187,1655.6862239549187,1.0005682611691658,0.0002137210843310514
1655.6931685985933,1655.6931685985933,0.9995703279988162,0.00021358243736520032
