time,time,flux,flux_err
1599.9647911799404,1599.9647911799404,1.0000172051398546,0.0002966644601317931
1599.9777545904035,1599.9777545904035,1.0000706881115715,0.00029661363490931207
1599.9931717891468,1599.9931717891468,0.9999445482245214,0.00027071926976666305
1600.00344992158,1600.00344992158,0.9998946127345574,0.0002707421458242493
1600.0103946055885,1600.0103946055885,0.9996566838613716,0.00027066301985294457
1600.0187282265106,1600.0187282265106,0.9999739299095755,0.0002706403408424023
1600.0270618472464,1600.0270618472464,1.0001522157581475,0.00027074552814375906
1600.0353954679824,1600.0353954679824,1.0004367318047351,0.00027086347182172425
1600.045395812791,1600.045395812791,1.00021953648967,0.0002707509246345911
1600.0542850081245,1600.0542850081245,0.99998383749212,0.00027081098878396895
1600.0631742035507,1600.0631742035507,0.9998238595689191,0.0002706763880448345
1600.0701188871874,1600.0701188871874,1.0004752831510983,0.00027070136085084794
1600.0770635709164,1600.0770635709164,0.9992971616481249,0.0002705339747690084
1600.0840082549246,1600.0840082549246,0.9999258144587493,0.00027058735952046394
1600.0915085132522,1600.0915085132522,0.999760700497878,0.00027056672647496636
1600.1006754956516,1600.1006754956516,1.0002012399432416,0.0002705363169408817
1600.1076201792876,1600.1076201792876,1.0001456211855282,0.0002705953692619142
1600.1145648629238,1600.1145648629238,1.0001813923357572,0.00027030580329405544
1600.12150954656,1600.12150954656,1.0000255557219477,0.00027033163361105355
1600.129287592232,1600.129287592232,1.000212535375753,0.0002702334795715626
1600.1367878500932,1600.1367878500932,1.0001385086351646,0.000270276779254437
1600.1437325337297,1600.1437325337297,0.9994744964826386,0.00026998603544575977
1600.1506772173652,1600.1506772173652,0.9997370739983603,0.00026987609797131346
1600.1576219005362,1600.1576219005362,0.9996325510088543,0.00026979760858347344
1600.164566584172,1600.164566584172,1.0003583699859322,0.0002698533225396011
1600.1726224167244,1600.1726224167244,0.9995445661440934,0.00026954792618891514
1600.1812338240607,1600.1812338240607,1.000164231963807,0.00026958310641798494
1600.1881785074177,1600.1881785074177,1.0002071633897462,0.0002695838338958276
1600.1951231906805,1600.1951231906805,1.0005511540995966,0.00026944658946410525
1600.203179023233,1600.203179023233,1.000048630296804,0.0002692914406037848
1600.210401493749,1600.210401493749,0.9997849618057139,0.0002692836132859583
1600.2173461769194,1600.2173461769194,1.001460688755547,0.0002691393764188436
1600.2242908600897,1600.2242908600897,0.9996760631463175,0.00026916446503555706
1600.2323466925486,1600.2323466925486,1.0002252555998825,0.00026929256660983405
1600.2412358867646,1600.2412358867646,0.9997863453775206,0.0002691022592186352
1600.2492917191307,1600.2492917191307,0.9996614807344202,0.00026921460483266213
1600.2570697641509,1600.2570697641509,1.0000478932914014,0.0002691317036297081
1600.2656811709282,1600.2656811709282,1.0004102748822752,0.000269144621075006
1600.272903641258,1600.272903641258,0.9997234905777781,0.000269195325349777
1600.279848324149,1600.279848324149,1.0000364056841375,0.0002692538822424359
1600.28679300704,1600.28679300704,0.9994910213511433,0.00026915277815402693
1600.294015477183,1600.294015477183,0.9998432656645285,0.00026927386304422327
1600.3023490964292,1600.3023490964292,0.9998777933819845,0.0002691694825012516
1600.3104049285153,1600.3104049285153,0.9999512040756233,0.0002692401947710277
1600.3173496112206,1600.3173496112206,1.0005150641952079,0.0002692532910197787
1600.324294293925,1600.324294293925,1.000531328068519,0.00026927723011118944
1600.332350125825,1600.332350125825,1.0006667642366296,0.00026933100882365355
1600.3395725956893,1600.3395725956893,1.0003960294551995,0.00026938185525388693
1600.3465172783012,1600.3465172783012,1.000777644342224,0.00026942576507377896
1600.3534619608192,1600.3534619608192,1.0001328811308845,0.00026934572309153835
1600.3604066435241,1600.3604066435241,0.9994650699736962,0.0002693623801346833
1600.3673513259496,1600.3673513259496,0.9998622295761423,0.0002694521589659667
1600.3742960084678,1600.3742960084678,0.9997621472258216,0.00026944482136399817
1600.381240690707,1600.381240690707,0.9995987016159082,0.00026943609000357443
1600.3881853731323,1600.3881853731323,0.9994081340816059,0.00026938723768677407
1600.3951300555577,1600.3951300555577,0.999274591545942,0.0002692180463392054
1600.4020747378902,1600.4020747378902,0.999266622316061,0.000269068577819819
1600.4092972073809,1600.4092972073809,0.9999679145745535,0.0002690475376527175
1600.4184641881043,1600.4184641881043,0.9996355501812261,0.0002689900947607807
1600.4256866575029,1600.4256866575029,0.9997623154128409,0.00026887950930834173
1600.4326313397416,1600.4326313397416,1.0002099610719941,0.00026866054556259395
1600.4395760218874,1600.4395760218874,1.000764914914413,0.0002684619856022414
1600.4465207039407,1600.4465207039407,1.0007116718840992,0.0002685345666842953
1600.453465385993,1600.453465385993,1.0008515296347182,0.00026835058961952366
1600.4604100681395,1600.4604100681395,1.0004990210999676,0.0002683831165983427
1600.4673547500988,1600.4673547500988,1.0005545547682206,0.00026822904305241004
1600.4742994321516,1600.4742994321516,1.0000258985191008,0.00026814776235629267
1600.4812441140186,1600.4812441140186,0.9999258432846169,0.00026806647552438513
1600.488188795885,1600.488188795885,0.9998583232182672,0.0002680617176089662
1600.4951334778445,1600.4951334778445,1.000462511043845,0.0002680208688650281
1600.5020781597111,1600.5020781597111,0.9994978516562625,0.00026782466938092217
1600.5090228414842,1600.5090228414842,0.9995559972697521,0.0002679413479076046
1600.5159675232583,1600.5159675232583,0.9999054671325901,0.00026799393442552595
1600.5237455668819,1600.5237455668819,0.9998209469952168,0.0002678740843977078
1600.531245823066,1600.531245823066,1.0000372990931707,0.00026768349174511387
1600.5381905046536,1600.5381905046536,0.9999591303254849,0.0002678899928344774
1600.5451351864267,1600.5451351864267,0.9998830358247769,0.00026785462200324496
1600.5545799533782,1600.5545799533782,1.000232106278066,0.00026786193517822467
1600.5618024220312,1600.5618024220312,1.0001571939010372,0.0002678277621963861
1600.5687471037113,1600.5687471037113,1.0001023447267259,0.00026786879904411185
1600.5756917851122,1600.5756917851122,1.0004291520197872,0.0002678651783863163
1600.5826364664197,1600.5826364664197,0.9991300053376406,0.00026764951586689674
1600.589581147821,1600.589581147821,0.9996756881329217,0.000267810249721946
1600.597359191258,1600.597359191258,1.0003534310030637,0.00026784629994373985
1600.6048594470703,1600.6048594470703,0.9999360265889841,0.00026785881198774716
1600.6118041283785,1600.6118041283785,1.0001729046820198,0.00026784693870297226
1600.6187488094063,1600.6187488094063,0.9994548014585787,0.00026779403649877375
1600.6256934905282,1600.6256934905282,1.0000591637153018,0.0002678367584538808
1600.6326381718359,1600.6326381718359,1.0002380601450311,0.00026777842450973757
1600.6395828531436,1600.6395828531436,1.0001987222555342,0.00026772794208340455
1600.6465275339858,1600.6465275339858,1.0000179252961572,0.0002676875107729145
1600.6534722152933,1600.6534722152933,0.9999258083269662,0.00026774902830803545
1600.6615280451447,1600.6615280451447,0.9993539468709688,0.0002675290731417902
1600.6687505134257,1600.6687505134257,1.0003069376450822,0.000267722869147383
1600.6756951944537,1600.6756951944537,1.00009894956885,0.00026768577689205035
1600.6826398752958,1600.6826398752958,1.0001547737972778,0.00026762665999445804
1600.6895845562312,1600.6895845562312,0.9995170307203457,0.0002675519511475753
1600.6965292370728,1600.6965292370728,0.9999061382284369,0.0002676209735654356
1600.7037517050746,1600.7037517050746,1.0002973259913865,0.00026749405864638144
1600.7118075348328,1600.7118075348328,1.0000559346807154,0.00026755807961559964
1600.7187522155812,1600.7187522155812,1.0004613838305592,0.00026744554752466574
1600.7256968961444,1600.7256968961444,0.9999658447235935,0.0002674426646307321
1600.7326415768932,1600.7326415768932,0.9998572251918739,0.00026725069544678617
1600.7395862574558,1600.7395862574558,0.9995411398000051,0.00026735200324057024
1600.7465309381118,1600.7465309381118,1.0001547260201642,0.0002673564398443784
1600.7534756186742,1600.7534756186742,1.0003036764234263,0.0002671837432085643
1600.7609758735553,1600.7609758735553,1.0001427866869725,0.0002673421000810714
1600.7698650646048,1600.7698650646048,0.999769560845239,0.0002672388343198784
1600.7801431916366,1600.7801431916366,1.0005770834188543,0.00026737232453275515
1600.7881990208361,1600.7881990208361,1.0001359015220754,0.00026740878995977295
1600.7954214882782,1600.7954214882782,0.9997582310883569,0.0002673892404786082
1600.803477317478,1600.803477317478,1.0000165855469092,0.0002673398378381534
1600.8104219977608,1600.8104219977608,1.000002262603596,0.0002674498723495055
1600.8173666779514,1600.8173666779514,1.0000463634137842,0.0002673422345274755
1600.8243113581416,1600.8243113581416,0.9998315605956039,0.0002672862739395616
1600.8312560382387,1600.8312560382387,0.9999391120236585,0.0002673547877681945
1600.8382007183354,1600.8382007183354,1.0000262292920032,0.0002673494825817863
1600.8451453983394,1600.8451453983394,0.9999218768020806,0.00026727393165098694
1600.852090078343,1600.852090078343,0.9997382959864336,0.0002669463941110136
1600.8590347583472,1600.8590347583472,1.000292303048094,0.0002671128671709888
1600.865979438258,1600.865979438258,1.0000838392238276,0.0002670539693362988
1600.8729241181686,1600.8729241181686,1.0002004130947018,0.00026710918055247496
1600.8798687979863,1600.8798687979863,1.0002256903989895,0.00026712674008218246
1600.8868134778972,1600.8868134778972,0.9997881095776309,0.0002670015726473345
1600.8948693064444,1600.8948693064444,0.9998246420170336,0.0002670451677879434
1600.903480709217,1600.903480709217,0.9998485696905048,0.0002669795127551081
1600.9104253889418,1600.9104253889418,0.9998041012280329,0.000267008227442109
1600.9173700685728,1600.9173700685728,0.9999878463341734,0.0002669703622835137
1600.924314748204,1600.924314748204,1.000113553303121,0.0002669268196119713
1600.931259427743,1600.931259427743,0.9996764481114591,0.000266824527050445
1600.9382041072806,1600.9382041072806,1.00059620572973,0.0002668339483285353
1600.9451487868191,1600.9451487868191,0.9999873910744931,0.0002668627240568425
1600.9520934662644,1600.9520934662644,0.9998139707626734,0.00026667531503358946
1600.9590381457087,1600.9590381457087,1.0006921380535287,0.00026687534294572604
1600.9659828250612,1600.9659828250612,0.9997997080202602,0.00026657693085815025
1600.9729275043198,1600.9729275043198,0.9998541708990636,0.00026667736605084393
1600.980149970831,1600.980149970831,0.9998668659963783,0.00026669627013604393
1600.9882057988202,1600.9882057988202,0.9995570667785227,0.00026669452283481563
1600.9951504778926,1600.9951504778926,1.0001081417122974,0.00026675459012073615
1601.0020951572442,1601.0020951572442,1.000253834412062,0.00026685498985834044
1601.0090398363172,1601.0090398363172,0.9995415646513676,0.0002665181638039359
1601.0159845152964,1601.0159845152964,1.000391766773189,0.0002667628116846192
1601.0229291942755,1601.0229291942755,1.0004891838181913,0.00026665485425531895
1601.0298738732552,1601.0298738732552,0.9999299909256001,0.0002666886622948303
1601.0368185522343,1601.0368185522343,0.9999680616657578,0.00026662381168544776
1601.0437632312141,1601.0437632312141,1.0002552048999722,0.00026667926687680676
1601.0507079101935,1601.0507079101935,1.0002771063407283,0.0002666863156476736
1601.0590415249687,1601.0590415249687,1.0000371691837842,0.00026665290045212165
1601.0659862035752,1601.0659862035752,0.9995371710201411,0.0002665976111137897
1601.074319818258,1601.074319818258,0.9999137357776261,0.00026670989526964993
1601.0812644967718,1601.0812644967718,1.000531262128107,0.00026667619506413307
1601.0882091755643,1601.0882091755643,0.9998698994533697,0.00026682739751188926
1601.0951538541717,1601.0951538541717,1.000051257934158,0.0002666869588181785
1601.1032096813224,1601.1032096813224,0.9995682287356036,0.00026672709384247103
1601.1112655083793,1601.1112655083793,0.9998273371403588,0.0002667247365518839
1601.1187657612118,1601.1187657612118,1.0002598775337876,0.0002667864764264265
1601.1257104396325,1601.1257104396325,1.0004446140219327,0.000266832001590747
1601.1326551181457,1601.1326551181457,0.9999365642608989,0.0002668664679902965
1601.1395997963805,1601.1395997963805,0.999852402857188,0.0002667989669837636
1601.1465444748012,1601.1465444748012,0.9997594534234834,0.0002670016297830082
1601.1534891530355,1601.1534891530355,0.999819381982604,0.00026686351172420034
1601.160433831363,1601.160433831363,1.0001768979196017,0.00026696075945374794
1601.1673785095973,1601.1673785095973,0.9999610573418458,0.00026693643404817805
1601.1743231876453,1601.1743231876453,1.0000222634460918,0.0002670287062270661
1601.1812678658794,1601.1812678658794,0.9999874951839891,0.00026702323472760456
1601.1882125439276,1601.1882125439276,1.00019597133797,0.00026699445441878943
1601.1951572218827,1601.1951572218827,0.9999775403994396,0.0002669658797924241
1601.2021018999308,1601.2021018999308,0.9998361785879585,0.00026687139151411595
1601.2090465778858,1601.2090465778858,0.9999464059017544,0.0002670009524842892
1601.2159912558407,1601.2159912558407,0.999867534243901,0.00026692214174404294
1601.2229359336097,1601.2229359336097,1.0004715194554732,0.00026694732596895833
1601.229880611471,1601.229880611471,0.999952090080679,0.000266984902111909
1601.23682528924,1601.23682528924,1.0000903239534746,0.00026687737442121484
1601.243769967102,1601.243769967102,1.0000820156396208,0.0002669294284483261
1601.2507146447774,1601.2507146447774,0.9995206293769561,0.00026684577982303805
1601.257659322453,1601.257659322453,0.9997530899961031,0.0002668762965293438
1601.2646040000354,1601.2646040000354,1.0001582409628125,0.00026696484570500474
1601.2715486776174,1601.2715486776174,1.0001726479553739,0.0002671055923140848
1601.2784933552005,1601.2784933552005,1.0000718826087218,0.00026679730321588256
1601.2854380326899,1601.2854380326899,0.9996474971888614,0.0002669564689133748
1601.2923827100853,1601.2923827100853,1.0006624667900341,0.0002669462838389864
1601.2993273875757,1601.2993273875757,0.9997757718617635,0.00026681660019734675
1601.3062720648782,1601.3062720648782,1.000460554120832,0.0002670352339032433
1601.3132167422743,1601.3132167422743,0.9999961624581069,0.00026686034660669013
1601.3201614194845,1601.3201614194845,0.9995159642611533,0.000266854332545965
1601.3271060966938,1601.3271060966938,0.9995050052322603,0.0002668409959266161
1601.3340507739972,1601.3340507739972,1.0003903996348966,0.00026699563476927795
1601.340995451114,1601.340995451114,0.9999913462518805,0.00026702598715310356
1601.34794012823,1601.34794012823,0.9995011136213691,0.0002668565992325411
1601.3548848052544,1601.3548848052544,1.0000674018997373,0.00026689508860314865
1601.3618294823714,1601.3618294823714,1.0001483753353688,0.0002670031652926215
1601.3687741593944,1601.3687741593944,1.0004707622978697,0.00026697581831175156
1601.375718836139,1601.375718836139,1.0003266967213587,0.0002670776269341717
1601.382663513256,1601.382663513256,1.0001448181598966,0.0002670266500052142
1601.3896081899063,1601.3896081899063,0.9998401961725973,0.0002669452741036899
1601.3965528669305,1601.3965528669305,0.9995568812130587,0.0002669671206603734
1601.4034975436746,1601.4034975436746,0.9999404328129187,0.0002669996633157173
1601.4104422203259,1601.4104422203259,0.9994782493044785,0.0002668713661787214
1601.417386896977,1601.417386896977,0.9999994495173729,0.0002670405585873796
1601.424331573628,1601.424331573628,1.0005835248429311,0.0002670758480566303
1601.431276250279,1601.431276250279,1.0000338265030266,0.00026698373666891103
1601.4382209269304,1601.4382209269304,1.0003607991970813,0.0002670730815717307
1601.4451656032088,1601.4451656032088,0.9998593218824954,0.0002669956872080999
1601.4521102797667,1601.4521102797667,1.0000355189738668,0.00026705003006191743
1601.459054956232,1601.459054956232,1.0000701629847137,0.00026706210778926264
1601.4659996326031,1601.4659996326031,0.9998571211488482,0.00026697803591088393
1601.472944308882,1601.472944308882,1.000433051412206,0.00026716097549249126
1601.4798889852536,1601.4798889852536,1.0001853207390101,0.00026712009689951156
1601.486833661439,1601.486833661439,1.0001597964019058,0.00026712966685044933
1601.4937783376245,1601.4937783376245,1.0001183456972813,0.00026712539936478826
1601.5007230138103,1601.5007230138103,0.9999872171768486,0.00026709395512062
1601.507667689902,1601.507667689902,0.9995293158758152,0.0002669949855347417
1601.5146123659945,1601.5146123659945,1.0001107172439807,0.00026702042016546956
1601.521557041994,1601.521557041994,1.0002328676164567,0.0002670751604807574
1601.5285017179929,1601.5285017179929,0.9999388632478071,0.00026705133357440055
1601.5354463939923,1601.5354463939923,1.0000565558080634,0.0002670582717399959
1601.5423910698983,1601.5423910698983,0.9998709019028377,0.00026716020509332173
1601.5493357457103,1601.5493357457103,1.0003599974354163,0.00026711779783115274
1601.5562804215242,1601.5562804215242,1.0003551477332604,0.00026720540698164415
1601.563225097244,1601.563225097244,0.9998585836960381,0.0002671353317718104
1601.5701697729637,1601.5701697729637,0.9997469862567405,0.000267160125096605
1601.5771144486835,1601.5771144486835,1.000013190375665,0.000267097045351979
1601.58405912431,1601.58405912431,0.9999912494675373,0.00026714205733020146
1601.5910037998435,1601.5910037998435,1.0006313144344567,0.000267197730865891
1601.5979484753775,1601.5979484753775,0.9995225706581337,0.00026710580374757355
1601.6048931508176,1601.6048931508176,0.9996622256877412,0.00026723369103483544
1601.611837826351,1601.611837826351,1.0002178175561405,0.0002671475674062561
1601.6187825017919,1601.6187825017919,0.9999811696699892,0.0002672163977049895
1601.6257271770453,1601.6257271770453,1.0001709075879168,0.0002671869935788638
1601.6326718524858,1601.6326718524858,1.0006231618102364,0.00026717648059096025
1601.6396165277401,1601.6396165277401,1.0000766119349849,0.0002670949785761411
1601.6465612029008,1601.6465612029008,0.9996450178873317,0.0002670874371877708
1601.653505878155,1601.653505878155,0.999879161392671,0.0002670765100563773
1601.660450553223,1601.660450553223,0.9996803611256195,0.0002671166357507985
1601.6673952282904,1601.6673952282904,1.0000094984299153,0.00026709208908562757
1601.6743399034517,1601.6743399034517,1.0001757234066972,0.00026708137957311785
1601.6812845783334,1601.6812845783334,0.9999331239863162,0.00026711833363983603
1601.688229253401,1601.688229253401,0.9998905401774968,0.00026705619938276247
1601.6951739282827,1601.6951739282827,1.0002315280665537,0.0002671062293598442
1601.7021186030713,1601.7021186030713,0.9999746174129636,0.00026709196470312306
1601.7090632779527,1601.7090632779527,1.000245254260231,0.0002670671991215796
1601.7160079527414,1601.7160079527414,1.0005166178546014,0.00026715314001605513
1601.7229526274368,1601.7229526274368,0.9999821446671978,0.00026709243522373663
1601.7298973020388,1601.7298973020388,0.9997275676656774,0.00026699463887648703
1601.7368419768272,1601.7368419768272,1.0000213655176255,0.0002670733737273714
1601.7437866512432,1601.7437866512432,0.999229300936371,0.00026693612924649074
1601.7507313259384,1601.7507313259384,0.9998716088784775,0.0002671719714440002
1601.7576760002612,1601.7576760002612,1.0001801407130542,0.0002670933328958314
1601.7646206748639,1601.7646206748639,1.0000328911606713,0.0002670612387007728
1601.771565349372,1601.771565349372,0.9999035212674977,0.00026698578251409526
1601.7785100236954,1601.7785100236954,1.0003748332521838,0.0002670568992122047
1601.7854546980182,1601.7854546980182,0.9996905466638774,0.0002669722534466099
1601.792399372341,1601.792399372341,1.0005980157233847,0.00026705499160121647
