time,time,flux,flux_err
1570.5440480020125,1570.5440480020125,0.9996893247905743,0.00014036398771707695
1570.5523815417039,1570.5523815417039,0.9991162545383622,0.00014014874912343276
1570.5593261580825,1570.5593261580825,0.9987911609554626,0.00013998782814724192
1570.5662707745544,1570.5662707745544,1.001370370856565,0.00013995031668594238
1570.5732153911204,1570.5732153911204,1.0006768935056682,0.00013977248692975113
1570.580160007778,1570.580160007778,1.0016703414995936,0.0001396349827886529
1570.587104624436,1570.587104624436,0.9995470059909559,0.00013944765028383062
1570.5940492410941,1570.5940492410941,1.0006171735320937,0.00013934185354889657
1570.6009938579386,1570.6009938579386,1.0005547471730643,0.00013920180904085908
1570.6084940441647,1570.6084940441647,1.000088014551023,0.00013903963014875217
1570.6162720150342,1570.6162720150342,1.0006878028978707,0.00013893539849270145
1570.6232166318782,1570.6232166318782,0.9999691816545699,0.00013876766932376921
1570.6307168182898,1570.6307168182898,0.9989632054799487,0.00013862046492076836
1570.6384947893464,1570.6384947893464,0.9991522761846957,0.00013850485325760418
1570.6454394064704,1570.6454394064704,0.9995141532970117,0.00013838946164589381
1570.6523840235006,1570.6523840235006,1.0002267318987386,0.00013826675107919486
1570.6593286408104,1570.6593286408104,1.0006686510869751,0.00013814494615131998
1570.6662732580273,1570.6662732580273,0.9992036448461643,0.00013795184253005926
1570.6732178753384,1570.6732178753384,1.0012966047455583,0.0001378854374726863
1570.6801624925552,1570.6801624925552,1.000410763535233,0.00013770441430578463
1570.6871071099583,1570.6871071099583,0.9992795917249856,0.00013753823951217836
1570.6940517273613,1570.6940517273613,1.000138678459857,0.0001373989183793307
1570.7009963448575,1570.7009963448575,0.9996548869764709,0.000137224923567127
1570.7079409623545,1570.7079409623545,0.9997715348256813,0.0001370831776988032
1570.714885579851,1570.714885579851,0.999491867538822,0.00013691303568465272
1570.7218301974403,1570.7218301974403,1.0005573545491508,0.00013679989399614526
1570.7287748151225,1570.7287748151225,1.000160501525543,0.00013662012052140192
1570.735719432712,1570.735719432712,0.9995479037370976,0.00013646101058609195
1570.742664050396,1570.742664050396,1.0007270467901699,0.00013633743271934781
1570.749608668078,1570.749608668078,0.9992810807982451,0.00013611667804309707
1570.7565532859467,1570.7565532859467,1.0007230216414624,0.00013599614501200578
1570.763497903629,1570.763497903629,1.0005631946684808,0.00013588357834918457
1570.770442521498,1570.770442521498,0.9996576400632504,0.00013573525593805582
1570.7773871393679,1570.7773871393679,0.9998255026487419,0.00013564474626770603
1570.7843317573293,1570.7843317573293,0.9990522207217299,0.00013549882694705015
1570.791276375198,1570.791276375198,1.0007281946267748,0.00013547627067636158
1570.7982209931602,1570.7982209931602,0.9997318248552792,0.00013534577545954932
1570.8051656111215,1570.8051656111215,1.0004756611380192,0.0001352653832381685
1570.8121102291782,1570.8121102291782,0.9999766088668627,0.0001351782425240239
1570.8190548472328,1570.8190548472328,0.9995613839407455,0.0001350746044755889
1570.825999465474,1570.825999465474,0.9991703408879807,0.00013499849683194087
1570.8329440834361,1570.8329440834361,0.9997701706911798,0.00013491279953923582
1570.8398887016772,1570.8398887016772,0.999114788253532,0.00013479386397463264
1570.8468333198266,1570.8468333198266,1.0011991742689663,0.00013478199234515426
1570.8537779380677,1570.8537779380677,1.000458067521396,0.000134675392864877
1570.8607225562157,1570.8607225562157,0.9991163952137386,0.00013456008874910332
1570.8676671746432,1570.8676671746432,0.9998498576068471,0.0001345513238811457
1570.874611792698,1570.874611792698,0.9997054947262214,0.00013446853249118035
1570.8826675499822,1570.8826675499822,1.0005792803369107,0.000134425610921245
1570.8898899531468,1570.8898899531468,1.000050589283394,0.00013435384100256835
1570.8968345715741,1570.8968345715741,0.9998977954570588,0.00013430669503011516
1570.9037791900016,1570.9037791900016,0.9998093375175398,0.0001342540251668944
1570.9107238084293,1570.9107238084293,1.000033744560285,0.00013420049318923347
1570.917668426858,1570.917668426858,1.000139706880447,0.0001341483145472126
1570.9246130452852,1570.9246130452852,0.9998089060785371,0.00013409311306124744
1570.9315576637125,1570.9315576637125,0.9990756866649214,0.00013402420826969826
1570.9385022821402,1570.9385022821402,1.0009425189766268,0.00013400540867425815
1570.945446900568,1570.945446900568,0.9993194941440061,0.00013392242521668909
1570.9523915191826,1570.9523915191826,0.9987699467255137,0.00013388835962315979
1570.9593361378897,1570.9593361378897,1.0004540036737417,0.00013388458553858048
1570.9662807563168,1570.9662807563168,0.999054536433437,0.0001337888544097922
1570.9732253749307,1570.9732253749307,0.9995419623446589,0.00013374599957437976
1570.9801699936374,1570.9801699936374,0.9997232700865821,0.00013368219707843008
1570.987114612066,1570.987114612066,1.0002084959479356,0.00013363861165239125
1570.9940592309597,1570.9940592309597,0.9998888055711864,0.0001335991518157402
1571.001003849387,1571.001003849387,1.0000440932331682,0.00013354266658691165
1571.00794846828,1571.00794846828,1.0006600780720987,0.0001335008840671489
1571.0148930868006,1571.0148930868006,0.9992492674004321,0.00013342454757643882
1571.0218377056015,1571.0218377056015,0.9992363665382579,0.0001333504437197722
1571.0287823243088,1571.0287823243088,1.0003223781428006,0.00013332901809475517
1571.0357269430156,1571.0357269430156,1.0011572064218235,0.00013329945802639743
1571.0426715618155,1571.0426715618155,1.0009374231775237,0.00013325546300772904
1571.0496161806157,1571.0496161806157,0.9976130295890269,0.00013316663130308312
1571.056560799323,1571.056560799323,1.0000389954797813,0.00013317858099449242
1571.063505418124,1571.063505418124,0.9998159274242324,0.0001330886815334279
1571.0704500369236,1571.0704500369236,0.9997838067630951,0.00013305765098490843
1571.077394655724,1571.077394655724,0.9996855007486927,0.00013297305819717507
1571.084339274617,1571.084339274617,1.0003545394172444,0.00013293758235124835
1571.0912838934175,1571.0912838934175,1.0000547746232467,0.00013287173627672306
1571.0982285122182,1571.0982285122182,1.0002445750259166,0.000132817293790728
1571.1051731311113,1571.1051731311113,1.0004760036038918,0.00013277557129472416
1571.1121177499117,1571.1121177499117,0.9998830935095455,0.0001326868403905674
1571.1190623688042,1571.1190623688042,0.9996030056587035,0.00013263089394836256
1571.1260069876976,1571.1260069876976,0.9999501808613467,0.00013260679848230568
1571.132951606592,1571.132951606592,0.9999719646448998,0.00013255796345512956
1571.139896225485,1571.139896225485,0.9993879884187258,0.0001325004648157254
1571.1468408443784,1571.1468408443784,1.0000478541582452,0.0001324785987055482
1571.153785463271,1571.153785463271,1.0006544068617134,0.00013245514715511418
1571.1607300821645,1571.1607300821645,1.000209248897098,0.00013238220952462
1571.1676747010583,1571.1676747010583,1.0001488449968412,0.00013237210365369434
1571.1746193200452,1571.1746193200452,1.0001693431903322,0.00013232656221222298
1571.1815639389383,1571.1815639389383,0.9995579600958164,0.0001322783860298871
1571.1885085578313,1571.1885085578313,0.9998168272539789,0.00013224694920335077
1571.1954531768176,1571.1954531768176,1.0001747520003124,0.0001322383758574132
1571.2023977957115,1571.2023977957115,0.999516334324324,0.00013218775556125175
1571.2093424146983,1571.2093424146983,0.9998451063794871,0.00013217181570834014
1571.2162870335912,1571.2162870335912,1.0002799006491723,0.0001321696213608977
1571.2232316525776,1571.2232316525776,1.0004019569583564,0.00013213732417108011
1571.2301762715638,1571.2301762715638,0.9998950297525052,0.00013209181874205384
1571.2371208904576,1571.2371208904576,0.9999744492850215,0.00013208684545291878
1571.2440655094447,1571.2440655094447,1.0003188659750069,0.00013205305665361607
1571.2510101283376,1571.2510101283376,0.9994471305454716,0.0001319879458908128
1571.257954747324,1571.257954747324,1.0003794124410919,0.00013200758668061857
1571.2648993663101,1571.2648993663101,1.0002524210292474,0.00013199486594191786
1571.2718439852035,1571.2718439852035,0.9992640922727938,0.00013193135866854488
1571.278788604191,1571.278788604191,1.0000084955256185,0.00013193853740029143
1571.285733223177,1571.285733223177,0.9998684469525456,0.000131900633405529
1571.2926778420701,1571.2926778420701,1.0006757269165525,0.00013189956492420363
1571.2996224610565,1571.2996224610565,0.9999403286918467,0.0001318158719331182
1571.3065670799497,1571.3065670799497,0.9996079985316362,0.0001318147627945953
1571.3135116989365,1571.3135116989365,0.9999914625880522,0.00013180102478421067
1571.3204563178303,1571.3204563178303,0.9999762461811572,0.0001317580979197551
1571.3274009368167,1571.3274009368167,1.0004642254744205,0.00013172995121833378
1571.3343455557094,1571.3343455557094,0.9999501182062055,0.00013168327454348382
1571.3412901746956,1571.3412901746956,0.9998749144462211,0.00013164167829224978
1571.3482347936824,1571.3482347936824,0.9997638699979035,0.00013163976823989647
1571.3551794125765,1571.3551794125765,1.0002323584037323,0.0001316106137303841
1571.3621240314696,1571.3621240314696,1.0000434288498394,0.00013157598353322647
1571.3690686503628,1571.3690686503628,0.9995362874728663,0.00013153068818470655
1571.376013269349,1571.376013269349,1.0001097008987665,0.00013150890936483654
1571.3829578882423,1571.3829578882423,1.0001370914500136,0.00013148803765315558
1571.3899025071362,1571.3899025071362,1.0000688616038333,0.00013146706685789495
1571.3968471260298,1571.3968471260298,1.0000444644378923,0.00013142000087449648
1571.403791744923,1571.403791744923,0.9997754542314816,0.0001313991184527388
1571.4107363638159,1571.4107363638159,0.9999920749915626,0.0001313954470291598
1571.4176809826163,1571.4176809826163,1.0005771113560693,0.00013140446414058076
1571.424625601509,1571.424625601509,1.0001546809808206,0.00013138965011373497
1571.4315702204033,1571.4315702204033,1.0001598811127486,0.00013135425243061778
1571.4385148392037,1571.4385148392037,0.9993942184975138,0.00013134530470143823
1571.4454594580964,1571.4454594580964,1.0000041367496848,0.00013135343597866974
1571.4524040768968,1571.4524040768968,1.0000478775661215,0.00013136316886125252
1571.45934869579,1571.45934869579,0.9999591387473785,0.0001313395078047414
1571.4662933145905,1571.4662933145905,0.9999610594077513,0.00013133510013895304
1571.4732379333914,1571.4732379333914,0.9994888739568838,0.0001313284931636092
1571.4801825520979,1571.4801825520979,0.9999151844890471,0.0001313725397772162
1571.4871271709908,1571.4871271709908,1.0005292905007828,0.00013139457042232744
1571.494071789791,1571.494071789791,1.0002771219921054,0.00013135135863733325
1571.501016408498,1571.501016408498,0.9998183981242604,0.00013135345479482118
1571.507961027206,1571.507961027206,0.9998558639022826,0.00013135377957909877
1571.5149056460991,1571.5149056460991,1.0006357679902718,0.00013137019751318483
1571.5218502647126,1571.5218502647126,0.9994943971610859,0.00013133893314831136
1571.5287948834198,1571.5287948834198,0.9998372416639392,0.00013131819497538396
1571.5357395022197,1571.5357395022197,0.9998790030367921,0.00013133958164976797
1571.542684120834,1571.542684120834,0.9999142616411296,0.00013137143749026306
1571.5496287396345,1571.5496287396345,0.9999667326414375,0.00013137871403750087
1571.5565733582484,1571.5565733582484,1.0004769463580803,0.00013136492906472007
1571.5635179769554,1571.5635179769554,1.000025229620282,0.0001313532346063131
1571.5704625954759,1571.5704625954759,1.0005162777171024,0.0001313997371902442
1571.5774072142756,1571.5774072142756,1.000186880054417,0.0001313666839223361
1571.5843518327044,1571.5843518327044,0.9994695468490772,0.00013138915758040577
1571.5912964515976,1571.5912964515976,0.9991436786569853,0.00013135759158287573
1571.598241070025,1571.598241070025,0.9999220896164058,0.00013139705884570246
1571.6051856884526,1571.6051856884526,1.0006988038995657,0.00013142862773850045
1571.6121303073455,1571.6121303073455,1.0002523455980055,0.0001314322898103767
1571.6190749257737,1571.6190749257737,0.9995811037579558,0.00013142879553314427
1571.626019544202,1571.626019544202,0.9999812196514005,0.00013144801650408493
1571.6329641626294,1571.6329641626294,0.9997906817589008,0.00013142646853050126
1571.6399087813365,1571.6399087813365,1.0001260049814555,0.00013143187772788847
1571.64685339995,1571.64685339995,1.0003293701868308,0.00013145263899409616
1571.6537980183773,1571.6537980183773,1.0002888067396738,0.00013145573516394697
1571.6607426368057,1571.6607426368057,0.9995618741158372,0.00013145830514818159
1571.667687255234,1571.667687255234,1.0002772841547103,0.0001314749443825807
1571.6746318736612,1571.6746318736612,0.9997257268482052,0.0001314523533456616
1571.6815764920884,1571.6815764920884,1.000103452022874,0.00013146018497518002
1571.688521110516,1571.688521110516,0.9999793544618554,0.00013143827110390872
1571.6954657289434,1571.6954657289434,0.9995080739046995,0.0001314456508340617
1571.7024103470928,1571.7024103470928,1.0001157622196744,0.00013145514409182253
1571.7093549653341,1571.7093549653341,1.0000924235719173,0.00013146886793588883
1571.7162995837614,1571.7162995837614,1.0003579026169536,0.00013144033712148337
1571.7232442021889,1571.7232442021889,1.0002459375838115,0.00013142329782416792
1571.730188820337,1571.730188820337,0.9997699684441683,0.00013143605045118627
1571.7371334385787,1571.7371334385787,1.0000452114514877,0.00013140666395719482
1571.744078057007,1571.744078057007,0.9999114959275925,0.00013140364951956014
1571.7510226749687,1571.7510226749687,0.9996697496861104,0.00013135451229157033
1571.7579672933964,1571.7579672933964,1.000262693698965,0.00013138198206827698
1571.764911911451,1571.764911911451,1.0000066151568219,0.000131341956032361
1571.7718565297855,1571.7718565297855,0.999807792309778,0.00013132647499791372
1571.7788011477478,1571.7788011477478,1.0001584636621104,0.00013132137426561012
1571.7857457659898,1571.7857457659898,0.9994493530322842,0.00013129793566373125
1571.7926903841378,1571.7926903841378,1.0005659166274108,0.00013132979091852944
1571.7996350020996,1571.7996350020996,1.0000501271335565,0.0001312908450043199
1571.8065796201547,1571.8065796201547,1.000105286136718,0.00013131138396121157
1571.8135242382093,1571.8135242382093,0.9999160683913484,0.00013127519271672716
1571.820468856265,1571.820468856265,1.0000489865456752,0.00013129409386565882
1571.8274134743208,1571.8274134743208,1.0003763974005335,0.0001312891674351116
1571.8343580922824,1571.8343580922824,0.9996198341504282,0.00013127165431378644
1571.8413027102445,1571.8413027102445,0.9998142177115839,0.0001312801986766899
1571.8482473281128,1571.8482473281128,0.9999646460515942,0.0001313007529161788
1571.8551919460747,1571.8551919460747,0.9997434786125314,0.00013129653260896722
1571.8621365639442,1571.8621365639442,0.9996773449688021,0.00013130005589275456
1571.8690811818133,1571.8690811818133,1.0005230971861256,0.0001313412833150681
1571.876025799682,1571.876025799682,1.0001546671634778,0.00013128248771842875
1571.8829704174575,1571.8829704174575,1.000077112992257,0.00013127511097115813
1571.8899150353259,1571.8899150353259,0.9998583668665939,0.00013128074158632043
1571.8968596531017,1571.8968596531017,1.000123291193038,0.00013128385301739437
1571.9038042708785,1571.9038042708785,1.0001958931351556,0.00013128754574113436
1571.9107488885609,1571.9107488885609,0.9999197824732926,0.0001312885156927548
1571.9176935062433,1571.9176935062433,0.9994967010582443,0.0001312838179702409
1571.9246381240187,1571.9246381240187,1.0003569752563575,0.0001313402156136008
1571.9315827417013,1571.9315827417013,0.9999036199561242,0.00013129547554131682
1571.9385273592907,1571.9385273592907,1.000186069022441,0.00013132743372945118
1571.9454719767875,1571.9454719767875,1.000046278173802,0.00013134644245425966
1571.9524165944706,1571.9524165944706,1.0001914430724772,0.00013132718861463114
1571.9593612119668,1571.9593612119668,0.9997119177709483,0.00013135363128374746
1571.9663058295555,1571.9663058295555,0.9997813420754843,0.00013136215882246532
1571.9732504470521,1571.9732504470521,1.0000655847333924,0.00013136308532028215
1571.980195064548,1571.980195064548,0.9999177964631073,0.00013137196250768876
1571.987139682045,1571.987139682045,0.9998077567558594,0.00013136466969853634
1571.9940842994486,1571.9940842994486,1.0003424208550997,0.00013139064222144752
1572.0010289168517,1572.0010289168517,1.000184013458345,0.0001313909930978114
1572.0079735342547,1572.0079735342547,0.9997933614602456,0.00013138327843625468
1572.0149181515644,1572.0149181515644,0.9998811836424762,0.00013137616516785452
1572.0218627688741,1572.0218627688741,1.0001652168074362,0.0001314224797201935
1572.028807386092,1572.028807386092,1.0001409634536675,0.0001314339680994677
1572.035752003402,1572.035752003402,0.9997980700495367,0.00013140260021918344
1572.0426966206192,1572.0426966206192,1.000204142321736,0.00013141383069738884
1572.0496412379289,1572.0496412379289,1.0000804549446023,0.00013143736046341588
1572.0565858551454,1572.0565858551454,0.9998164413816726,0.00013143500674393435
1572.0635304722691,1572.0635304722691,0.9993156782322332,0.00013138366799008355
1572.0704750894868,1572.0704750894868,0.9996670008813865,0.0001313901041139313
1572.0774197065177,1572.0774197065177,1.000433525236897,0.0001314140719939898
1572.0843643236415,1572.0843643236415,1.0000357165560942,0.00013138488414015038
1572.0913089406713,1572.0913089406713,1.0006389382527696,0.00013139197739446312
1572.0982535577023,1572.0982535577023,0.9999213327363844,0.00013135288169328855
1572.1051981747328,1572.1051981747328,1.000169278278989,0.0001313479850660335
1572.1121427916703,1572.1121427916703,0.9995454645124789,0.0001313191604678439
1572.1190874086085,1572.1190874086085,0.9998396423141516,0.0001313322297263431
1572.126032025546,1572.126032025546,1.0004475281778002,0.0001313320816507848
1572.13297664239,1572.13297664239,0.9998210441102569,0.00013133366042251932
1572.1399212592346,1572.1399212592346,1.0003373151985742,0.0001313371905112562
1572.1468658760787,1572.1468658760787,0.9998119926725405,0.00013133341557100095
1572.15381049283,1572.15381049283,1.00015707891942,0.00013132827968255603
1572.1607551096754,1572.1607551096754,1.0000170255750156,0.0001313137202066065
1572.167699726333,1572.167699726333,1.000249556260462,0.00013131765277086461
1572.1746443430843,1572.1746443430843,0.9992208167772316,0.00013130556319283917
1572.1815889597424,1572.1815889597424,0.9997488099311852,0.0001313319522003826
1572.1885335764,1572.1885335764,1.0002972097673042,0.00013132583742478057
1572.1954781929649,1572.1954781929649,1.0006713925560922,0.00013136051215382978
1572.2024228096238,1572.2024228096238,1.0004663977578026,0.00013135931521763723
1572.209367426096,1572.209367426096,0.9997092073281438,0.00013134761664555965
1572.2163120426608,1572.2163120426608,0.9999036372058427,0.0001313276937209137
1572.2232566591324,1572.2232566591324,0.9995651697233928,0.00013130560093528213
1572.2302012756038,1572.2302012756038,0.9993541207764729,0.00013131677099060144
1572.2371458920754,1572.2371458920754,1.0001571217759948,0.00013132602718520875
1572.244090508362,1572.244090508362,1.000132706458817,0.0001313482140753969
1572.251035124834,1572.251035124834,1.0000942057321798,0.000131315505531417
1572.257979741026,1572.257979741026,1.0003312958648913,0.0001312952847478636
1572.2649243574983,1572.2649243574983,0.9999526087545064,0.0001312751763887994
1572.2718689736905,1572.2718689736905,1.0000215927717349,0.0001312691761280568
1572.2788135897895,1572.2788135897895,0.9999017159434912,0.00013125992656423262
1572.2857582062618,1572.2857582062618,1.000247727789842,0.00013126503080527176
1572.2927028224547,1572.2927028224547,0.9999861078846392,0.00013125905687853256
