time,time,flux,flux_err
1325.299830958956,1325.299830958956,1.0001855868309224,0.00014924672689514408
1325.3081643916455,1325.3081643916455,0.9998815300629667,0.0001492604106535222
1325.3164978245104,1325.3164978245104,1.000007201924792,0.00014928712548623215
1325.3248312575784,1325.3248312575784,0.9998094637456788,0.00014931358497636947
1325.3324702380137,1325.3324702380137,1.0000189676578093,0.0001363439504922201
1325.33941476582,1325.33941476582,0.9999671325984686,0.00013637678155728548
1325.3463592937546,1325.3463592937546,0.9999794970089433,0.00013641322952958219
1325.3533038217943,1325.3533038217943,0.9999531413594885,0.0001364592756572532
1325.3602483499612,1325.3602483499612,0.9999456791925269,0.0001365232418357048
1325.3671928782685,1325.3671928782685,1.0002727580886552,0.0001365901851684026
1325.3741374066453,1325.3741374066453,1.000093238608922,0.0001366157943605604
1325.3810819351504,1325.3810819351504,1.0000416965947632,0.0001366676350552029
1325.3880264637717,1325.3880264637717,0.9999298972948788,0.00013670095511797073
1325.394970992521,1325.394970992521,0.9999468952710666,0.00013676100399038504
1325.4019155213753,1325.4019155213753,0.9999974134737932,0.00013681217381599783
1325.4088600503223,1325.4088600503223,0.9999128862893578,0.00013684680770764346
1325.4158045793747,1325.4158045793747,1.0002048993708852,0.00013691944108628574
1325.4227491085664,1325.4227491085664,0.9997765971271331,0.00013694490792397467
1325.429693637828,1325.429693637828,0.9998191932836022,0.00013700149194312131
1325.4366381671946,1325.4366381671946,1.0000483643041094,0.00013707590434744357
1325.4435826966887,1325.4435826966887,1.0001267158470175,0.00013712405154999704
1325.4505272262534,1325.4505272262534,1.0001470399629369,0.0001371822728761251
1325.4574717559458,1325.4574717559458,1.0000662548286703,0.0001372300744099949
1325.4644162857428,1325.4644162857428,0.9998080772070553,0.00013726158581055622
1325.471360815598,1325.471360815598,1.0000497680684028,0.00013733931587586284
1325.4783053455817,1325.4783053455817,0.9998677776218985,0.00013738262929337744
1325.4852498756463,1325.4852498756463,0.9998857670876378,0.00013745201541639113
1325.4921944058046,1325.4921944058046,1.0002431248827648,0.00013752930467537274
1325.4991389360675,1325.4991389360675,1.0000596122220016,0.000137585797529042
1325.5060834664116,1325.5060834664116,0.9999660151311675,0.0001376436161968034
1325.5130279968494,1325.5130279968494,0.9998787815773476,0.00013769506997281537
1325.5199725273797,1325.5199725273797,0.9999354985042578,0.00013775944981546056
1325.5269170579916,1325.5269170579916,1.0000923826712955,0.0001378311675904571
1325.533861588697,1325.533861588697,1.0001259269728418,0.0001378878663194176
1325.5408061194835,1325.5408061194835,1.0000196447351017,0.00013793891773394937
1325.5477506503637,1325.5477506503637,0.9999436990026835,0.00013798635775000352
1325.5546951813246,1325.5546951813246,1.000036632076881,0.00013803561389282986
1325.5616397123679,1325.5616397123679,0.999814648513409,0.0001380695090906493
1325.568584243492,1325.568584243492,1.0000717975795141,0.00013812630572277267
1325.575528774686,1325.575528774686,0.9998061054905172,0.00013815439195458248
1325.5824733059737,1325.5824733059737,1.0001059741854872,0.0001382096665540369
1325.5894178373417,1325.5894178373417,1.0001758931583447,0.00013824058160708403
1325.5963623687692,1325.5963623687692,0.9998971456694694,0.00013825204949082114
1325.6033069003122,1325.6033069003122,1.0001047034858164,0.0001382878956521712
1325.6102514318907,1325.6102514318907,1.0002581167305646,0.000138308541007329
1325.6171959635508,1325.6171959635508,0.9997364108615484,0.00013828163521760256
1325.6241404952802,1325.6241404952802,1.0001366055935972,0.00013832185520754202
1325.6310850271032,1325.6310850271032,0.999840542361443,0.00013829686865559078
1325.6380295589843,1325.6380295589843,0.9997855576116901,0.0001382818212465314
1325.6449740909463,1325.6449740909463,1.0001119927438504,0.00013829446348222242
1325.6519186229673,1325.6519186229673,0.9998115553018809,0.00013826138444748753
1325.6588631550578,1325.6588631550578,1.0002424122861702,0.0001382814029881803
1325.6658076872181,1325.6658076872181,0.9999969005862915,0.0001382495884732291
1325.6727522194599,1325.6727522194599,1.0001128855142363,0.00013824494439641628
1325.6796967517487,1325.6796967517487,0.9999429569595002,0.00013822509937499262
1325.6866412841187,1325.6866412841187,0.9999377260441836,0.00013822251648335274
1325.6935858165348,1325.6935858165348,1.0000560991864422,0.00013822605398964834
1325.7005303490216,1325.7005303490216,1.0000450967347332,0.000138221868918215
1325.707474881566,1325.707474881566,0.99983092093726,0.00013821341236136179
1325.7144194141802,1325.7144194141802,1.000087332388611,0.00013823217105352742
1325.7213639468412,1325.7213639468412,0.999904417226188,0.0001382351489376879
1325.7283084795722,1325.7283084795722,1.0000308394224149,0.00013825941960210304
1325.7352530123844,1325.7352530123844,1.0001160172481387,0.0001382649622721631
1325.7421975452198,1325.7421975452198,1.0002100253683728,0.0001382936227477897
1325.7491420781369,1325.7491420781369,0.9999572153385496,0.00013828997454582603
1325.7560866110775,1325.7560866110775,0.9999382363396313,0.00013830780012495187
1325.7630311440994,1325.7630311440994,0.999610075658145,0.00013831229587231815
1325.769975677191,1325.769975677191,0.9999713401290652,0.00013834609607714425
1325.776920210306,1325.776920210306,1.0001124239229902,0.00013838028680167877
1325.7838647434908,1325.7838647434908,1.0001737120080534,0.0001383977640930799
1325.7908092767223,1325.7908092767223,0.9999891493877474,0.00013840206906020906
1325.7977538100236,1325.7977538100236,1.0002862111226942,0.0001384366266355375
1325.8046983433483,1325.8046983433483,0.9998894722449603,0.00013841961200082624
1325.811642876731,1325.811642876731,0.9998945864085196,0.00013843371589445408
1325.8185874101837,1325.8185874101837,0.9998865418451895,0.0001384366429558267
1325.8255319436594,1325.8255319436594,0.999720631538132,0.0001384323775333484
1325.8324764771937,1325.8324764771937,1.0001555409115626,0.00013845949283260593
1325.8394210107742,1325.8394210107742,1.0001516839759017,0.0001384607321597043
1325.8463655444014,1325.8463655444014,1.0000904307007175,0.0001384431801593323
1325.8533100780746,1325.8533100780746,0.9999808655608291,0.00013842742470716236
1325.860254611807,1325.860254611807,1.0001664142288358,0.00013841975415809955
1325.867199145574,1325.867199145574,0.9999558280645218,0.00013838333808171346
1325.8741436793875,1325.8741436793875,0.999999130424009,0.00013834169422978146
1325.8810882132243,1325.8810882132243,0.9999696813325079,0.00013831606814814157
1325.8880327471193,1325.8880327471193,0.9998095768896867,0.00013826888656899672
1325.8949772810724,1325.8949772810724,0.9997831425458369,0.0001382456224084732
1325.901921815049,1325.901921815049,1.0000682826046614,0.00013823239583465475
1325.9088663490722,1325.9088663490722,1.000297435500179,0.0001382282392814024
1325.9158108831298,1325.9158108831298,0.9999935878883278,0.0001381830097487191
1325.9227554172344,1325.9227554172344,1.0001940987009799,0.00013817899567849617
1325.929699951374,1325.929699951374,1.0001587901007656,0.00013815369919024391
1325.9366444855366,1325.9366444855366,0.9997877447523967,0.00013810867276969912
1325.9435890197808,1325.9435890197808,1.000053408756608,0.00013811631698430288
1325.9505335540252,1325.9505335540252,0.9999343369880366,0.0001380852195752075
1325.957478088316,1325.957478088316,0.9998078848168713,0.0001380709374344172
1325.965533748135,1325.965533748135,0.9999102905766388,0.0001380685937969571
1325.9727560638862,1325.9727560638862,1.000092145186256,0.00013806127061739777
1325.9797005982932,1325.9797005982932,1.0003057255115553,0.00013808460553072188
1325.9866451327239,1325.9866451327239,1.0001149531507574,0.00013806447983469455
1325.9935896672007,1325.9935896672007,1.0001151780847086,0.00013806387751666074
1326.0005342017248,1326.0005342017248,0.9998035147143162,0.00013804040821781876
1326.0074787362478,1326.0074787362478,0.9999106600393903,0.00013805790492415728
1326.01442327083,1326.01442327083,0.9997643079848398,0.00013807091950780598
1326.0213678054467,1326.0213678054467,1.0000293764925636,0.00013809255259365823
1326.0283123400754,1326.0283123400754,0.9999396749031295,0.00013810870174993487
1326.0352568747385,1326.0352568747385,1.000182444116706,0.00013812173988631606
1326.0422014094365,1326.0422014094365,1.0000349811764158,0.00013810812683796592
1326.0491459441816,1326.0491459441816,1.0000275653498225,0.00013808352444982108
1326.056090478926,1326.056090478926,1.0001936254502743,0.00013809635954607698
1326.0630350137176,1326.0630350137176,0.9999644011234888,0.0001380808651846523
1326.0699795485207,1326.0699795485207,0.9999228648923927,0.00013807782021884232
1326.0769240833583,1326.0769240833583,0.9998153275498203,0.00013806949544870422
1326.0838686182317,1326.0838686182317,0.999999070369643,0.00013807298164524904
1326.0908131531278,1326.0908131531278,1.0001149443631234,0.00013808468307475425
1326.0977576880473,1326.0977576880473,0.9999111066850712,0.00013805995193371873
1326.1047022230018,1326.1047022230018,1.000106573815856,0.00013807151912815184
1326.111646757979,1326.111646757979,1.0000399283124075,0.00013805923486322232
1326.1185912929686,1326.1185912929686,0.9998586376593085,0.0001380464287391747
1326.125535828004,1326.125535828004,1.000003406497307,0.00013803713955344113
1326.1324803630287,1326.1324803630287,1.000015998318645,0.00013803161922753456
1326.1394248981342,1326.1394248981342,0.9999407984883479,0.00013801048556849496
1326.146369433217,1326.146369433217,1.0001121575491487,0.00013802735124712005
1326.1533139683456,1326.1533139683456,0.9999745706727318,0.0001379986778725111
1326.1602585034748,1326.1602585034748,0.99993293144308,0.00013799141690574315
1326.1672030386503,1326.1672030386503,0.9999240145378394,0.00013798300802277686
1326.174147573837,1326.174147573837,1.0001159312070915,0.00013797571584901592
1326.1810921090364,1326.1810921090364,1.0000712149062345,0.00013796274427256406
1326.18803664427,1326.18803664427,1.0000515339311413,0.00013795423587242646
1326.1949811795268,1326.1949811795268,1.0000024898372264,0.00013794210055662873
1326.2019257147958,1326.2019257147958,0.9997807001870095,0.0001379153752397027
1326.2088702500762,1326.2088702500762,0.9999534613185166,0.00013792403689470283
1326.215814785391,1326.215814785391,1.0000962857414422,0.00013791010608835602
1326.2227593207183,1326.2227593207183,1.0001350646441645,0.00013791372809621074
1326.2297038560682,1326.2297038560682,0.9999602565888498,0.00013789553040732813
1326.2366483914302,1326.2366483914302,0.9999444562713362,0.00013788650693494735
1326.2435929268265,1326.2435929268265,1.0000635430981055,0.00013787914792259527
1326.250537462224,1326.250537462224,0.9999672870655699,0.0001378655496422178
1326.2574819976555,1326.2574819976555,1.0000049712216446,0.0001378581348019571
1326.264426533087,1326.264426533087,1.0001172381649672,0.0001378624672451484
1326.271371068542,1326.271371068542,0.9998859789347263,0.00013782906688441355
1326.2783156040084,1326.2783156040084,0.9998973763061768,0.00013782354771545724
1326.2852601394986,1326.2852601394986,1.0001840192285845,0.00013783467559392115
1326.2922046749998,1326.2922046749998,0.9997402834141023,0.00013780087000911772
1326.2991492105248,1326.2991492105248,1.0000539564374635,0.00013780315076990907
1326.306093746061,1326.306093746061,1.0001883561066367,0.00013780922532364087
1326.3130382816096,1326.3130382816096,0.9998183322424223,0.00013778412918705126
1326.3199828171691,1326.3199828171691,0.9998182017879182,0.00013777862592078202
1326.326927352752,1326.326927352752,1.0002038756404594,0.0001378039468482731
1326.3338718883467,1326.3338718883467,1.000044907130501,0.00013778577795365204
1326.3408164239413,1326.3408164239413,0.9998999342818695,0.0001377715002203894
1326.3488720852852,1326.3488720852852,1.000255797216456,0.00013779951045258488
1326.3574833094801,1326.3574833094801,1.0003894723687223,0.00013780308757630567
1326.3644278451216,1326.3644278451216,0.9996842817171935,0.000137765893291663
1326.3713723807628,1326.3713723807628,0.9997536880994857,0.00013777466039407725
1326.3783169164387,1326.3783169164387,1.0000562566159794,0.00013778911936089563
1326.3852614521263,1326.3852614521263,0.9998469998238175,0.00013777851660231707
1326.392205987826,1326.392205987826,0.9999295415231471,0.00013778420966423485
1326.3991505235258,1326.3991505235258,1.0001044243629567,0.00013779871992298755
1326.406095059248,1326.406095059248,0.9998751311751913,0.0001377742277589809
1326.413039594983,1326.413039594983,1.0002753480247168,0.00013781143619777934
1326.419984130717,1326.419984130717,1.0000156175494712,0.00013779327547940831
1326.4269286664744,1326.4269286664744,1.0002544673758218,0.0001377968201245143
1326.433873202232,1326.433873202232,0.9999124883152906,0.00013778093365462152
1326.4408177380014,1326.4408177380014,0.9998571991021438,0.00013777318929121443
1326.447762273794,1326.447762273794,0.999805174750346,0.0001377709402498747
1326.4547068095749,1326.4547068095749,1.0000301712500113,0.00013778214895891446
1326.4616513453675,1326.4616513453675,0.999884167942789,0.00013777542885481153
1326.4685958811833,1326.4685958811833,1.000171272618814,0.00013779215935791258
1326.4755404169991,1326.4755404169991,1.000012898147845,0.0001377736765407893
1326.4824849528268,1326.4824849528268,0.9999946008232495,0.00013777923769569693
1326.4894294886658,1326.4894294886658,1.0000798269238376,0.0001377816810468418
1326.4963740244934,1326.4963740244934,0.9998734594094969,0.00013776806782116099
1326.5033185603438,1326.5033185603438,0.9999874378430634,0.00013776909870887694
1326.510263096195,1326.510263096195,1.0002029553098069,0.00013778724162346798
1326.5172076320573,1326.5172076320573,1.0000384532158004,0.00013776928609348017
1326.5241521679197,1326.5241521679197,0.9999014946255592,0.00013777462231341072
1326.5310967037938,1326.5310967037938,0.9999546089849748,0.0001377808047781199
1326.5380412396794,1326.5380412396794,0.9999981044293987,0.00013778688202169303
1326.5449857755768,1326.5449857755768,1.0000224116906566,0.00013780413967060017
1326.5519303114509,1326.5519303114509,1.0001193961786667,0.00013781687828898955
1326.5588748473597,1326.5588748473597,0.9997825767426803,0.00013778660517443068
1326.5658193832571,1326.5658193832571,1.0000569111609323,0.00013780444798086968
1326.5727639191894,1326.5727639191894,0.9999526963118186,0.0001377956869531196
1326.5797084550752,1326.5797084550752,1.0000666766809192,0.00013780864519112964
1326.5866529909956,1326.5866529909956,0.9998405521519084,0.00013778837041091753
1326.593597526928,1326.593597526928,1.0000309596951658,0.00013779529749337614
1326.6005420628603,1326.6005420628603,1.000334758037287,0.0001378116898744125
1326.6074865987925,1326.6074865987925,0.9997614607323915,0.0001377760577202472
1326.6144311347248,1326.6144311347248,1.0000762501439884,0.00013779648709455196
1326.6213756706568,1326.6213756706568,1.000010694353033,0.00013779333611931515
1326.6283202066127,1326.6283202066127,0.9998860185791985,0.0001377744441131313
1326.6352647425797,1326.6352647425797,0.9999530052431499,0.00013777399755234007
1326.642209278512,1326.642209278512,1.0000279559394318,0.000137775141999784
1326.6491538144794,1326.6491538144794,0.999914288954769,0.00013776468165773107
1326.6560983504346,1326.6560983504346,1.0000411037982428,0.00013776637466522096
1326.6630428863905,1326.6630428863905,1.0001287576829516,0.00013775246786545915
1326.6699874223573,1326.6699874223573,0.9999431522080011,0.00013772993534256738
1326.6769319583248,1326.6769319583248,0.9999103002118341,0.00013770398044989784
1326.68387649428,1326.68387649428,1.0001725771879661,0.00013771066944362744
1326.6922099374574,1326.6922099374574,0.9999120067614724,0.00013767510987504455
1326.699154473436,1326.699154473436,0.9999789034998091,0.00013766324765000272
1326.706099009403,1326.706099009403,1.0000734617317908,0.00013764054412038364
1326.713876889694,1326.713876889694,1.0000136490586957,0.00013764095598932732
1326.7213769885475,1326.7213769885475,0.9998621847040173,0.00013761635520654172
1326.7283215245377,1326.7283215245377,1.0001854621008643,0.00013762408115628274
1326.7352660605166,1326.7352660605166,1.0001037913474085,0.0001376061499635432
1326.7422105964956,1326.7422105964956,0.9997674802368856,0.0001375684210412361
1326.749155132474,1326.749155132474,1.00009680936648,0.00013759101211956352
1326.7560996684529,1326.7560996684529,1.000170999922462,0.0001375845378433417
1326.763044204432,1326.763044204432,1.0001862219936197,0.00013758072224820346
1326.7699887404224,1326.7699887404224,0.9999799481927021,0.0001375629692637349
1326.7769332764126,1326.7769332764126,0.9999954941846164,0.00013755796676155982
1326.7838778123914,1326.7838778123914,0.9997998025139644,0.00013753485703960674
1326.7908223483707,1326.7908223483707,0.9999024336123629,0.00013754014052686902
1326.7977668843491,1326.7977668843491,0.9999241657802536,0.00013753635601478114
1326.8047114203405,1326.8047114203405,1.000218282467231,0.0001375557617076403
1326.8116559563184,1326.8116559563184,0.9999008476412016,0.00013753220352354301
1326.8186004922975,1326.8186004922975,0.999987982335403,0.00013752215128707627
1326.8255450282763,1326.8255450282763,1.0000625241506271,0.00013752813180909867
1326.8324895642552,1326.8324895642552,1.0001241753994516,0.00013752174818426624
1326.8394341002338,1326.8394341002338,1.0001440603186915,0.00013752431276691039
1326.846378636201,1326.846378636201,0.9998308498201866,0.00013750005726948612
1326.8533231721915,1326.8533231721915,0.9998832398779584,0.000137488206454521
1326.8602677081587,1326.8602677081587,1.0000683504243648,0.00013748714701654864
1326.8672122441144,1326.8672122441144,0.9999684708377303,0.00013748167115817876
1326.8741567801048,1326.8741567801048,1.0001960917113806,0.0001374784735420886
1326.88110131606,1326.88110131606,1.0000302408973538,0.00013745085693636332
1326.8880458520277,1326.8880458520277,0.9997414103678386,0.0001374122058644313
1326.8949903879943,1326.8949903879943,0.9999121809184333,0.00013741045035819366
1326.9019349239504,1326.9019349239504,0.9999052665865786,0.00013738760877192351
1326.9088794599058,1326.9088794599058,1.0001447643684722,0.00013738053983866416
1326.9158239958729,1326.9158239958729,1.0002041585581147,0.00013736398912047795
1326.922768531805,1326.922768531805,0.9999165705969414,0.00013732413803564967
1326.929713067761,1326.929713067761,1.0000971005581807,0.00013731893655408167
1326.936657603728,1326.936657603728,0.9999925140073529,0.00013729039295386547
1326.94360213966,1326.94360213966,0.9999341667762194,0.00013726383604150668
1326.9505466755927,1326.9505466755927,0.9998887799250455,0.00013724546208080863
1326.9574912115247,1326.9574912115247,0.9997353579342546,0.00013722084179622538
1326.9644357474572,1326.9644357474572,1.0001669519081564,0.00013722619181902486
1326.9713802833894,1326.9713802833894,1.0002001910996008,0.00013720582440249668
1326.9783248193214,1326.9783248193214,1.0000633600088615,0.00013718129481790896
1326.985269355254,1326.985269355254,0.9999444118618701,0.00013716308434012244
1326.992213891163,1326.992213891163,0.9999663420878789,0.00013715472181577862
1326.9991584270604,1326.9991584270604,0.9999531625937038,0.00013713451079957125
1327.0061029629926,1327.0061029629926,0.9998607685750018,0.0001371305845411367
1327.0130474988782,1327.0130474988782,1.0001679286585852,0.00013714762029309465
1327.0199920347986,1327.0199920347986,1.000058708976989,0.00013713317679755116
1327.026936570673,1327.026936570673,1.0000798296142104,0.00013713364152482475
1327.0338811065703,1327.0338811065703,0.999750123324812,0.00013711658248844686
1327.040825642467,1327.040825642467,1.000161050539442,0.00013714158519894136
1327.0477701783416,1327.0477701783416,0.9999927892287637,0.00013712628321870505
1327.0547147142272,1327.0547147142272,0.9999129899342287,0.0001371144177590775
