time,time,flux,flux_err
1468.277332242581,1468.277332242581,0.9998920100425058,0.000152404724007313
1468.2842767710079,1468.2842767710079,1.0000390642555148,0.00015242523692348924
1468.2912212994347,1468.2912212994347,0.9999309670113865,0.0001524035761989041
1468.298165827722,1468.298165827722,0.9998102457066571,0.00015238942906738818
1468.3051103559628,1468.3051103559628,0.9998108298227756,0.00015240996859721903
1468.3120548841569,1468.3120548841569,0.9995977585676424,0.00015239400381147932
1468.3189994122579,1468.3189994122579,1.0000874982103993,0.0001524368701808671
1468.3259439403123,1468.3259439403123,1.0002391657486704,0.00015243251736812602
1468.33288846832,1468.33288846832,1.0002660708523314,0.00015244386607610872
1468.339832996235,1468.339832996235,0.9998738666806218,0.00015240770513160119
1468.3467775241027,1468.3467775241027,1.000017928788616,0.00015241872315919656
1468.3537220518313,1468.3537220518313,1.000262303899404,0.00015241474462721082
1468.3606665795598,1468.3606665795598,1.0002812578714118,0.00015241283434027056
1468.3676111072882,1468.3676111072882,0.9999088659647816,0.00015238632221472069
1468.3745556348772,1468.3745556348772,0.9997975739631075,0.00015242452820903965
1468.3892780331485,1468.3892780331485,0.9998905105062068,0.00015237418687429446
1468.3981670282687,1468.3981670282687,0.9999203033587432,0.00015240584849772351
1468.4051115555783,1468.4051115555783,0.9999546323325385,0.00015235644124834293
1468.412056082841,1468.412056082841,1.0001067371033308,0.00015238731820699036
1468.4190006099639,1468.4190006099639,1.0002631042054118,0.0001524363619425782
1468.4259451371338,1468.4259451371338,0.9999967338812221,0.00015240560328639094
1468.4328896642103,1468.4328896642103,0.9998452628800486,0.0001523984659227168
1468.4398341912404,1468.4398341912404,0.9999725455845601,0.00015241676759694954
1468.4467787181304,1468.4467787181304,0.9997710852568483,0.00015238598898944527
1468.4537232450207,1468.4537232450207,0.9999415014568536,0.00015241686788897458
1468.4606677718177,1468.4606677718177,1.000248478033861,0.00015244240628455434
1468.4676122985682,1468.4676122985682,1.0001797388374414,0.0001523892942537971
1468.474556825226,1468.474556825226,1.0000391738895715,0.00015239152551058932
1468.4815013517896,1468.4815013517896,1.000233664472597,0.0001523934930422936
1468.488445878354,1468.488445878354,1.0000351049129843,0.00015241391716418735
1468.495390404919,1468.495390404919,0.9999309320342633,0.00015238148888096245
1468.5023349312967,1468.5023349312967,0.999839818368665,0.0001524129260695191
1468.5092794576747,1468.5092794576747,0.9998146461041373,0.00015238371665513172
1468.5162239839597,1468.5162239839597,0.9999042469431723,0.0001523544360093708
1468.5231685101512,1468.5231685101512,1.0000740707963027,0.00015239917079493159
1468.530113036343,1468.530113036343,1.0001594798851554,0.00015241783073969526
1468.5370575624415,1468.5370575624415,1.0004004822832748,0.00015242393615666846
1468.544002088494,1468.544002088494,1.0001905717419306,0.0001523650378637338
1468.5509466144524,1468.5509466144524,0.9999287086705128,0.0001523645603415704
1468.557891140365,1468.557891140365,1.000083699054772,0.00015242779382241978
1468.5648356662311,1468.5648356662311,0.9999239427113894,0.00015240000672206026
1468.5717801920034,1468.5717801920034,0.9997992274732971,0.00015238056862669735
1468.5787247177293,1468.5787247177293,0.999814625429625,0.00015240836083656273
1468.5856692433622,1468.5856692433622,1.0001555293283064,0.00015242377935164447
1468.592613768902,1468.592613768902,1.000015865571534,0.0001524141878874816
1468.5995582945354,1468.5995582945354,1.0001652798791802,0.00015240488814287904
1468.6065028199355,1468.6065028199355,0.9998380460786311,0.00015239435978621062
1468.6134473453353,1468.6134473453353,0.9999885093699952,0.00015236343079052638
1468.6203918707356,1468.6203918707356,0.9999878178165439,0.000152388427020882
1468.627336395903,1468.627336395903,1.000122864613135,0.00015241806565483067
1468.6342809211171,1468.6342809211171,0.9998112045096708,0.0001523832997798263
1468.641225446284,1468.641225446284,1.0002706302669513,0.000152382695583931
1468.6481699713117,1468.6481699713117,1.000256654971301,0.0001524244285835531
1468.6551144963391,1468.6551144963391,0.9996933087807044,0.00015237304293505945
1468.6620590213206,1468.6620590213206,0.9999479446477734,0.00015238164732565672
1468.669003546162,1468.669003546162,0.9999807853362659,0.0001524063682101203
1468.6759480709563,1468.6759480709563,0.9999401729601274,0.00015239856350540265
1468.6828925957975,1468.6828925957975,0.9998467413440956,0.00015237322355164313
1468.689837120453,1468.689837120453,0.9999300065163524,0.0001523836376074662
1468.6967816451083,1468.6967816451083,0.9999132789685425,0.0001523784504935644
1468.7037261696232,1468.7037261696232,1.0002864639963065,0.0001523902141162778
1468.710670694139,1468.710670694139,1.000169447698916,0.00015242947716652113
1468.7176152186075,1468.7176152186075,1.0001169282424185,0.00015238889078067803
1468.72455974289,1468.72455974289,0.9998315678802706,0.0001523754705430195
1468.7315042673592,1468.7315042673592,1.0000768027509617,0.0001524050250327991
1468.7384487915947,1468.7384487915947,1.0000480046635145,0.00015243083738335653
1468.7453933156446,1468.7453933156446,1.0002398153943568,0.00015242744460002505
1468.7523378398341,1468.7523378398341,0.9997857986634269,0.000152369018556506
1468.7592823638372,1468.7592823638372,0.9998818519730677,0.00015241460186083916
1468.7662268878871,1468.7662268878871,1.0001248028354968,0.0001524119486935458
1468.7731714117504,1468.7731714117504,0.9999523389308124,0.00015240792737177428
1468.7801159356136,1468.7801159356136,1.0000627262610968,0.00015240493661405747
1468.7870604594307,1468.7870604594307,1.0000975107353072,0.000152413479992751
1468.7940049832014,1468.7940049832014,1.0002830254992123,0.0001524315231719312
1468.8009495068784,1468.8009495068784,0.9999411368054087,0.00015238777178491463
1468.8078940304154,1468.8078940304154,1.0000010127674233,0.0001524167627540622
1468.8148385539994,1468.8148385539994,0.9999014987773261,0.00015241165280219642
1468.8217830774443,1468.8217830774443,0.9998381604509079,0.0001523921653715031
1468.8287276008887,1468.8287276008887,1.000026579804782,0.000152384629754335
1468.8356721242399,1468.8356721242399,1.0002854216026773,0.00015242111623530903
1468.8426166474978,1468.8426166474978,1.0000505846087657,0.0001523792620917646
1468.849561170756,1468.849561170756,0.9997884919944899,0.00015236568988346325
1468.856505693828,1468.856505693828,1.0001972631950455,0.0001523855851493292
1468.8634502168995,1468.8634502168995,1.000015340745962,0.00015240636283685437
1468.8703947399715,1468.8703947399715,1.000048439105259,0.00015237571133518076
1468.8773392630433,1468.8773392630433,0.9998392548743672,0.00015239471259000895
1468.8842837858824,1468.8842837858824,0.9998128298830545,0.00015239905604449235
1468.8912283087216,1468.8912283087216,1.000003227944293,0.0001523863452667549
1468.8981728314675,1468.8981728314675,1.0002092288808402,0.0001524158997737221
1468.9051173542598,1468.9051173542598,0.9999177315459216,0.00015240855054070795
1468.912061876866,1468.912061876866,0.9999474353126905,0.00015241190381455654
1468.9190063994254,1468.9190063994254,0.9999623115766981,0.00015239501092958668
1468.9259509219387,1468.9259509219387,1.0000267458562278,0.00015241026027831148
1468.9328954444052,1468.9328954444052,1.0000155779550977,0.0001523560658825508
1468.9398399668248,1468.9398399668248,1.0001210536057235,0.00015242132904605676
1468.9467844891979,1468.9467844891979,1.0000891104488674,0.00015238223579304387
1468.9537290113853,1468.9537290113853,0.9999036400961245,0.00015238133250409757
1468.9617846571707,1468.9617846571707,1.0000676203667196,0.00015242095638260674
1468.9690069601413,1468.9690069601413,1.0001882178288848,0.00015241263940816237
1468.9759514822813,1468.9759514822813,0.9997672247706151,0.00015239297171709446
1468.9828960041891,1468.9828960041891,0.9998209358204255,0.0001524037285002866
1468.9898405260967,1468.9898405260967,0.9998376481804913,0.00015240808046924312
1468.9967850480045,1468.9967850480045,1.0000784830743132,0.00015240603323925646
1469.0037295698655,1469.0037295698655,1.0001766804992247,0.00015240054350413551
1469.0106740915867,1469.0106740915867,0.9998912405274947,0.00015241043191975865
1469.0176186132617,1469.0176186132617,1.0000386093590365,0.00015240722881034284
1469.0245631348903,1469.0245631348903,1.0002542555902818,0.00015243567135586714
1469.031507656472,1469.031507656472,0.9997893914468369,0.00015237377983015293
1469.0384521779138,1469.0384521779138,1.0002821761216842,0.00015240981993692944
1469.0453966993093,1469.0453966993093,0.9998767943285938,0.000152405169702306
1469.0523412207513,1469.0523412207513,0.9999193961888233,0.00015238368024869125
1469.0592857419604,1469.0592857419604,1.0000447738297111,0.0001523953238899748
1469.066230263263,1469.066230263263,1.0000632628467445,0.00015243490267497102
1469.0731747844256,1469.0731747844256,0.9997930369164779,0.000152390916349131
1469.0801193054951,1469.0801193054951,0.9998479764714732,0.00015241754076711082
1469.0870638265646,1469.0870638265646,1.0000432362870515,0.00015242591045393054
1469.094008347541,1469.094008347541,1.0000032414844209,0.0001524175745187131
1469.100952868471,1469.100952868471,1.0003126390032586,0.00015242122649433077
1469.1078973892609,1469.1078973892609,1.0001381892963326,0.0001523759502799446
1469.1148419101905,1469.1148419101905,0.9998597626703779,0.00015241519978092502
1469.1217864308408,1469.1217864308408,0.9999872697906598,0.000152412577220607
1469.1287309514448,1469.1287309514448,0.9999107938769111,0.00015242118574369535
1469.1356754720953,1469.1356754720953,0.9999095932832329,0.00015241347664043297
1469.1426199926061,1469.1426199926061,0.999951625173088,0.000152416157596298
1469.1495645130701,1469.1495645130701,0.9999140031911586,0.0001523956427716005
1469.1565090334875,1469.1565090334875,1.0001322265446884,0.00015244160356910324
1469.1634535538585,1469.1634535538585,0.9999042739869355,0.00015244112371731478
1469.17039807409,1469.17039807409,1.0001909383004106,0.00015241076996503968
1469.1773425943218,1469.1773425943218,1.0000671034739308,0.0001524068988655289
1469.1842871144595,1469.1842871144595,0.9998070106077763,0.0001524259389644091
1469.191231634551,1469.191231634551,1.0002213379835436,0.00015241364646242304
1469.198176154596,1469.198176154596,1.0000652085211028,0.00015241703132703896
1469.2051206745944,1469.2051206745944,1.0000362302178065,0.0001524249087304706
1469.2120651944538,1469.2120651944538,0.9996129388075777,0.0001524078387544439
1469.2190097142657,1469.2190097142657,1.000205821684449,0.00015244389755760207
1469.2259542340312,1469.2259542340312,0.999848965489863,0.0001524340491862482
1469.23289875375,1469.23289875375,0.9998653094442063,0.0001523937104362708
1469.2398432733294,1469.2398432733294,1.000067701422655,0.00015243401525459748
1469.2467877929091,1469.2467877929091,1.0004300413347464,0.00015247195283199847
1469.2537323124884,1469.2537323124884,0.9997666040910469,0.00015239923185942538
1469.2606768319279,1469.2606768319279,0.999987280212719,0.0001524193569618552
1469.267621351321,1469.267621351321,0.9999881876732737,0.00015242893724157084
1469.2745658706676,1469.2745658706676,0.9997656986506733,0.00015239858345071964
1469.281510389968,1469.281510389968,1.0000130525677358,0.00015239180818830346
1469.2884549091282,1469.2884549091282,1.000046093648168,0.00015241066160292992
1469.2953994282416,1469.2953994282416,1.0002716588975749,0.00015240172353988727
1469.3023439473086,1469.3023439473086,1.0001180888522687,0.0001524025161021313
1469.3092884663292,1469.3092884663292,0.9998706197425051,0.00015236516029363618
1469.316232985257,1469.316232985257,0.999666581771441,0.00015239551016163017
1469.3231775041845,1469.3231775041845,1.0001944039944863,0.00015239956265577001
1469.3301220229719,1469.3301220229719,1.0002860999497813,0.0001524342047562916
1469.3370665417128,1469.3370665417128,1.0000268218960073,0.00015244100006208647
1469.344011060408,1469.344011060408,0.9998738889217602,0.00015243350592267514
1469.3509555790563,1469.3509555790563,0.9997703431125016,0.00015240403044578625
1469.3579000975642,1469.3579000975642,1.0000173563746333,0.00015242451409369003
1469.3648446161194,1469.3648446161194,1.0000315900513415,0.00015243392732488983
1469.371789134627,1469.371789134627,0.9998983900538135,0.00015243774822204707
1469.3787336529033,1469.3787336529033,0.9999101947165233,0.00015240917994074492
1469.3856781712252,1469.3856781712252,1.0000515413469857,0.00015239795255403047
1469.3926226894541,1469.3926226894541,1.0002468387024936,0.00015242980824539833
1469.399567207637,1469.399567207637,0.9998497798348716,0.00015242757310621186
1469.4065117257721,1469.4065117257721,1.0002023630842203,0.00015241907196555476
1469.4134562438148,1469.4134562438148,0.9999509268049662,0.0001523921817792275
1469.4204007618112,1469.4204007618112,1.0000170208769914,0.00015241423072477514
1469.427345279761,1469.427345279761,0.9999994499332365,0.00015243417142296424
1469.4342897976178,1469.4342897976178,1.0000186658827486,0.00015242176476109443
1469.4412343153804,1469.4412343153804,0.9999171988499039,0.0001524159951400268
1469.4481788331439,1469.4481788331439,0.9997439147196747,0.0001524212875948401
1469.4551233508141,1469.4551233508141,1.0003097620744072,0.00015243876049179453
1469.462067868391,1469.462067868391,1.0000205752828524,0.00015241482975536844
1469.4690123859684,1469.4690123859684,1.0001038389283283,0.00015245152251350665
1469.475956903452,1469.475956903452,0.9997726496135148,0.00015239457042793837
1469.4829014208892,1469.4829014208892,0.9997164767804595,0.00015239888807607856
1469.4898459381407,1469.4898459381407,0.99993397573578,0.00015243620236673306
1469.496790455624,1469.496790455624,1.0002174446737855,0.00015244502762799624
1469.5037349726892,1469.5037349726892,1.0000990160349743,0.00015241973267553503
1469.5106794898938,1469.5106794898938,1.0001686105196659,0.00015242100940351486
1469.5176240070048,1469.5176240070048,1.0000239185087854,0.00015241471185312348
1469.5245685240698,1469.5245685240698,1.0000518863543775,0.00015242049242767465
1469.5315130410415,1469.5315130410415,0.9998524092534,0.00015240820256502588
1469.538457557967,1469.538457557967,1.0000207739724547,0.0001524048497531861
1469.5454020747989,1469.5454020747989,0.999978233063515,0.00015238446385514793
1469.5523465915837,1469.5523465915837,0.999856807204033,0.00015241866193567262
1469.5592911082763,1469.5592911082763,1.0000896033584146,0.00015242403320228737
1469.566235624922,1469.566235624922,1.0000925163571497,0.00015245778909332982
1469.573180141521,1469.573180141521,0.9999691483368458,0.00015238708246212882
1469.5801246580738,1469.5801246580738,0.999860947485816,0.0001524139268072574
1469.5870691745333,1469.5870691745333,1.0001279913608117,0.00015246742535266966
1469.594013690946,1469.594013690946,1.0001848314354032,0.00015247638502419674
1469.600958207266,1469.600958207266,0.999937135771882,0.00015243348696488042
1469.6079027235392,1469.6079027235392,0.9999278611201576,0.00015244328239379004
1469.614847239812,1469.614847239812,0.9999523711586862,0.00015245249436392623
1469.6217917558995,1469.6217917558995,0.999740848964878,0.00015243713512755246
1469.628736271986,1469.628736271986,0.9999526469351606,0.00015245601286397408
1469.635680788073,1469.635680788073,0.9999921332002323,0.00015243929760632748
1469.6426253039735,1469.6426253039735,1.0001462772983323,0.00015241955149781526
1469.6495698198744,1469.6495698198744,1.0000692565210796,0.00015241466782803888
1469.6565143357288,1469.6565143357288,1.0002013447628548,0.00015243962400939253
1469.6634588514894,1469.6634588514894,0.9997598357304402,0.0001523979547164832
1469.6704033672036,1469.6704033672036,0.999936025502979,0.00015241791388364518
1469.677347882825,1469.677347882825,1.0003235722914936,0.0001524602266904273
1469.6842923984,1469.6842923984,1.0001281063115421,0.00015244943030137776
1469.6912369139282,1469.6912369139282,0.9999145782940262,0.00015242418909655863
1469.698181429363,1469.698181429363,1.0000392427444313,0.0001524484009806417
1469.705125944751,1469.705125944751,0.9999781849051261,0.00015244822949679623
1469.7120704600466,1469.7120704600466,0.9997996682263721,0.0001524012538227682
1469.719014975342,1469.719014975342,0.9998496057670895,0.0001524437569241929
1469.725959490544,1469.725959490544,0.9996456097220445,0.00015242949755829186
1469.7329040056532,1469.7329040056532,1.000083492654135,0.00015245443923687514
1469.739848520762,1469.739848520762,1.0001700035849548,0.00015246102507165607
1469.7467930356847,1469.7467930356847,1.0000832929658703,0.0001524526964358971
1469.7537375506079,1469.7537375506079,1.0000510567447194,0.00015243245870991508
1469.7606820655303,1469.7606820655303,1.000413323777158,0.00015247960622333037
1469.7676265804535,1469.7676265804535,0.9999486915559352,0.00015244840154816794
1469.7745710951433,1469.7745710951433,0.9999574784953161,0.00015245043686402986
1469.7815156098327,1469.7815156098327,0.9999165053861075,0.00015244758385607278
1469.78846012443,1469.78846012443,1.000006769773734,0.00015242790001527624
1469.7954046390732,1469.7954046390732,0.9996872077724916,0.00015242852672854758
1469.8023491535305,1469.8023491535305,1.0000667024622945,0.00015247667409619645
1469.8092936679411,1469.8092936679411,0.9998621860778538,0.00015243130267821964
1469.8162381823051,1469.8162381823051,1.0000870978313778,0.00015244403182249907
1469.8231826966223,1469.8231826966223,1.0001012842571557,0.00015243997964028917
1469.8301272108931,1469.8301272108931,1.0000697500457596,0.0001524490163374249
1469.8370717251173,1469.8370717251173,0.9998527787885465,0.00015244778996360386
1469.8440162391557,1469.8440162391557,1.0001553126565712,0.00015245246110629423
1469.8509607532403,1469.8509607532403,0.9999488608451934,0.00015243303494381314
1469.8579052672314,1469.8579052672314,1.0000514859027956,0.00015246010480780744
1469.8648497811762,1469.8648497811762,0.9999485987960961,0.0001524443522832107
1469.8717942949813,1469.8717942949813,1.0001922518744322,0.00015248027209524117
1469.8787388087405,1469.8787388087405,0.9997978960812064,0.00015242643140357074
1469.8856833224988,1469.8856833224988,1.0000124914928705,0.00015247210302188116
1469.8926278362574,1469.8926278362574,1.0001528446755086,0.00015245841612035148
1469.8995723498297,1469.8995723498297,0.9998463799144387,0.0001524244192970799
1469.906516863402,1469.906516863402,0.9999258078328728,0.00015243082132268158
1469.9134613768815,1469.9134613768815,0.9999693634079824,0.0001524443229156379
1469.9204058902676,1469.9204058902676,1.0001203772158196,0.00015245140506806273
1469.9273504036537,1469.9273504036537,0.9999626163179485,0.00015244650973449621
1469.934294916947,1469.934294916947,0.999920509027465,0.00015244432945654934
1469.941239430193,1469.941239430193,1.0000280850171128,0.00015244776530184078
1469.9481839433463,1469.9481839433463,1.0003973055626338,0.00015246641211661013
1469.9551284564527,1469.9551284564527,0.9997927785437849,0.00015242624958867278
1469.962072969513,1469.962072969513,1.000016534750001,0.00015243535234050253
1469.9690174824339,1469.9690174824339,0.9999013710257774,0.0001524611351616967
1469.975961995354,1469.975961995354,0.9997078193955978,0.00015244290868616042
1469.9829065082274,1469.9829065082274,1.0004094277791364,0.0001524807885313272
1469.9898510209616,1469.9898510209616,0.9999840003989672,0.0001524544547478926
1469.9967955337893,1469.9967955337893,1.000255386306985,0.00015248419151657624
1470.0037400463837,1470.0037400463837,0.9999583422106662,0.00015245932123227285
1470.0106845589785,1470.0106845589785,0.9999511647951934,0.000152440047132922
1470.0176290715724,1470.0176290715724,1.0001313386263626,0.00015246855783820196
1470.024573583934,1470.024573583934,0.9999624807517916,0.00015243481120153445
1470.031518096389,1470.031518096389,1.0000645441770477,0.0001524863847513937
