time,time,flux,flux_err
1468.2805137809046,1468.2805137809046,1.0026926506745901,0.007154838599586336
1468.2881529218653,1468.2881529218653,1.0172345749506086,0.006540985978196424
1468.2950975951126,1468.2950975951126,1.0016599066799103,0.0065469316774567935
1468.302042268174,1468.302042268174,1.016021601097092,0.00653988058959801
1468.3089869411426,1468.3089869411426,1.0051799635078233,0.006538161659018414
1468.3159316140172,1468.3159316140172,0.9928070790074658,0.006535284232326353
1468.322876286892,1468.322876286892,0.9965535192843206,0.006534916216776716
1468.3298209595814,1468.3298209595814,1.0014656762425573,0.006532265430980804
1468.3367656320838,1468.3367656320838,0.9953652775989014,0.006532157793283209
1468.3437103045865,1468.3437103045865,1.000449307019086,0.006546182420842634
1468.3506549769022,1468.3506549769022,1.0008220194799526,0.0065338661204457065
1468.3575996491256,1468.3575996491256,0.9968927425045454,0.006535980653848606
1468.3645443211626,1468.3645443211626,1.008511421149392,0.006536056958885049
1468.3714889931994,1468.3714889931994,1.0017386845409573,0.006535653971180322
1468.37843366505,1468.37843366505,0.9958625934189647,0.00653552618468476
1468.3951008770255,1468.3951008770255,0.9955517645679304,0.006531059818969518
1468.4020455485042,1468.4020455485042,0.9995651899091973,0.006533959630999356
1468.4089902198891,1468.4089902198891,1.0019869900790985,0.006521116791493292
1468.4159348909943,1468.4159348909943,1.003593853803979,0.006517811654962442
1468.422879562379,1468.422879562379,1.0034981979226838,0.006520950376315072
1468.4298242332986,1468.4298242332986,1.0007023126348438,0.006511314059340675
1468.436768904218,1468.436768904218,1.0013837431605315,0.0065125650869396565
1468.4437135748578,1468.4437135748578,0.9951423435215077,0.006524102282887571
1468.450658245591,1468.450658245591,1.000163065466754,0.006518153174330342
1468.4576029160442,1468.4576029160442,0.9978777758171857,0.006509742597106608
1468.4645475864977,1468.4645475864977,0.9921877549728488,0.006502587943485276
1468.4714922567655,1468.4714922567655,1.0050331831079264,0.006512725751172709
1468.4784369269396,1468.4784369269396,1.0046071354992396,0.0065088653189204915
1468.4853815971135,1468.4853815971135,1.0039301238396965,0.006510966802342417
1468.4923262670086,1468.4923262670086,0.9974792897322725,0.006511950772991415
1468.4992709368107,1468.4992709368107,0.9967966644344493,0.006515708080985163
1468.5062156065192,1468.5062156065192,1.0022470993938442,0.006505781675459027
1468.5131602762274,1468.5131602762274,0.9991417980650004,0.006518051220677531
1468.52010494575,1468.52010494575,1.006580026618163,0.0065250889625208626
1468.5270496151788,1468.5270496151788,1.0038896793173666,0.006533590118920074
1468.5339942843286,1468.5339942843286,0.9961489315655431,0.006528096743929164
1468.5409389534786,1468.5409389534786,0.9960624357257235,0.006540993462480976
1468.5478836225352,1468.5478836225352,0.9945579353235388,0.006527727897520465
1468.5548282914056,1468.5548282914056,0.9966324323675743,0.006534872364890693
1468.561772960276,1468.561772960276,1.007257324900244,0.006533873887046951
1468.568717628867,1468.568717628867,0.9967976392590872,0.006527724768768781
1468.575662297458,1468.575662297458,0.9953812849394987,0.006537541454189828
1468.5826069660484,1468.5826069660484,1.0064880532917053,0.0065381141687914325
1468.5895516342673,1468.5895516342673,1.0016610223571114,0.0065324640627176436
1468.5964963024853,1468.5964963024853,1.0047636173858057,0.006531247238829939
1468.6034409706112,1468.6034409706112,0.9989733078449314,0.006528587403954562
1468.610385638643,1468.610385638643,0.9980489522235019,0.006526515744333772
1468.617330306489,1468.617330306489,0.9988280055580596,0.006522224139638167
1468.6242749742419,1468.6242749742419,1.0019218964670944,0.006530634115798631
1468.6312196419017,1468.6312196419017,0.9877790495882868,0.006528141354443651
1468.638164309468,1468.638164309468,1.0032797039353967,0.006519557843386509
1468.6451089768484,1468.6451089768484,1.008982685503124,0.006524042199445125
1468.6520536441353,1468.6520536441353,0.9991554071143938,0.006527644872584138
1468.6589983113295,1468.6589983113295,0.9920760012370357,0.006524503455764247
1468.6659429784306,1468.6659429784306,1.0000991317622145,0.00652576941811406
1468.6728876453449,1468.6728876453449,0.9994629175542015,0.0065262841076620835
1468.6798323121664,1468.6798323121664,1.002568747009692,0.006515815689056632
1468.6867769788946,1468.6867769788946,1.0039875826542384,0.006515889188998469
1468.69372164553,1468.69372164553,1.003013425531224,0.00651836318534794
1468.7006663120724,1468.7006663120724,1.0032857073426524,0.006516747552897599
1468.7076109783345,1468.7076109783345,0.9934849151859657,0.006521755426666799
1468.714555644597,1468.714555644597,0.9984797044596005,0.006531983247300413
1468.72150031086,1468.72150031086,0.9956596903354349,0.0065172638693950695
1468.728444976843,1468.728444976843,1.0031267538524895,0.006530046862451367
1468.735389642827,1468.735389642827,0.9981277187490747,0.0065193841943806865
1468.7423343085306,1468.7423343085306,0.9981833674811572,0.006532565208990886
1468.7492789742341,1468.7492789742341,0.9979776256577295,0.00653144237180725
1468.756223639845,1468.756223639845,1.016184695704524,0.006543344698014016
1468.7631683053628,1468.7631683053628,1.0037155083635032,0.006542008538660149
1468.7701129706013,1468.7701129706013,0.996775862231669,0.006543484642066601
1468.7770576359326,1468.7770576359326,0.9915129409510053,0.006541707086258101
1468.7840023010772,1468.7840023010772,0.9992719713785959,0.006543037149044965
1468.7909469659432,1468.7909469659432,0.9979552864934961,0.0065508958344506485
1468.7978916309023,1468.7978916309023,1.0058169692757641,0.006547217248849292
1468.8048362955815,1468.8048362955815,0.9908020703998626,0.006537746500281707
1468.8117809603539,1468.8117809603539,0.9992995264672156,0.006548285921042537
1468.8187256248468,1468.8187256248468,1.0010776429546375,0.006543183879721933
1468.8256702892472,1468.8256702892472,1.004657984075205,0.006537724915951754
1468.8326149535544,1468.8326149535544,1.0046377064822403,0.006528429092447756
1468.839559617768,1468.839559617768,0.9934210806930637,0.006519793134886619
1468.846504281702,1468.846504281702,1.0018771890907416,0.006528103395227744
1468.8534489456365,1468.8534489456365,0.9997968840322932,0.00652298387382045
1468.8603936095708,1468.8603936095708,1.0055391857765725,0.006523301944171998
1468.8673382735055,1468.8673382735055,1.0002230601825786,0.006523056294648133
1468.8742829370672,1468.8742829370672,0.9878140107682594,0.0065195972683437745
1468.881227600629,1468.881227600629,1.0066696063956284,0.006532107246719304
1468.8881722640047,1468.8881722640047,1.0036458158067685,0.006537699496189977
1468.8951169271938,1468.8951169271938,0.9995097112352012,0.006544395925819667
1468.9020615903835,1468.9020615903835,0.9995050425179223,0.0065288342919770665
1468.9090062534792,1468.9090062534792,0.9920037130024404,0.006533385332224706
1468.9159509164824,1468.9159509164824,1.0060880985436693,0.006535425594302903
1468.9228955792992,1468.9228955792992,1.0010580449102604,0.006539534089201713
1468.9298402420231,1468.9298402420231,1.0006795883268969,0.006540640859390025
1468.9367849045605,1468.9367849045605,0.9961721154618319,0.006533168361986368
1468.9437295670045,1468.9437295670045,1.0018787414296986,0.006541467878257273
1468.9506742293554,1468.9506742293554,1.0009552670834387,0.006534355195646278
1468.9576188917067,1468.9576188917067,0.9989763837825505,0.006536502985124345
1468.9659524862861,1468.9659524862861,1.002161884290906,0.006549511858447476
1468.9728971482646,1468.9728971482646,1.000136634210434,0.0065445805237913405
1468.9798418101498,1468.9798418101498,1.000918816219637,0.006549943927446874
1468.9867864717557,1468.9867864717557,0.9961128192023668,0.006543393854170579
1468.9937311333622,1468.9937311333622,0.9964683329325617,0.006541177717049875
1469.0006757949682,1469.0006757949682,1.0021135182226242,0.00654232195651856
1469.0076204565744,1469.0076204565744,1.002404593247997,0.006542158566830029
1469.0145651179007,1469.0145651179007,0.9945106403428408,0.006538692975603437
1469.0215097791345,1469.0215097791345,0.9978356353875979,0.0065434288066887735
1469.0284544401818,1469.0284544401818,1.0023211500117146,0.006532811701099902
1469.0353991011361,1469.0353991011361,1.0085363376714627,0.0065544935918566555
1469.0423437620902,1469.0423437620902,1.0023709794069748,0.006529854200251761
1469.0492884227647,1469.0492884227647,0.9973641535139677,0.006534899499074859
1469.0562330834393,1469.0562330834393,0.9983860324275564,0.006534777860524621
1469.063177743928,1469.063177743928,0.9998772579318441,0.006538350603868222
1469.0701224044165,1469.0701224044165,0.9924175096565676,0.006541618742830016
1469.0770670646257,1469.0770670646257,1.00038696994443,0.006522949339074853
1469.0840117248347,1469.0840117248347,1.0084703812170581,0.006534771771418259
1469.0909563849507,1469.0909563849507,0.9894716382941041,0.006532764035565261
1469.0979010448805,1469.0979010448805,1.009635444556616,0.006544991115241333
1469.1048457047168,1469.1048457047168,1.0064022763600935,0.00654787521076481
1469.1117903644604,1469.1117903644604,1.0002500915201988,0.006544222733340851
1469.1187350241103,1469.1187350241103,0.994118075526077,0.006542225771489269
1469.1256796834816,1469.1256796834816,0.9996595464609859,0.0065479360619106015
1469.1326243431317,1469.1326243431317,1.0029898841746308,0.00654525015447419
1469.1395690024096,1469.1395690024096,0.9876378006233792,0.006561096761353261
1469.146513661315,1469.146513661315,0.9960709152723106,0.006540003996368357
1469.1534583204996,1469.1534583204996,0.9982995190925212,0.006541521106040039
1469.1604029793111,1469.1604029793111,1.0094626737403307,0.006541071246845753
1469.1673476382166,1469.1673476382166,1.0053097849988566,0.006546240640850051
1469.1742922968429,1469.1742922968429,0.995985502712713,0.006554170935803194
1469.1812369554689,1469.1812369554689,1.0031561146880765,0.006541145092505071
1469.1881816139082,1469.1881816139082,1.0072068462788972,0.0065451111983620735
1469.1951262723476,1469.1951262723476,0.9945300751366238,0.006535808724004125
1469.202070930694,1469.202070930694,0.9956190622058909,0.006532866618311912
1469.209015588761,1469.209015588761,1.0096607418349504,0.006545047542741746
1469.2159602467352,1469.2159602467352,0.9904375243819562,0.006539984629189739
1469.222904904709,1469.222904904709,1.004237646605624,0.00654857677748827
1469.2298495624966,1469.2298495624966,0.9873391430827464,0.0065424529145305345
1469.2367942201913,1469.2367942201913,1.0043415433559977,0.0065458117048975304
1469.243738877792,1469.243738877792,1.0033630569474254,0.006541363186733477
1469.2506835352076,1469.2506835352076,1.000778556166113,0.006542307811333412
1469.2576281925296,1469.2576281925296,1.001736007274751,0.006537390457091422
1469.2645728498514,1469.2645728498514,1.0061406028944047,0.006529585605747568
1469.271517506801,1469.271517506801,1.0013422305300308,0.006535233161088237
1469.2784621637506,1469.2784621637506,0.9954788105516693,0.006526218683772335
1469.2854068207002,1469.2854068207002,0.9885630736672424,0.00651298254742637
1469.2923514776496,1469.2923514776496,0.9980580867044834,0.006516834642360801
1469.299296134226,1469.299296134226,1.0063096827105225,0.006522402547476248
1469.3062407908033,1469.3062407908033,1.002990732626099,0.0065371201105724405
1469.3131854472872,1469.3131854472872,1.0062605372930977,0.006531523531789589
1469.3201301035847,1469.3201301035847,0.9996438256391796,0.0065298597076323735
1469.3270747597892,1469.3270747597892,0.9986916579797093,0.006537452396294147
1469.3340194159,1469.3340194159,1.0014171636183868,0.006532015360089886
1469.3409640719183,1469.3409640719183,1.0016988453615816,0.006534242891917551
1469.3479087277506,1469.3479087277506,0.9900718100834837,0.006536976010725981
1469.3548533835824,1469.3548533835824,1.0006091714456264,0.006541073707728218
1469.3617980392276,1469.3617980392276,0.9928110458942081,0.0065580233813047565
1469.3687426947804,1469.3687426947804,1.0087501284919527,0.0065565595129181515
1469.375687350146,1469.375687350146,1.004733497451009,0.00656913197239743
1469.3826320055127,1469.3826320055127,0.999132832236835,0.006549290211198796
1469.3895766606927,1469.3895766606927,0.9965529763516063,0.006540388414351536
1469.3965213157794,1469.3965213157794,1.0001308207579644,0.006544191874273904
1469.4034659706801,1469.4034659706801,0.9964552385783249,0.006547664399391829
1469.4104106257666,1469.4104106257666,1.0022909697394933,0.006549635975560747
1469.4173552803877,1469.4173552803877,1.0001779354501854,0.0065432344400253
1469.4242999350092,1469.4242999350092,1.001960630538773,0.006544419140683264
1469.4312445896308,1469.4312445896308,0.9933882442360551,0.006546821715452368
1469.438189243879,1469.438189243879,1.0070730645750416,0.00654728581966858
1469.4451338983138,1469.4451338983138,1.0045459155014356,0.006540870614434748
1469.4520785524694,1469.4520785524694,1.0057898303293888,0.006556545824827923
1469.4590232065316,1469.4590232065316,0.9923745713512545,0.006550766605627703
1469.465967860501,1469.465967860501,0.9927525198067286,0.006554746890706136
1469.4729125143772,1469.4729125143772,0.9963611728293766,0.006548261176727757
1469.479857168067,1469.479857168067,1.0047575874695702,0.006561439330852787
1469.4868018216634,1469.4868018216634,0.9993529093183924,0.006555511925373783
1469.4937464752602,1469.4937464752602,1.0040376331356737,0.006553059736759242
1469.5006911285777,1469.5006911285777,1.0057303392567059,0.006561687746088493
1469.5076357818948,1469.5076357818948,0.9936840712983898,0.0065473188106609
1469.5145804350261,1469.5145804350261,0.9898014937595805,0.0065436990063631505
1469.5215250881567,1469.5215250881567,1.0087790305216948,0.006543652998521744
1469.5284697411014,1469.5284697411014,0.9983538788776037,0.0065387530824088935
1469.5354143938605,1469.5354143938605,0.9992515662073119,0.00653879750552822
1469.5423590466187,1469.5423590466187,1.0050243693666703,0.006537730187372625
1469.5493036991911,1469.5493036991911,1.0022051056000287,0.006549570289552113
1469.5562483518563,1469.5562483518563,0.9958211037093528,0.006531524973782714
1469.563193004149,1469.563193004149,0.99771418450458,0.0065490711180538706
1469.5701376564423,1469.5701376564423,1.002845562376322,0.006542570479567011
1469.5770823086418,1469.5770823086418,1.0014746813361513,0.006536615012760828
1469.584026960562,1469.584026960562,1.0013360253414958,0.006535243154503122
1469.5909716125757,1469.5909716125757,0.9972173854352174,0.006537372001128257
1469.5979162644026,1469.5979162644026,1.0033427592679423,0.006545710080081131
1469.6048609161369,1469.6048609161369,0.9956962490469753,0.0065444009227723
1469.6118055676845,1469.6118055676845,1.0053973323420562,0.006545057098955233
1469.6187502191392,1469.6187502191392,0.9889737575975708,0.006550730463455251
1469.625694870501,1469.625694870501,1.002130940443411,0.006537721520472506
1469.632639521862,1469.632639521862,1.011473067185125,0.006552031081441402
1469.639584172944,1469.639584172944,0.9950999399963752,0.006540182329735541
1469.6465288240265,1469.6465288240265,0.997687765935855,0.0065394774688686
1469.6534734749225,1469.6534734749225,0.9958085010412887,0.00652786539611855
1469.6604181257255,1469.6604181257255,1.0006265228644993,0.006536059845266183
1469.6673627764349,1469.6673627764349,0.9951322452421361,0.006527900853369055
1469.6743074270512,1469.6743074270512,1.0026830829779718,0.006528317447817239
1469.6812520774815,1469.6812520774815,1.0106779725290909,0.0065254446836205265
1469.6881967278186,1469.6881967278186,0.9923403508905437,0.006528373083763914
1469.6951413781558,1469.6951413781558,1.0012534610608608,0.006536234697448333
1469.7020860281202,1469.7020860281202,1.0048220437161295,0.006525529719562372
1469.7090306780842,1469.7090306780842,1.0047085607583397,0.006529049847938837
1469.715975328049,1469.715975328049,1.0024504957772566,0.00653217545728281
1469.7229199780136,1469.7229199780136,0.9916697727066118,0.006533253510209311
1469.729864627606,1469.729864627606,1.0003091508033033,0.006543658967414457
1469.7368092772908,1469.7368092772908,0.992361015168384,0.006523596553054714
1469.7437539266969,1469.7437539266969,0.9933384884006461,0.006533600259130278
1469.7506985761022,1469.7506985761022,1.0086170437327315,0.006527418110037856
1469.757643225322,1469.757643225322,0.9952710017913748,0.0065346134239718775
1469.7645878744484,1469.7645878744484,1.0008184843020667,0.006532338984030333
1469.7715325234815,1469.7715325234815,1.0039728553857024,0.006534697624113602
1469.7784771723286,1469.7784771723286,1.008093278648058,0.006526323217614002
1469.7854218210819,1469.7854218210819,1.010288504616882,0.00652243523958553
1469.7923664698362,1469.7923664698362,1.0011530277319411,0.0065233023390932395
1469.7993111184035,1469.7993111184035,0.9892200430041445,0.006525625150464676
1469.8062557668782,1469.8062557668782,0.9906971924538055,0.006522104868593513
1469.8132004151666,1469.8132004151666,0.9998765185224741,0.006527077318356694
1469.8201450634544,1469.8201450634544,0.9997107722174284,0.006527442429771614
1469.8270897115563,1469.8270897115563,0.9976791299705775,0.006526994405646966
1469.834034359565,1469.834034359565,1.0004122612676347,0.006532249280512763
1469.8409790073874,1469.8409790073874,0.9979661963321265,0.006547735155139754
1469.8479236553035,1469.8479236553035,1.0069467344254839,0.0065362442301418276
1469.8548683031263,1469.8548683031263,1.000390505167762,0.0065338769361604505
1469.8618129503893,1469.8618129503893,1.010380078194872,0.006528307037923804
1469.8687575979322,1469.8687575979322,0.9958818343099113,0.006520965791245288
1469.8757022452894,1469.8757022452894,0.9962953960328793,0.006524652256470321
1469.88264689246,1469.88264689246,1.0034998036115432,0.006523683760419713
1469.8895915396306,1469.8895915396306,0.9948445070562751,0.006522065477168576
1469.8965361866146,1469.8965361866146,0.991116444408583,0.006516380191220872
1469.903480833506,1469.903480833506,1.000723863971013,0.0065242363165901335
1469.910425480304,1469.910425480304,0.9974088032847763,0.006524032730044036
1469.917370126916,1469.917370126916,1.0051911686342583,0.006531612112478609
1469.924314773528,1469.924314773528,1.0134590985374703,0.006526096809484504
1469.9312594200462,1469.9312594200462,0.9975307191199259,0.006530040797234406
1469.9382040662858,1469.9382040662858,0.9982063275703943,0.006509244475057642
1469.9451487124315,1469.9451487124315,0.9963747440876107,0.006511680265767675
1469.9520933585777,1469.9520933585777,0.9992548167564614,0.006514605180897214
1469.959038004538,1469.959038004538,0.9988448405525311,0.00650937826518154
1469.9659826504976,1469.9659826504976,0.9974441265711793,0.006515246876480513
1469.9729272962713,1469.9729272962713,1.0033514128874086,0.006522570972611383
1469.9798719419516,1469.9798719419516,0.9976346684107469,0.006522379338808305
1469.9868165874454,1469.9868165874454,1.0092358670327255,0.00653255096708605
1469.993761233033,1469.993761233033,0.9967010136676354,0.006532666314912096
1470.0007058783408,1470.0007058783408,0.998688704790786,0.006531001515429391
1470.0076505234629,1470.0076505234629,1.0017076139346022,0.0065429251844378545
1470.0145951684917,1470.0145951684917,0.9983662002188991,0.0065364499857358035
1470.0215398135197,1470.0215398135197,0.9972833144180433,0.0065385449187570135
1470.0284844583618,1470.0284844583618,0.9957804691983118,0.006542156562432892
1470.0354291032043,1470.0354291032043,1.0082220257145806,0.006547304733286139
1470.0423737478602,1470.0423737478602,0.9952484968632982,0.00655120846906611
1470.0493183924234,1470.0493183924234,0.9972082733344996,0.006545754385360693
1470.0562630368,1470.0562630368,1.0052185023081486,0.006549589935893091
1470.063207681083,1470.063207681083,1.0032893738388533,0.006540042685732323
1470.070152325274,1470.070152325274,0.9994165819302143,0.006543627857082913
1470.0770969693708,1470.0770969693708,1.0008356583386224,0.006538756529585179
