time,time,flux,flux_err
1325.30046636249,1325.30046636249,1.000023019781921,0.00021284932565128766
1325.3087998186663,1325.3087998186663,1.0001385860168803,0.00021288458427199232
1325.3164388202895,1325.3164388202895,1.0000233437305108,0.0001943317159009029
1325.3233833673162,1325.3233833673162,0.9997891079448606,0.00019435035165463297
1325.3303279144125,1325.3303279144125,0.9998418998333325,0.00019436152307900146
1325.3372724615788,1325.3372724615788,0.9998395872625693,0.00019437960431915256
1325.3442170088385,1325.3442170088385,1.000235173445923,0.00019443983552420633
1325.3511615562375,1325.3511615562375,1.0002251212689515,0.00019445410107311032
1325.3581061036832,1325.3581061036832,0.9998098955779238,0.00019443050384575637
1325.3650506511756,1325.3650506511756,1.0000222310502782,0.00019447331313774587
1325.3719951987846,1325.3719951987846,1.0000750884471814,0.0001944950579696584
1325.378939746463,1325.378939746463,1.0002100648023624,0.00019449881860307512
1325.3858842942113,1325.3858842942113,0.9998507805593266,0.0001944833731246928
1325.3928288420295,1325.3928288420295,0.9999047560816303,0.0001944866650210255
1325.399773389964,1325.399773389964,0.99994305702525,0.00019450974568884465
1325.4067179379454,1325.4067179379454,0.9999633953860781,0.0001945014364144619
1325.4136624860193,1325.4136624860193,0.9999279612529828,0.0001945087109249181
1325.420607034164,1325.420607034164,1.000101901259004,0.00019453607647224312
1325.4275515823547,1325.4275515823547,1.0002367008897606,0.00019455362005000858
1325.4344961306615,1325.4344961306615,1.0002150111772015,0.00019456158963141175
1325.4414406790158,1325.4414406790158,0.9997109166669773,0.00019453085707490597
1325.4483852273927,1325.4483852273927,0.999801209717474,0.00019454235346408436
1325.455329775956,1325.455329775956,1.0000156407270366,0.00019456079136361568
1325.4622743244959,1325.4622743244959,1.000012145569953,0.00019456564814374696
1325.469218873129,1325.469218873129,1.0000017430675743,0.00019456594779261222
1325.4761634218555,1325.4761634218555,0.999876525044219,0.00019457332762815
1325.4831079706048,1325.4831079706048,1.0003611317032841,0.00019463337091418553
1325.4900525194244,1325.4900525194244,1.0000636155688363,0.00019460801626341472
1325.4969970683137,1325.4969970683137,0.9997415174381704,0.00019459102056697055
1325.503941617296,1325.503941617296,1.0000327832942937,0.00019460685645227027
1325.5108861663252,1325.5108861663252,1.0000380380716856,0.00019461462759791788
1325.5178307153772,1325.5178307153772,0.9999042153803831,0.00019461951784442737
1325.5247752645228,1325.5247752645228,0.9994157735287488,0.00019457634854477924
1325.5317198137145,1325.5317198137145,1.0001684620040128,0.0001946754093168936
1325.5386643629997,1325.5386643629997,1.0000971649535246,0.00019468687775721
1325.545608912308,1325.545608912308,1.0001982710042268,0.00019468982318090832
1325.5525534617095,1325.5525534617095,1.000166385963777,0.0001946971097379006
1325.5594980111346,1325.5594980111346,0.999804312994209,0.00019467156464929183
1325.566442560629,1325.566442560629,0.9999489220308879,0.0001946945041613604
1325.573387110147,1325.573387110147,0.9999931845226101,0.00019472033902052948
1325.5803316597583,1325.5803316597583,1.0001395919177005,0.00019475243956254112
1325.587276209439,1325.587276209439,0.9999439434810498,0.0001947397454849685
1325.594220759143,1325.594220759143,1.0000313087354962,0.0001947557129904004
1325.6011653088935,1325.6011653088935,1.0001234140007724,0.00019477997623688103
1325.6081098587142,1325.6081098587142,0.9998329055361663,0.00019476652559097333
1325.615054408605,1325.615054408605,0.9997644197609725,0.0001947614988666277
1325.6219989584954,1325.6219989584954,0.9999675916096343,0.00019478350937940483
1325.6289435084789,1325.6289435084789,0.9999610211447779,0.00019477899784134468
1325.6358880584626,1325.6358880584626,1.0001893617110365,0.00019479980670325262
1325.6428326085393,1325.6428326085393,1.0000655114738441,0.00019477975453438144
1325.6497771586623,1325.6497771586623,1.000134951157084,0.00019478010778152725
1325.6567217088555,1325.6567217088555,0.9996245896737695,0.00019475163955842272
1325.6636662590486,1325.6636662590486,0.9999413238550161,0.00019476569064126551
1325.6706108092417,1325.6706108092417,1.0001475177174033,0.00019477199865682908
1325.6775553595512,1325.6775553595512,0.9998295935071229,0.00019474601762422948
1325.6844999098844,1325.6844999098844,1.0001266810695435,0.0001947800155713915
1325.6914444602405,1325.6914444602405,1.0004171023242658,0.00019479826296429586
1325.6983890106897,1325.6983890106897,1.0002584109450579,0.00019481116366594912
1325.7053335611158,1325.7053335611158,0.9998360822480095,0.00019477849357188518
1325.7122781116345,1325.7122781116345,0.9998592347644376,0.0001947780831207586
1325.719222662177,1325.719222662177,0.9999563336618891,0.0001947779592805866
1325.7261672127656,1325.7261672127656,0.9996357789875455,0.0001947736565520569
1325.733111763378,1325.733111763378,1.0000495812699195,0.0001948202243594161
1325.740056314037,1325.740056314037,0.9999468412365842,0.00019482348459213977
1325.7470008647422,1325.7470008647422,1.0001653839970372,0.00019485173142565565
1325.7539454155171,1325.7539454155171,1.0000755246667619,0.00019486002090647424
1325.7608899662928,1325.7608899662928,0.9999471554111292,0.00019486334818923713
1325.7678345170677,1325.7678345170677,1.0000173347636154,0.00019486805928139753
1325.7747790678898,1325.7747790678898,1.0000363572851183,0.00019488628215440633
1325.781723618758,1325.781723618758,1.0000455735923852,0.00019488557512846121
1325.7886681696732,1325.7886681696732,0.9998155031558282,0.00019489268446369748
1325.7956127206342,1325.7956127206342,1.0000250305421037,0.0001949020673196159
1325.8025572715956,1325.8025572715956,0.999927076341429,0.00019491553505971123
1325.8095018226272,1325.8095018226272,0.999904119110808,0.00019491080852339636
1325.816446373635,1325.816446373635,1.0004137383145606,0.0001949733601417686
1325.8233909247367,1325.8233909247367,1.0000204207114765,0.00019496025168996785
1325.8303354758375,1325.8303354758375,0.9997804357394837,0.00019493153041126796
1325.8372800269617,1325.8372800269617,1.000260416212046,0.00019498864845587
1325.8442245781332,1325.8442245781332,1.0002558541879338,0.00019499901612430288
1325.851169129327,1325.851169129327,0.9995282406107474,0.0001949331416416058
1325.858113680568,1325.858113680568,0.9999157334268117,0.00019496194773531002
1325.8650582318091,1325.8650582318091,0.9999916905597714,0.0001949931877524397
1325.8720027831198,1325.8720027831198,0.9999561459121555,0.00019496860399310586
1325.8789473343609,1325.8789473343609,0.99991701362899,0.000194961180871165
1325.8858918857177,1325.8858918857177,1.000104080483937,0.00019498324532324897
1325.8928364370754,1325.8928364370754,1.00012303581048,0.0001949908843574403
1325.8997809884559,1325.8997809884559,1.0001532763391239,0.00019498328324619223
1325.9067255399061,1325.9067255399061,0.9998560164754148,0.00019495472771172926
1325.913670091333,1325.913670091333,1.0002039271277956,0.000194989230043723
1325.9206146427834,1325.9206146427834,1.0000752218089561,0.00019496141143489278
1325.9275591942574,1325.9275591942574,0.9996220560428719,0.00019493595036374688
1325.934503745754,1325.934503745754,0.9999142348596195,0.00019495877062849105
1325.9414482973214,1325.9414482973214,1.0000425557651977,0.00019498072923695655
1325.9483928488648,1325.9483928488648,0.999903887896043,0.0001949707709844492
1325.9553374004315,1325.9553374004315,1.000209727821019,0.0001949919203688128
1325.9628375161537,1325.9628375161537,0.9999737417746308,0.0001949837298918396
1325.9706154139997,1325.9706154139997,1.0000871649943774,0.00019498853881322846
1325.9775599656132,1325.9775599656132,1.0000238553119183,0.0001949836425467144
1325.984504517296,1325.984504517296,0.9998335555533513,0.00019498677397452262
1325.9914490689562,1325.9914490689562,0.9998408113227057,0.0001949845600525655
1325.998393620663,1325.998393620663,1.0003409642839631,0.00019502008354458137
1326.0053381723692,1326.0053381723692,0.9999983051468005,0.00019501695740870836
1326.0122827240994,1326.0122827240994,1.0000629085970343,0.0001950330142167853
1326.0192272758989,1326.0192272758989,0.9996527973588739,0.00019500132930360054
1326.026171827652,1326.026171827652,1.0002711704055156,0.00019507062672129862
1326.033116379452,1326.033116379452,1.0000147471573255,0.00019507259124082235
1326.040060931251,1326.040060931251,0.9998629055893273,0.00019504138564667997
1326.0470054830744,1326.0470054830744,1.0000434169625416,0.00019507238985633414
1326.0539500349203,1326.0539500349203,0.9997280403537923,0.00019504694869680678
1326.06089458679,1326.06089458679,1.0002990935663898,0.0001951043464899584
1326.0678391386361,1326.0678391386361,1.0000002130428776,0.00019509978429283265
1326.0747836905518,1326.0747836905518,0.9999373129855146,0.00019509731752132356
1326.0817282424682,1326.0817282424682,1.0000002385569389,0.00019511295376585994
1326.0886727943146,1326.0886727943146,0.9999554961326946,0.00019510728414313047
1326.0956173462541,1326.0956173462541,1.0000981041227983,0.00019513850656122388
1326.1025618981935,1326.1025618981935,0.9999492513023464,0.00019513413998121983
1326.1095064502026,1326.1095064502026,1.0001872266224392,0.00019514372305663797
1326.1164510021886,1326.1164510021886,0.999934431715204,0.0001951216681540452
1326.1233955541275,1326.1233955541275,0.9998317869595603,0.00019511973070166917
1326.1303401061602,1326.1303401061602,0.9997099749909324,0.00019510385860644082
1326.1372846581462,1326.1372846581462,1.0004259521869958,0.0001951836521051424
1326.1442292101788,1326.1442292101788,1.0000821263598814,0.0001951378283301477
1326.1511737622113,1326.1511737622113,0.9998607115516694,0.000195134316583851
1326.1581183142432,1326.1581183142432,0.9999593847125862,0.00019515623005613466
1326.1650628662996,1326.1650628662996,1.0001700673672675,0.00019516198520709978
1326.172007418355,1326.172007418355,0.9999816298622303,0.0001951527065261762
1326.1789519704341,1326.1789519704341,0.9999502398870584,0.00019515576057068377
1326.1858965225133,1326.1858965225133,0.9997782854613005,0.00019512057816811046
1326.1928410746154,1326.1928410746154,1.000101799119089,0.00019517272280108366
1326.1997856266948,1326.1997856266948,1.000196638154327,0.0001951748798216179
1326.2067301788202,1326.2067301788202,0.9998245322116048,0.00019515831569542232
1326.213674730923,1326.213674730923,1.0000272472870708,0.00019515935650546722
1326.2206192830715,1326.2206192830715,0.9997654869478619,0.00019514229992939445
1326.227563835197,1326.227563835197,1.000280746423067,0.0001951826313270352
1326.2345083873229,1326.2345083873229,0.9998680376580744,0.00019516797570937568
1326.2414529394714,1326.2414529394714,1.0001085830522596,0.00019517687688985278
1326.248397491644,1326.248397491644,0.9999254571439475,0.00019517678766994734
1326.2553420437928,1326.2553420437928,1.0003230886325072,0.00019519421395670057
1326.2622865959652,1326.2622865959652,0.9998923164686808,0.00019517247277603148
1326.2692311481374,1326.2692311481374,0.9998875949018157,0.00019516879418228508
1326.276175700309,1326.276175700309,0.9997502029956568,0.00019515853021069454
1326.2831202525051,1326.2831202525051,0.9996751367312016,0.00019515555750685806
1326.2900648047237,1326.2900648047237,1.0000588717290448,0.000195195213981876
1326.297009356896,1326.297009356896,0.999898458084911,0.00019518544196709254
1326.3039539091146,1326.3039539091146,1.0003140531669334,0.0001952278302966743
1326.3108984612868,1326.3108984612868,1.0000256421426765,0.00019521373944298372
1326.317843013529,1326.317843013529,0.9999908333050966,0.00019522578337452152
1326.3247875657473,1326.3247875657473,1.0000203487926214,0.00019522560165579375
1326.3317321179666,1326.3317321179666,0.9998755695302123,0.0001952225924412968
1326.3386766701617,1326.3386766701617,1.0000914357259596,0.00019523768185836975
1326.3456212223807,1326.3456212223807,1.0000808129005336,0.00019524354928348434
1326.355343595515,1326.355343595515,0.9999352312402369,0.00019524705008947278
1326.3622881477334,1326.3622881477334,0.9999376503530616,0.0001952586213339839
1326.369232699999,1326.369232699999,0.999939749146726,0.00019528052330402567
1326.3761772522641,1326.3761772522641,1.0001017516808495,0.00019529048164872848
1326.3831218044832,1326.3831218044832,0.9998697136255771,0.00019527540042015053
1326.3900663567251,1326.3900663567251,0.9999934072002663,0.00019530770623913947
1326.3970109089437,1326.3970109089437,0.9999992088263049,0.0001952997086758788
1326.4039554612323,1326.4039554612323,1.0000986953189377,0.00019532550970150143
1326.4109000134745,1326.4109000134745,1.0002083061229414,0.00019535372733444704
1326.4178445656933,1326.4178445656933,0.9999858359193498,0.00019533420786036583
1326.4247891179587,1326.4247891179587,0.9999119774181906,0.00019532452969082056
1326.431733670224,1326.431733670224,0.9999807345261422,0.00019534646502937704
1326.4386782224424,1326.4386782224424,1.0000928901223995,0.00019535739856691713
1326.445622774708,1326.445622774708,0.9998328115382937,0.0001953498983266225
1326.4525673269734,1326.4525673269734,1.000298754969665,0.00019540284678582748
1326.4595118791922,1326.4595118791922,1.0000774283901728,0.0001954048369034309
1326.4664564314805,1326.4664564314805,1.0002137016175263,0.00019538743380479928
1326.4734009837227,1326.4734009837227,1.0000664049769972,0.00019540315880211997
1326.4803455359415,1326.4803455359415,0.9998825966678708,0.0001953949878022568
1326.48729008823,1326.48729008823,1.0002542411739141,0.0001954149097583265
1326.494234640472,1326.494234640472,0.9998636366475768,0.00019540476021074455
1326.501179192691,1326.501179192691,0.9996739279415376,0.00019537743674112582
1326.5081237449328,1326.5081237449328,0.999830133820111,0.00019539095863188813
1326.5150682971985,1326.5150682971985,1.0002572396834932,0.00019543387006881464
1326.5220128494402,1326.5220128494402,0.9999550768404936,0.00019541769055372144
1326.5289574016826,1326.5289574016826,1.0002114115646799,0.0001954804217939712
1326.5359019539012,1326.5359019539012,0.9998877213691737,0.00019544269348768174
1326.5428465061432,1326.5428465061432,1.0000639365496098,0.00019546222494836108
1326.5497910583622,1326.5497910583622,1.0002773580401199,0.00019550203399656624
1326.556735610604,1326.556735610604,1.0000314430496497,0.0001955163350031919
1326.563680162823,1326.563680162823,1.0000508455726576,0.00019548814810582105
1326.5706247150647,1326.5706247150647,0.9996901115441474,0.00019546429845270484
1326.5775692672837,1326.5775692672837,0.9998852487978749,0.00019551650050142832
1326.5845138194557,1326.5845138194557,0.999893323557567,0.00019551763901023617
1326.591458371698,1326.591458371698,0.9999025515950194,0.00019553762503593582
1326.5984029239166,1326.5984029239166,1.0001189604996203,0.00019556237826147714
1326.6053474760888,1326.6053474760888,1.0002241749677094,0.00019555480148901607
1326.6122920283076,1326.6122920283076,1.0000001077313008,0.0001955572638802828
1326.619236580503,1326.619236580503,0.9998644390842726,0.00019556507266830738
1326.6261811326983,1326.6261811326983,1.0000476690011602,0.00019556239745721903
1326.6331256848707,1326.6331256848707,1.0002118575233356,0.00019559751102096032
1326.640070237066,1326.640070237066,1.000002860936704,0.00019556931822839775
1326.6470147892385,1326.6470147892385,0.9999667783221498,0.00019557518323875576
1326.6539593414104,1326.6539593414104,0.9997426237803243,0.00019555659187987036
1326.6609038935828,1326.6609038935828,1.0000730241209457,0.00019557732953924257
1326.6678484457316,1326.6678484457316,0.9999493730994985,0.00019556106004028326
1326.6747929979042,1326.6747929979042,1.000001831707883,0.00019555711799228116
1326.6817375500293,1326.6817375500293,0.9999375441826533,0.0001955408625434359
1326.6895154484578,1326.6895154484578,0.9999919196196977,0.00019554634178665665
1326.6970155647618,1326.6970155647618,0.9999715346980382,0.00019552969642696
1326.7039601169104,1326.7039601169104,1.000137801125988,0.00019555388623532536
1326.7111824510907,1326.7111824510907,1.0000438755007326,0.00019553469865036242
1326.7192381315501,1326.7192381315501,1.0001557734885502,0.00019555592825355313
1326.726182683676,1326.726182683676,1.0000188687978546,0.00019553229928241013
1326.733127235778,1326.733127235778,1.0001184224647353,0.00019553531784772773
1326.740071787857,1326.740071787857,0.9998777489304512,0.00019551884500293472
1326.7470163399594,1326.7470163399594,1.000114589570872,0.00019552919835391273
1326.753960892038,1326.753960892038,0.9996895610968617,0.00019550773380911358
1326.7609054441175,1326.7609054441175,0.9999142047815794,0.00019549665914027494
1326.7678499961962,1326.7678499961962,0.9997479683511976,0.00019550275588778237
1326.7747945482522,1326.7747945482522,1.0003625876542996,0.00019554431525552405
1326.781739100308,1326.781739100308,1.0000436319992088,0.00019553178562497787
1326.7886836523635,1326.7886836523635,1.0000176562624445,0.00019553275618801243
1326.7956282043965,1326.7956282043965,0.9996678670245377,0.0001955029689258355
1326.8025727564059,1326.8025727564059,1.000079144038589,0.00019555506251073143
1326.809517308438,1326.809517308438,1.0002749931143957,0.00019557077559059985
1326.81646186047,1326.81646186047,0.9998686233859461,0.00019551618565505176
1326.823406412433,1326.823406412433,0.9998129486585043,0.00019552395350269706
1326.8303509644888,1326.8303509644888,1.000211515897409,0.0001955520055323841
1326.8372955164284,1326.8372955164284,0.9999480948976626,0.00019552835073585943
1326.8442400684376,1326.8442400684376,1.0001886457645894,0.00019556132168413576
1326.8511846204233,1326.8511846204233,1.000194628973584,0.0001955633970677401
1326.8581291723626,1326.8581291723626,0.9998253319443824,0.00019551827347074162
1326.8650737243024,1326.8650737243024,0.9999728073112631,0.00019553091465974315
1326.8720182762418,1326.8720182762418,0.9998979567082916,0.00019552215944960207
1326.878962828181,1326.878962828181,1.0001680492257663,0.00019555305329579543
1326.8859073801202,1326.8859073801202,0.9997766085478161,0.00019550121119894245
1326.89285193206,1326.89285193206,0.9999103510782721,0.00019548863180911228
1326.8997964839525,1326.8997964839525,0.9998505620048863,0.00019545899051935677
1326.906741035822,1326.906741035822,1.000327456733891,0.00019550891053320626
1326.9136855877614,1326.9136855877614,0.9998729812714497,0.00019546908967250868
1326.9206301395845,1326.9206301395845,0.9998326511158071,0.00019544269731200503
1326.927574691477,1326.927574691477,1.0002037974098472,0.00019545751569295197
1326.934519243347,1326.934519243347,1.0002253674003352,0.0001954204732790541
1326.9414637951695,1326.9414637951695,0.9999482561327124,0.0001953952362781297
1326.9484083470156,1326.9484083470156,0.9998536324471219,0.00019537014236008913
1326.9553528988388,1326.9553528988388,1.000107071250296,0.00019539477840468532
1326.962297450662,1326.962297450662,1.0000917661064874,0.00019538299437578686
1326.969242002485,1326.969242002485,0.9999752416989527,0.00019536304418780987
1326.976186554261,1326.976186554261,0.9999086923588598,0.00019534843941001735
1326.9831311060377,1326.9831311060377,0.999973157474251,0.00019534082041944956
1326.990075657814,1326.990075657814,0.9996516310236462,0.00019529169554704362
1326.9970202095908,1326.9970202095908,1.0000004761364212,0.00019530319926097263
1327.0039647613435,1327.0039647613435,0.9997803148712237,0.000195315283549517
1327.0109093130966,1327.0109093130966,1.0002569750687005,0.00019533068859313923
1327.017853864803,1327.017853864803,1.0000910731739092,0.00019533090812915146
1327.024798416533,1327.024798416533,1.00032826821473,0.00019534180753835568
1327.0317429682395,1327.0317429682395,1.0000673454728217,0.00019534875957831466
1327.0386875199224,1327.0386875199224,1.0001244091738684,0.00019532620083902597
1327.0456320716062,1327.0456320716062,0.9999017732225406,0.00019533627845828182
1327.052576623266,1327.052576623266,0.9999654681612927,0.00019531856589382533
