time,time,flux,flux_err
1468.2761846035046,1468.2761846035046,0.9988206031422001,0.0003892394347074845
1468.2845181208113,1468.2845181208113,0.9995102244458782,0.00038925433006988875
1468.2928516380596,1468.2928516380596,0.999607162398556,0.000389214507598171
1468.3004906955346,1468.3004906955346,0.9992109912202167,0.00035525818011862537
1468.307435293194,1468.307435293194,0.9995987311111051,0.000355254158139013
1468.314379890841,1468.314379890841,1.0005635095865764,0.0003553298538123063
1468.3213244884769,1468.3213244884769,1.0000846188166073,0.00035534063098857074
1468.328269086055,1468.328269086055,1.0005825217027178,0.0003553390349422041
1468.3352136836324,1468.3352136836324,1.0004009947329884,0.0003555325655072813
1468.34215828121,1468.34215828121,1.00013284641655,0.00035530998928612806
1468.3491028787525,1468.3491028787525,1.0004476131569564,0.0003553081910034465
1468.3560474762603,1468.3560474762603,0.9998200583666007,0.00035532451444397496
1468.362992073745,1468.362992073745,1.0002590415724057,0.00035553130228258446
1468.3699366712178,1468.3699366712178,1.0001578184437077,0.00035529661059032543
1468.380770243229,1468.380770243229,0.9996101131258428,0.0003551870933085412
1468.393548302446,1468.393548302446,1.0001384207285304,0.00035533126005368113
1468.400492899826,1468.400492899826,0.9998071764319223,0.00035540097598315624
1468.4074374971592,1468.4074374971592,1.0000447689732592,0.0003553990291952099
1468.4143820945035,1468.4143820945035,0.999963696156553,0.00035526634896361714
1468.4213266917905,1468.4213266917905,1.000288166598807,0.0003552642254606143
1468.4282712890774,1468.4282712890774,1.0001893643578446,0.0003554059417766321
1468.4352158863403,1468.4352158863403,1.0002237452015414,0.0003554806377372169
1468.4421604835688,1468.4421604835688,0.9996555917050702,0.0003552755261508565
1468.4491050807853,1468.4491050807853,0.9999890909629634,0.00035539433304468263
1468.4560496779673,1468.4560496779673,1.0004408492712544,0.00035534406283878187
1468.4629942751494,1468.4629942751494,0.9996400063107632,0.00035522711292317944
1468.4699388722847,1468.4699388722847,0.9996731000225807,0.0003553494618190195
1468.4768834694082,1468.4768834694082,1.0002890990823887,0.0003554118479912454
1468.4838280665197,1468.4838280665197,0.9999033170597302,0.00035526124299525787
1468.4907726635854,1468.4907726635854,0.9996295479687081,0.0003552879165155752
1468.497717260639,1468.497717260639,1.0007267238382132,0.00035536262027957604
1468.504661857658,1468.504661857658,0.9994356711006305,0.0003553287991000188
1468.5116064546535,1468.5116064546535,1.0004313502814752,0.0003551973580624301
1468.518551051649,1468.518551051649,0.9999159136487676,0.0003554270482341867
1468.5254956486328,1468.5254956486328,1.000051380200103,0.00035524031248753855
1468.532440245559,1468.532440245559,1.0003067825981946,0.0003552659003441572
1468.5393848424847,1468.5393848424847,0.999754726829963,0.00035529062399440695
1468.546329439375,1468.546329439375,0.999720621694968,0.000355191238732474
1468.5532740362428,1468.5532740362428,1.000093210678001,0.00035531537861937287
1468.5602186330875,1468.5602186330875,0.9999911527686385,0.0003552703420303689
1468.56716322992,1468.56716322992,1.0002807818293558,0.00035552786798188186
1468.574107826717,1468.574107826717,0.9999520752817773,0.00035515744695676564
1468.5810524235033,1468.5810524235033,1.0000388096381247,0.00035535956146003544
1468.587997020266,1468.587997020266,1.0002780927617272,0.0003554223383270761
1468.5949416169706,1468.5949416169706,1.0000495016401023,0.0003552932090325271
1468.6018862136752,1468.6018862136752,0.9997980525596774,0.0003552076806150288
1468.6088308103795,1468.6088308103795,1.0001309609245836,0.00035534313074441707
1468.615775407049,1468.615775407049,1.0002873974961188,0.0003552841534884545
1468.6227200036956,1468.6227200036956,1.0003279821422155,0.0003553435880025856
1468.6296646003186,1468.6296646003186,0.9996369120327465,0.00035517221886496885
1468.6366091969062,1468.6366091969062,0.9999263295947426,0.0003552917024856649
1468.6435537934829,1468.6435537934829,0.9999491081164835,0.00035518398707357686
1468.6504983900247,1468.6504983900247,1.000249661184985,0.00035541733891532426
1468.6574429865543,1468.6574429865543,1.0004274373554731,0.00035522609008824724
1468.6643875830498,1468.6643875830498,1.0003901406564835,0.00035536219103398054
1468.6713321795328,1468.6713321795328,0.9998780244269934,0.000355328258265018
1468.6782767759692,1468.6782767759692,0.9997032391819378,0.0003551277186194971
1468.685221372441,1468.685221372441,0.9992344572938702,0.00035520034008976615
1468.6921659688317,1468.6921659688317,1.0004233553393351,0.00035524171397559827
1468.6991105652103,1468.6991105652103,1.000035930204043,0.0003550927222867584
1468.7060551615764,1468.7060551615764,0.9999476593747779,0.0003552158500670673
1468.7129997579086,1468.7129997579086,0.9999377932073006,0.00035529882291751255
1468.7199443542293,1468.7199443542293,1.0001072914500102,0.00035511284104797967
1468.7268889505262,1468.7268889505262,1.0001897088919822,0.00035519250481155936
1468.7338335467884,1468.7338335467884,0.9999072848578034,0.00035517979414936526
1468.740778143027,1468.740778143027,1.0000208961840262,0.0003552059104610799
1468.7477227392544,1468.7477227392544,1.0001124597320583,0.00035538505247257837
1468.754667335447,1468.754667335447,1.0000902340049742,0.00035524499611378076
1468.7616119316274,1468.7616119316274,0.9993557348505719,0.00035531078554818543
1468.7685565277734,1468.7685565277734,0.9997684526835189,0.00035522885188210573
1468.7755011238955,1468.7755011238955,1.0008002884346097,0.0003553282543787195
1468.7824457200181,1468.7824457200181,1.0009142146850636,0.0003555321601159661
1468.7893903160825,1468.7893903160825,1.0003059757158463,0.0003552581741385909
1468.796334912135,1468.796334912135,1.000277808353436,0.00035523703471574536
1468.8032795081756,1468.8032795081756,0.9999054071058001,0.00035525601479340205
1468.810224104182,1468.810224104182,0.9999355184791388,0.0003553501329766288
1468.8171687001764,1468.8171687001764,0.9997143872544454,0.00035523464601335404
1468.8241132961361,1468.8241132961361,0.9995078259455333,0.0003554233624897072
1468.831057892084,1468.831057892084,1.0001547600549165,0.00035532783328940764
1468.8380024879848,1468.8380024879848,0.9999632736175332,0.0003553067271778968
1468.844947083874,1468.844947083874,1.0004902635229425,0.00035518767834700885
1468.851891679729,1468.851891679729,1.0001405654656528,0.00035516042911587763
1468.8588362755606,1468.8588362755606,0.9998985489451668,0.00035528602942959864
1468.865780871392,1468.865780871392,1.0000166269237674,0.00035524873720860694
1468.8727254672117,1468.8727254672117,0.999851247023097,0.00035533143294985095
1468.879670062973,1468.879670062973,1.0000988183086594,0.00035535306061543843
1468.8866146587347,1468.8866146587347,1.0005224230048573,0.00035535646180732624
1468.8935592544499,1468.8935592544499,1.000655346618124,0.0003553902148195245
1468.9005038501532,1468.9005038501532,1.0000012187812346,0.0003553421050969181
1468.9074484458215,1468.9074484458215,0.999987348805529,0.00035535476554386934
1468.914393041478,1468.914393041478,0.9998541113863613,0.00035522456403368007
1468.9213376371004,1468.9213376371004,0.9998018414311103,0.0003554234665831084
1468.9282822327107,1468.9282822327107,0.9999590508445442,0.00035516658805729293
1468.9352268282976,1468.9352268282976,0.9997165758223125,0.0003552987227475335
1468.9421714238495,1468.9421714238495,0.9997929353388656,0.00035522712195282604
1468.9491160193895,1468.9491160193895,1.00018715974117,0.0003554724167818842
1468.9566161825267,1468.9566161825267,1.0004196653155355,0.0003553499077270516
1468.964394129474,1468.964394129474,1.0001322613042105,0.0003552878464558888
1468.9713387249208,1468.9713387249208,1.0001167912371265,0.00035520415281874905
1468.9782833203565,1468.9782833203565,1.0001450495473614,0.00035528064592564123
1468.9852279157808,1468.9852279157808,0.9999505905571688,0.00035516690507571687
1468.9921725111465,1468.9921725111465,0.999509465790043,0.0003551522498409465
1468.9991171065008,1468.9991171065008,0.9996554495601385,0.0003552058040887332
1469.006061701843,1469.006061701843,0.9999770188854047,0.0003553728363740993
1469.01300629715,1469.01300629715,1.0006015875833736,0.0003553736533740786
1469.0199508924463,1469.0199508924463,0.99994879966622,0.0003553732826286423
1469.0268954876958,1469.0268954876958,0.9999988784288387,0.00035503326878952453
1469.0338400829453,1469.0338400829453,0.9996710266030024,0.0003551101912387911
1469.0407846781595,1469.0407846781595,1.0003035363121147,0.0003550923549282003
1469.0477292733503,1469.0477292733503,1.000241376504896,0.0003551187216979789
1469.0546738685184,1469.0546738685184,1.0006186066217806,0.00035524769536330236
1469.061618463663,1469.061618463663,0.999653248287699,0.0003552030483122642
1469.0685630587727,1469.0685630587727,0.9990692088182144,0.00035520469754732494
1469.0755076538712,1469.0755076538712,1.000357639197201,0.000355510759611046
1469.0824522489336,1469.0824522489336,1.000077860811309,0.0003553791248228322
1469.0893968439855,1469.0893968439855,1.0000400470852204,0.000355288301645987
1469.0963414390017,1469.0963414390017,0.9995731459627315,0.00035534348199007864
1469.1032860339833,1469.1032860339833,1.0001593729759206,0.00035540104898341404
1469.110230628942,1469.110230628942,1.0001438201183088,0.0003552432704033854
1469.1171752238997,1469.1171752238997,0.9996064748622864,0.00035532042015114175
1469.124119818835,1469.124119818835,1.0002582440659338,0.0003551633019197948
1469.131064413735,1469.131064413735,1.000185674003153,0.00035540612669763915
1469.1380090086118,1469.1380090086118,1.0000859059277545,0.0003551362193010789
1469.1449536034538,1469.1449536034538,1.000128646443296,0.0003552379485520183
1469.1518981982954,1469.1518981982954,0.9998025810099327,0.0003554646003322448
1469.1588427930792,1469.1588427930792,1.000217478728047,0.0003555126186082864
1469.1657873878512,1469.1657873878512,0.9999405820510482,0.00035536892704314917
1469.1727319826118,1469.1727319826118,0.9996430700614483,0.00035519443769685036
1469.1796765773374,1469.1796765773374,1.000132227895549,0.0003552466348254201
1469.1866211720276,1469.1866211720276,0.9995103610724996,0.0003552225704499284
1469.193565766695,1469.193565766695,1.0002779707165839,0.0003551475704678405
1469.2005103613621,1469.2005103613621,1.0002576333570454,0.0003552855908645404
1469.2074549559943,1469.2074549559943,1.0000622770370167,0.0003553798750872663
1469.2143995506037,1469.2143995506037,1.0005062099375874,0.0003552324089587979
1469.2213441451895,1469.2213441451895,0.9999037250394525,0.00035531613040175856
1469.2282887397287,1469.2282887397287,0.999671089793523,0.0003552170332114081
1469.2352333342674,1469.2352333342674,1.000001027993693,0.0003551832086781769
1469.2421779287722,1469.2421779287722,1.0001292087986466,0.0003552368064529208
1469.2491225232534,1469.2491225232534,0.9998354829682616,0.0003551860880771833
1469.256067117699,1469.256067117699,0.9995766712016682,0.00035519057710578766
1469.263011712145,1469.263011712145,0.9998484536706076,0.0003553592936781155
1469.269956306521,1469.269956306521,1.000454894846672,0.0003552847597228369
1469.2769009008978,1469.2769009008978,0.9997905177626926,0.0003550864427644044
1469.283845495274,1469.283845495274,1.0000190714299106,0.0003552729208774075
1469.2907900896153,1469.2907900896153,1.0004519551279927,0.00035531291120729873
1469.2977346839214,1469.2977346839214,1.0002680985019545,0.00035525344535862214
1469.304679278193,1469.304679278193,0.9996417800384207,0.00035511113504801023
1469.3116238724526,1469.3116238724526,1.0002997961273246,0.0003553072152335687
1469.3185684666776,1469.3185684666776,1.0003154939770735,0.0003553186139108786
1469.325513060891,1469.325513060891,1.0000859077995476,0.00035531935899603385
1469.332457655069,1469.332457655069,1.000100496551965,0.0003551373429508782
1469.339402249236,1469.339402249236,0.9993418492097359,0.000355110254001186
1469.3463468433679,1469.3463468433679,1.0003897922471092,0.0003551953589701377
1469.3532914374646,1469.3532914374646,0.9999449782003966,0.00035526684290378976
1469.3602360315497,1469.3602360315497,0.9996242414807336,0.0003551328107348337
1469.3671806256116,1469.3671806256116,1.0001563647098568,0.0003553054348641454
1469.3741252196385,1469.3741252196385,1.0004272369242555,0.0003552760093909964
1469.381069813654,1469.381069813654,0.9998047343270642,0.00035535566775164154
1469.3880144076345,1469.3880144076345,1.000103009716049,0.0003553441626924785
1469.3949590015795,1469.3949590015795,0.9996959175496508,0.0003552206752616812
1469.401903595525,1469.401903595525,0.9999854160245537,0.0003552311432115221
1469.4088481894244,1469.4088481894244,1.0002227027571888,0.00035534715796326877
1469.4157927833114,1469.4157927833114,1.0008670335967007,0.00035531851998817337
1469.422737377164,1469.422737377164,0.9997132837488936,0.0003551721804678604
1469.4296819710048,1469.4296819710048,0.9999064561217954,0.0003551380364234363
1469.4366265647986,1469.4366265647986,0.9995367015142242,0.0003552217426472919
1469.443571158593,1469.443571158593,0.9999481646857162,0.0003553456943365434
1469.4505157523404,1469.4505157523404,1.0002840373828774,0.00035538643335715654
1469.4574603460765,1469.4574603460765,1.0001295513911141,0.000355407039533568
1469.4644049397775,1469.4644049397775,1.0004772338227748,0.00035523445263934333
1469.4713495334668,1469.4713495334668,1.0001328717738494,0.0003553480782184279
1469.4782941271092,1469.4782941271092,0.9996511555598666,0.00035521371578927253
1469.4852387207407,1469.4852387207407,0.9997059373409465,0.0003551304029906518
1469.4921833143603,1469.4921833143603,0.9996775667713121,0.00035526902770489753
1469.4991279079336,1469.4991279079336,0.9997971517254903,0.0003550898956919385
1469.5060725014832,1469.5060725014832,1.0003359700149845,0.000355340913320513
1469.5130170950208,1469.5130170950208,1.000311053987025,0.0003552541835288831
1469.5199616885238,1469.5199616885238,0.9999205056813393,0.00035515574622417795
1469.526906281992,1469.526906281992,0.9998437467337009,0.00035511964592105025
1469.533850875449,1469.533850875449,1.000547954945598,0.00035512857656253726
1469.5407954688822,1469.5407954688822,0.9999416777985581,0.00035503501214993976
1469.5477400622804,1469.5477400622804,0.9993743276968093,0.00035507851778936135
1469.5546846556438,1469.5546846556438,1.000278905740667,0.00035517669416690735
1469.5616292490072,1469.5616292490072,0.9999111386962181,0.0003553172196138907
1469.568573842324,1469.568573842324,1.0004091651000842,0.0003553976909517057
1469.5755184356294,1469.5755184356294,0.9999677774492847,0.00035523695456999443
1469.5824630289,1469.5824630289,1.000056532707085,0.0003552403246547291
1469.589407622158,1469.589407622158,0.9993690031774731,0.00035523167429374
1469.5963522153702,1469.5963522153702,1.000212047366033,0.0003553149003366223
1469.6032968085824,1469.6032968085824,0.9999679341945911,0.00035541294873622277
1469.6102414017364,1469.6102414017364,1.000070023622429,0.0003552485024112985
1469.6171859948786,1469.6171859948786,1.0000565214096606,0.00035518333049800604
1469.624130588009,1469.624130588009,1.0001659303342345,0.0003555093491767078
1469.6310751810931,1469.6310751810931,0.9998332157684098,0.0003551433246055026
1469.6380197741655,1469.6380197741655,0.9997467893045651,0.0003552549042241788
1469.6449643672145,1469.6449643672145,0.9998584732830608,0.000355026450329104
1469.651908960229,1469.651908960229,1.0002903918206794,0.00035519723799339617
1469.6588535532312,1469.6588535532312,1.0002389384607941,0.0003551505455978537
1469.6657981462104,1469.6657981462104,0.9997596285107399,0.00035527677796172186
1469.6727427391313,1469.6727427391313,1.0002090170682636,0.0003552083643665217
1469.6796873320523,1469.6796873320523,1.000031315874689,0.00035517244299186656
1469.6866319249507,1469.6866319249507,1.0001897578693506,0.0003552899640534059
1469.6935765178132,1469.6935765178132,0.9997101687593911,0.00035507447427766763
1469.700521110641,1469.700521110641,1.0002808948465045,0.0003552958925374043
1469.7074657034573,1469.7074657034573,0.9998360384462057,0.00035527613326124976
1469.7144102962386,1469.7144102962386,0.9995469561358566,0.00035519932832143574
1469.7213548890086,1469.7213548890086,1.0002443540060029,0.00035525688585033154
1469.728299481743,1469.728299481743,1.0000076914461773,0.00035541182976272536
1469.7352440744546,1469.7352440744546,1.0000839785197195,0.0003553057682292141
1469.742188667131,1469.742188667131,1.0001828729824398,0.0003553420207746528
1469.7491332598076,1469.7491332598076,0.9996192008390687,0.0003553214233381477
1469.756077852438,1469.756077852438,1.0002728639557303,0.0003553941929919554
1469.763022445021,1469.763022445021,0.9998724311744402,0.00035526139593442777
1469.7699670376046,1469.7699670376046,0.9998938435032031,0.0003552759068979386
1469.7769116301647,1469.7769116301647,1.0001927793770347,0.0003551559516998977
1469.7838562226898,1469.7838562226898,0.9999156978841782,0.00035521301720654397
1469.7908008151917,1469.7908008151917,0.9996851326132612,0.00035522477977033664
1469.7977454076704,1469.7977454076704,1.0001711396913853,0.0003552014574189004
1469.8046900001143,1469.8046900001143,1.0001183758104406,0.0003553943305548393
1469.811634592535,1469.811634592535,1.0002606480555776,0.00035522541639587956
1469.8185791849432,1469.8185791849432,0.999524845877948,0.00035507228268405163
1469.8255237773174,1469.8255237773174,0.9999373315358391,0.00035519274327080406
1469.8324683696799,1469.8324683696799,1.000602937070052,0.0003552992660941896
1469.8394129619605,1469.8394129619605,1.0003030996963271,0.00035536794066651694
1469.8463575542764,1469.8463575542764,0.9996159302895631,0.0003551084528368599
1469.8533021465453,1469.8533021465453,1.0001755613169305,0.0003551277681497439
1469.860246738779,1469.860246738779,0.9995010758602078,0.0003552862714379635
1469.8671913309786,1469.8671913309786,0.9998090826366092,0.00035512365802504184
1469.8741359231778,1469.8741359231778,1.0000293987435818,0.0003552417190414247
1469.8810805153541,1469.8810805153541,1.0001359609419533,0.00035510066805326306
1469.8880251074831,1469.8880251074831,0.9996360330226629,0.0003551869129991295
1469.8949696995896,1469.8949696995896,1.0004813425924874,0.00035519125492938195
1469.901914291672,1469.901914291672,0.9999859159923414,0.0003552026393620595
1469.9088588837203,1469.9088588837203,1.000446752204615,0.00035525458867256886
1469.9158034757681,1469.9158034757681,1.0000082379842614,0.0003552697083923465
1469.9227480677696,1469.9227480677696,1.0001275682348292,0.0003553393584568461
1469.9296926597478,1469.9296926597478,0.9996842947791829,0.0003552932741872297
1469.9366372517022,1469.9366372517022,0.9994166848451357,0.0003551494501029688
1469.9435818436225,1469.9435818436225,1.0000624903308502,0.00035521188145474434
1469.9505264355303,1469.9505264355303,1.0000333900076384,0.00035545217899146274
1469.9574710273923,1469.9574710273923,0.9999854560922247,0.00035509616522938053
1469.9644156192542,1469.9644156192542,1.0002487775065778,0.0003552584748037225
1469.9713602110692,1469.9713602110692,1.000315359266557,0.0003553501102352776
1469.9783048028607,1469.9783048028607,1.0003061576081955,0.00035534002732134484
1469.9852493946175,1469.9852493946175,0.9995055488933667,0.00035537781436799517
1469.9921939863743,1469.9921939863743,1.0000358111875738,0.00035531451624697276
1469.9991385780852,1469.9991385780852,0.9998050387115802,0.0003553864446565693
1470.006083169784,1470.006083169784,1.0000779130745026,0.0003552940807392965
1470.0130277614358,1470.0130277614358,0.9994941642498667,0.00035510677099662163
1470.019972353064,1470.019972353064,1.0002690383390973,0.000355266102452078
1470.0269169446815,1470.0269169446815,1.0002421348899673,0.00035519202842516245
1470.0338615362639,1470.0338615362639,1.000087112836923,0.00035511022681534825
1470.040806127823,1470.040806127823,0.9997253997868347,0.00035500504272251404
