time,time,flux,flux_err
1325.2985369601604,1325.2985369601604,0.9999864394784946,0.0003590785620067601
1325.3068701274913,1325.3068701274913,0.9997141899660439,0.0003591849685344368
1325.315203295152,1325.315203295152,1.0002399004186053,0.00035933955797030643
1325.3235364631812,1325.3235364631812,0.9998743839132634,0.00035936815501602236
1325.331175200844,1325.331175200844,0.9999634297829898,0.0003281533845086602
1325.3381195080551,1325.3381195080551,1.0004446115522618,0.00032833377807288985
1325.3450638155225,1325.3450638155225,1.0002674597790289,0.00032837837221241003
1325.3520081232457,1325.3520081232457,0.9997636937757921,0.00032845086139533976
1325.358952431167,1325.358952431167,1.0001700305698393,0.00032865795384427255
1325.3658967393444,1325.3658967393444,1.0001819704962038,0.000328769018776156
1325.372841047754,1325.372841047754,0.9997084256869625,0.00032885150838983155
1325.3797853563858,1325.3797853563858,1.0000875069897321,0.00032902805560401416
1325.3867296652384,1325.3867296652384,0.9999921732647883,0.00032920710804655877
1325.3936739743233,1325.3936739743233,0.9997215898830337,0.00032929176643041686
1325.4006182836652,1325.4006182836652,1.0002068284830368,0.00032951922431865075
1325.4075625931928,1325.4075625931928,0.9997893746335477,0.00032956998616514037
1325.414506902965,1325.414506902965,0.9999580212961675,0.0003297341846903581
1325.4214512129233,1325.4214512129233,0.9999021317359832,0.00032985500534092057
1325.4283955231379,1325.4283955231379,1.0000255477072666,0.00033003620849931734
1325.4353398335388,1325.4353398335388,1.0000436838763245,0.0003301896824642004
1325.4422841441374,1325.4422841441374,1.0001064205746482,0.0003302178796081881
1325.449228454969,1325.449228454969,0.9999892836394626,0.00033043746595818593
1325.4561727660216,1325.4561727660216,1.0000744278650984,0.00033055683729774814
1325.4631170772723,1325.4631170772723,0.999952801704287,0.000330686448264991
1325.4700613887208,1325.4700613887208,1.000478393684796,0.0003308637929944885
1325.4770057003911,1325.4770057003911,0.9994370775360484,0.00033091210528638464
1325.4839500122466,1325.4839500122466,0.9991749528974921,0.0003310334878158292
1325.4908943243242,1325.4908943243242,0.9999572707255467,0.00033129379422609144
1325.497838636576,1325.497838636576,1.000545480778867,0.0003315196584737977
1325.5047829490256,1325.5047829490256,0.9997015716148582,0.0003315964316905101
1325.5117272616849,1325.5117272616849,1.0001447949040188,0.0003318496211306025
1325.518671574519,1325.518671574519,1.0002016532887623,0.0003319617239814675
1325.5256158875507,1325.5256158875507,1.0002173680414244,0.0003321854758900074
1325.532560200792,1325.532560200792,0.9997190473705999,0.0003322726991473561
1325.5395045141727,1325.5395045141727,1.0004362521061017,0.00033254543495847414
1325.5464488277757,1325.5464488277757,0.9998094694666328,0.0003326094630095312
1325.553393141564,1325.553393141564,0.9998289149614095,0.0003327201709392548
1325.5603374555274,1325.5603374555274,0.9999184171303008,0.00033286756782397153
1325.567281769665,1325.567281769665,0.9997088740146601,0.0003330277500990075
1325.5742260839775,1325.5742260839775,0.9997886630327107,0.0003331339195009267
1325.5811703984878,1325.5811703984878,0.9997474312733635,0.0003332652530368436
1325.588114713149,1325.588114713149,1.0005636315107114,0.0003334650334324195
1325.595059028009,1325.595059028009,1.0002871533759206,0.0003334993831097266
1325.6020033430195,1325.6020033430195,1.0007164161480868,0.00033359100899809144
1325.6089476582051,1325.6089476582051,1.0001733747745183,0.00033364984208134946
1325.6158919735653,1325.6158919735653,0.999989237974552,0.00033364034925793167
1325.6228362890884,1325.6228362890884,0.9999172291135994,0.00033361131866456337
1325.629780604798,1325.629780604798,0.9993711902462994,0.0003336071391890804
1325.6367249206587,1325.6367249206587,0.9995819925464844,0.0003336126303004201
1325.643669236659,1325.643669236659,1.0001674476049902,0.0003337071858160347
1325.6506135528457,1325.6506135528457,1.0002141794283137,0.0003337416957808858
1325.6575578691718,1325.6575578691718,1.000187591362638,0.00033369675292218133
1325.6645021856848,1325.6645021856848,1.0004118619110778,0.00033375514476482874
1325.6714465023256,1325.6714465023256,0.9999244471138896,0.0003336225552674643
1325.678390819141,1325.678390819141,0.9997645714872055,0.0003335999390217066
1325.6853351360958,1325.6853351360958,0.9998891077371335,0.00033368477374555325
1325.692279453202,1325.692279453202,0.9997939362281503,0.00033366486043597205
1325.69922377046,1325.69922377046,0.9998386544722193,0.0003336695735101464
1325.7061680878808,1325.7061680878808,1.0007074969397274,0.00033381727663243726
1325.7131124054295,1325.7131124054295,1.0000692205010406,0.0003337754223794086
1325.7200567231525,1325.7200567231525,1.0001075260646295,0.0003338919015964101
1325.727001041016,1325.727001041016,0.9999792919857764,0.000333891382099779
1325.7339453589836,1325.7339453589836,1.0005343637443673,0.0003339632077077716
1325.7408896771376,1325.7408896771376,0.9995150916624661,0.000333922617486122
1325.7478339953964,1325.7478339953964,0.9996770873683296,0.0003340360491323455
1325.754778313807,1325.754778313807,0.9998585443064332,0.0003341276294174085
1325.7617226323566,1325.7617226323566,1.00034736961174,0.00033425141892125953
1325.7686669510463,1325.7686669510463,1.0001280525622291,0.00033432704148690813
1325.775611269864,1325.775611269864,1.000000607407586,0.00033442126336756577
1325.782555588833,1325.782555588833,1.0003146816951831,0.00033451899949756225
1325.7894999079301,1325.7894999079301,0.9997676763440368,0.00033450210969864413
1325.7964442271436,1325.7964442271436,1.0000630361678395,0.0003345842250639981
1325.803388546497,1325.803388546497,1.000027103152071,0.0003346418508792095
1325.8103328659663,1325.8103328659663,0.999627418786581,0.0003346340126867558
1325.8172771855873,1325.8172771855873,0.9999420746788583,0.00033467445299340497
1325.8242215053015,1325.8242215053015,0.9996753021682168,0.0003346873681180207
1325.8311658251553,1325.8311658251553,1.0003755663211453,0.0003348221460462961
1325.838110145137,1325.838110145137,1.0001973445273087,0.00033483274317149876
1325.845054465247,1325.845054465247,0.9998799494012467,0.0003347242053657754
1325.851998785473,1325.851998785473,1.0001841172125332,0.0003347792086719608
1325.8589431058158,1325.8589431058158,0.9999852377825281,0.0003346681627167641
1325.865887426275,1325.865887426275,1.0002313330851074,0.00033464185259027767
1325.8728317468624,1325.8728317468624,0.9995830750426478,0.00033449029484206906
1325.8797760675545,1325.8797760675545,0.9999975022196864,0.0003344501558302429
1325.8867203883744,1325.8867203883744,1.0000351417482383,0.0003344124084153154
1325.893664709299,1325.893664709299,1.0001425578247098,0.0003343433169806617
1325.9006090303403,1325.9006090303403,1.0000898009989305,0.0003342183228490845
1325.9075533514979,1325.9075533514979,0.9999444722256016,0.00033413975089304995
1325.9144976727716,1325.9144976727716,1.0000796860406242,0.0003340836437176199
1325.9214419941623,1325.9214419941623,1.0001296611508068,0.00033411315622618545
1325.9283863156343,1325.9283863156343,0.9992839164044213,0.0003339382591630193
1325.9353306372343,1325.9353306372343,0.9998731501552609,0.0003339983649338586
1325.942274958939,1325.942274958939,1.0003263188121356,0.0003340193615720388
1325.949219280737,1325.949219280737,1.0003766944736079,0.00033400370625381995
1325.9561636026515,1325.9561636026515,1.0001048541682775,0.00033396981107899654
1325.9642190162053,1325.9642190162053,0.9997468853398654,0.00033388862301827153
1325.9714411112332,1325.9714411112332,0.9999291694531902,0.0003338256302839361
1325.9783854334964,1325.9783854334964,0.9994889207874067,0.0003338133757305573
1325.9853297558184,1325.9853297558184,1.0002258017971974,0.0003339074451250453
1325.9922740782565,1325.9922740782565,1.0001652729750694,0.0003338999151572679
1325.9992184008113,1325.9992184008113,0.9998922723003283,0.00033383751526820096
1326.0061627234586,1326.0061627234586,0.9998551751004614,0.0003339363928177691
1326.0131070461882,1326.0131070461882,1.0004977568951312,0.00033404304733426765
1326.0200513690454,1326.0200513690454,1.0000194040155972,0.00033404742756527515
1326.026995691961,1326.026995691961,1.000410585172623,0.00033422664321210735
1326.0339400149812,1326.0339400149812,0.9998589895214451,0.0003341295244569053
1326.0408843380944,1326.0408843380944,0.9996452669319333,0.00033408126141374944
1326.0478286613247,1326.0478286613247,1.0002303231898877,0.0003340861628205385
1326.054772984624,1326.054772984624,0.9997300650774109,0.00033409230975343365
1326.0617173080284,1326.0617173080284,1.0001619038744816,0.00033420943016412516
1326.068661631503,1326.068661631503,0.9997994504113071,0.00033412951055300733
1326.0756059550818,1326.0756059550818,0.9996761042444312,0.00033414525134192865
1326.0825502787425,1326.0825502787425,0.9997172935462799,0.0003341315892123515
1326.0894946025078,1326.0894946025078,1.000292599518318,0.0003342226682935467
1326.0964389263313,1326.0964389263313,1.0002414695064612,0.0003342076652202813
1326.103383250248,1326.103383250248,1.000190311611615,0.00033423091264234324
1326.1103275742694,1326.1103275742694,1.0002387434118787,0.0003342009686116196
1326.1172718983607,1326.1172718983607,0.9998238977018422,0.0003341658562102894
1326.1242162225449,1326.1242162225449,0.9994461239744723,0.00033412378682768073
1326.1311605467995,1326.1311605467995,1.0006564778192217,0.0003342660663261799
1326.1381048711467,1326.1381048711467,1.0002659671583103,0.0003341798089293904
1326.1450491955875,1326.1450491955875,0.9995667091804841,0.00033415212742021733
1326.1519935200863,1326.1519935200863,0.9998776752749687,0.0003341527603823739
1326.1589378446781,1326.1589378446781,0.99976254786387,0.00033417613733142314
1326.1658821693516,1326.1658821693516,0.9999295950812878,0.0003341995210968729
1326.1728264940828,1326.1728264940828,1.0001047273349362,0.00033416334747151733
1326.1797708189195,1326.1797708189195,1.000363637885688,0.0003341942997392255
1326.1867151438369,1326.1867151438369,1.0001382342475318,0.00033410050592813076
1326.1936594687897,1326.1936594687897,0.9999581025751585,0.00033406150829112574
1326.2006037938359,1326.2006037938359,0.9999122397920017,0.00033406171194060984
1326.207548118975,1326.207548118975,0.9997658667723682,0.00033402411499171313
1326.2144924441952,1326.2144924441952,0.9997377996443518,0.00033402138148395553
1326.221436769451,1326.221436769451,1.000072743106816,0.00033402301963093807
1326.2283810947993,1326.2283810947993,1.0000898131332687,0.00033402816755758835
1326.2353254202294,1326.2353254202294,1.0003613438272596,0.0003340681138834725
1326.2422697457175,1326.2422697457175,1.0001113579991823,0.00033403062734385457
1326.249214071288,1326.249214071288,0.9999652171157688,0.000333958908175853
1326.2561583969268,1326.2561583969268,0.9999024982583844,0.00033395005322718943
1326.263102722625,1326.263102722625,1.0000753686206525,0.0003339488639270506
1326.2700470484044,1326.2700470484044,0.9996510034182068,0.0003338764172032358
1326.2769913742534,1326.2769913742534,0.9997406035363046,0.0003338502265790754
1326.2839357001726,1326.2839357001726,1.0001661966868727,0.0003339067519300107
1326.290880026138,1326.290880026138,1.0003728461140426,0.00033391709960299586
1326.2978243521968,1326.2978243521968,1.0002111884731462,0.0003339021960789575
1326.3047686783134,1326.3047686783134,0.9999455512257196,0.0003338460964453334
1326.3117130044889,1326.3117130044889,0.9996964852890307,0.00033381155473223616
1326.3186573307337,1326.3186573307337,0.9999391383733514,0.0003338572651080445
1326.3256016570372,1326.3256016570372,1.0000652158196017,0.0003338974863450724
1326.3325459834218,1326.3325459834218,1.0001777173436963,0.0003339164577956212
1326.3394903098647,1326.3394903098647,0.9999141428064242,0.0003338767506657492
1326.3475457286106,1326.3475457286106,1.0000171407449228,0.0003339843212021799
1326.35615669356,1326.35615669356,1.0001424825069152,0.00033397719832529207
1326.363101020213,1326.363101020213,0.9994847317576111,0.000333923160607879
1326.3700453469232,1326.3700453469232,1.000147114201439,0.00033402644781235953
1326.3769896736922,1326.3769896736922,1.000000615463891,0.00033405469545495667
1326.3839340005306,1326.3839340005306,1.000015174807935,0.00033400598572986645
1326.3908783274278,1326.3908783274278,0.9999955461725649,0.0003340927177581059
1326.39782265436,1326.39782265436,1.0000939310956936,0.000334110223861627
1326.4047669813845,1326.4047669813845,1.0002337671942227,0.0003341537514706787
1326.411711308445,1326.411711308445,0.9998660590381189,0.00033417166307727556
1326.4186556355742,1326.4186556355742,1.0002052859717858,0.0003342699075807047
1326.4255999627505,1326.4255999627505,0.9997464820623291,0.00033416064221327357
1326.4325442899967,1326.4325442899967,1.0000080761372194,0.00033428506877024875
1326.4394886172895,1326.4394886172895,0.9996380106703955,0.00033421443136095964
1326.4464329446405,1326.4464329446405,0.9998103721781986,0.00033421409556170926
1326.4533772720492,1326.4533772720492,1.0000592523424985,0.0003342784187307538
1326.4603215995053,1326.4603215995053,1.000181256303352,0.00033436836503101874
1326.4672659270423,1326.4672659270423,0.9999581784217222,0.0003343111911063519
1326.474210254591,1326.474210254591,1.0004315881253638,0.0003344080153760433
1326.4811545822217,1326.4811545822217,1.0001249454264307,0.0003343736503542375
1326.488098909887,1326.488098909887,1.000021314178897,0.0003343987011197915
1326.4950432376222,1326.4950432376222,0.9997878755371377,0.00033439273985334144
1326.5019875654032,1326.5019875654032,1.0000823323333239,0.00033449970859460865
1326.50893189322,1326.50893189322,0.9998795508673585,0.0003344480927547725
1326.515876221118,1326.515876221118,0.9995889117094496,0.00033441397079601355
1326.5228205490514,1326.5228205490514,1.000215369458037,0.0003345468915350791
1326.529764877031,1326.529764877031,1.0001907445287408,0.0003346132938427892
1326.5367092050683,1326.5367092050683,0.9995706844850011,0.0003346238829776363
1326.5436535331648,1326.5436535331648,0.9999619197505292,0.0003346875547972946
1326.5505978612955,1326.5505978612955,1.0003651805261318,0.00033482950001046877
1326.5575421894614,1326.5575421894614,1.000356458156891,0.00033478188600210705
1326.5644865176969,1326.5644865176969,1.0001848285454917,0.0003347718151299352
1326.5714308459678,1326.5714308459678,0.9997847792814264,0.0003347267855102447
1326.5783751742965,1326.5783751742965,0.9995525251564171,0.00033469725213517657
1326.5853195026598,1326.5853195026598,0.9999072661054111,0.00033478636441206433
1326.5922638310708,1326.5922638310708,1.0000644060653578,0.00033488442852310635
1326.5992081595623,1326.5992081595623,1.00037437269087,0.00033493783930005913
1326.6061524880656,1326.6061524880656,0.9996097848536396,0.0003348510840078177
1326.6130968166158,1326.6130968166158,1.0006233303781602,0.0003349995871906125
1326.6200411452237,1326.6200411452237,0.9997931503884437,0.00033487130609760396
1326.626985473879,1326.626985473879,1.0001768932784292,0.00033498284499686485
1326.6339298025914,1326.6339298025914,0.9995888259411458,0.0003348851122751992
1326.6408741313046,1326.6408741313046,1.0004051826154474,0.0003349404604312689
1326.647818460076,1326.647818460076,0.999520521404748,0.00033484431398574967
1326.6547627889054,1326.6547627889054,0.9999484840973496,0.0003348420024961958
1326.6617071177698,1326.6617071177698,0.9996956962903324,0.0003347990251767225
1326.668651446692,1326.668651446692,1.0002088231077497,0.000334783398636418
1326.6755957756263,1326.6755957756263,0.9998019901581034,0.00033471484533964383
1326.6825401046303,1326.6825401046303,1.0005813608534009,0.0003347079977512408
1326.6908732994702,1326.6908732994702,0.9995837481949508,0.0003345322491490871
1326.6978176285556,1326.6978176285556,1.000091459289186,0.0003345660709086711
1326.7047619576877,1326.7047619576877,1.0001433446909531,0.00033448475842309073
1326.7125396063586,1326.7125396063586,1.0002204940266515,0.00033449427544304827
1326.7200394819042,1326.7200394819042,1.0001874755388958,0.00033442772744797305
1326.7269838111642,1326.7269838111642,1.0009095613741583,0.0003345327499417917
1326.7339281404595,1326.7339281404595,1.0000085912469114,0.00033440598957424646
1326.7408724697896,1326.7408724697896,0.9992993410719647,0.0003342586574006358
1326.7478167991655,1326.7478167991655,0.999841638359926,0.0003343515335296953
1326.7547611285886,1326.7547611285886,1.0001532517453835,0.0003343664294573929
1326.7617054580353,1326.7617054580353,1.0002385680281485,0.0003343165152783267
1326.7686497875166,1326.7686497875166,0.9999576956300935,0.00033430582454051417
1326.7755941170446,1326.7755941170446,0.9998927335462063,0.00033428411202220793
1326.7825384465955,1326.7825384465955,0.9997940731134299,0.00033426228017109465
1326.7894827762168,1326.7894827762168,0.9998895374872723,0.00033426988485067103
1326.7964271058493,1326.7964271058493,0.9999471678816368,0.0003343137851153033
1326.803371435529,1326.803371435529,1.0003772880047934,0.0003343338953552519
1326.8103157652426,1326.8103157652426,1.0002750525929014,0.00033430622420784595
1326.817260094992,1326.817260094992,1.0001455166564264,0.0003342873424071528
1326.8242044247759,1326.8242044247759,0.9995967694728016,0.00033420668379160746
1326.831148754583,1326.831148754583,0.9998155827474772,0.00033423310073486253
1326.8380930844487,1326.8380930844487,0.9999568311657978,0.0003342480022890149
1326.8450374143256,1326.8450374143256,0.9999927242623793,0.0003342024023803204
1326.8519817442611,1326.8519817442611,1.0002859874592314,0.0003342669853313209
1326.8589260742199,1326.8589260742199,0.9995493149510871,0.00033407552544390456
1326.8658704042136,1326.8658704042136,1.0005001996236875,0.0003342089067041395
1326.8728147342422,1326.8728147342422,1.0001226602552644,0.0003340793903906866
1326.879759064305,1326.879759064305,0.9998354158740614,0.00033397368847243883
1326.8867033944036,1326.8867033944036,0.9999149200954861,0.00033390405166571093
1326.8936477245134,1326.8936477245134,1.0003552213622657,0.0003338873922648471
1326.900592054682,1326.900592054682,0.9999268608626345,0.0003337361763656117
1326.9075363848847,1326.9075363848847,0.9999471619668456,0.0003336993869221127
1326.914480715111,1326.914480715111,0.9994520475675941,0.0003334938210960617
1326.921425045361,1326.921425045361,1.000168170976702,0.00033351739297676227
1326.9283693756574,1326.9283693756574,0.9994435843194214,0.00033328489334285226
1326.935313705977,1326.935313705977,0.999701666346178,0.00033323578481230464
1326.942258036331,1326.942258036331,1.0003252441061972,0.0003332607420710594
1326.9492023667208,1326.9492023667208,1.0001447159644887,0.0003331308204827016
1326.9561466971331,1326.9561466971331,0.9998452880612927,0.0003330002028971139
1326.9630910275926,1326.9630910275926,1.0003607883919965,0.0003329910646188963
1326.9700353580515,1326.9700353580515,1.0000764137048468,0.0003328571094217144
1326.976979688569,1326.976979688569,0.999808330130637,0.00033276867449851167
1326.98392401911,1326.98392401911,1.0001788018190942,0.0003327576615319039
1326.990868349674,1326.990868349674,0.999868888164799,0.00033269206861511196
1326.9978126802844,1326.9978126802844,0.9999092997505805,0.00033257812608463637
1327.004757010895,1327.004757010895,0.9996437648626493,0.0003326176288227225
1327.011701341552,1327.011701341552,1.0002219819666585,0.00033268475502396693
1327.0186456722324,1327.0186456722324,1.0004172787378132,0.0003327020707515794
1327.0255900029479,1327.0255900029479,1.0000556100682647,0.00033269974064825604
1327.0325343336985,1327.0325343336985,0.9999380589545774,0.0003326653555983391
1327.0394786644597,1327.0394786644597,0.9992740656150236,0.00033254417037613507
1327.0464229952684,1327.0464229952684,1.0004138421526556,0.0003327048610147059
1327.0533673260884,1327.0533673260884,1.0000466332723181,0.0003326660088328973
1327.0614227498756,1327.0614227498756,1.000233941142144,0.00033275283400066444
