time,time,flux,flux_err
1437.9981765402574,1437.9981765402574,0.9937537387122558,0.01074079373434513
1438.0065101474938,1438.0065101474938,0.9987381691820705,0.010660994122114723
1438.014149287747,1438.014149287747,0.9987251810309145,0.009664849156576161
1438.021093960808,1438.021093960808,1.0014353124163178,0.009619540877530596
1438.0280386341478,1438.0280386341478,1.0136174531939286,0.009575255003780588
1438.0349833076275,1438.0349833076275,1.0113898746030632,0.009531181171167333
1438.0419279812002,1438.0419279812002,1.0019612473039388,0.00949019197163833
1438.048872655006,1438.048872655006,1.0048232218207478,0.009444932794311852
1438.0558173289046,1438.0558173289046,1.0033247485685173,0.009400096014640936
1438.0627620029436,1438.0627620029436,1.0064513378742013,0.009367411037936601
1438.0697066771681,1438.0697066771681,0.9994132210127159,0.009328953109040236
1438.0766513514395,1438.0766513514395,0.9972944663724036,0.009307174098916902
1438.0835960259903,1438.0835960259903,0.9992395164558582,0.009294112420429284
1438.0905407005873,1438.0905407005873,0.9927301748948306,0.009267771419711354
1438.0974853752782,1438.0974853752782,0.9987786574822126,0.009259840823481327
1438.1044300502012,1438.1044300502012,0.997471381591529,0.009247567544622406
1438.1113747251713,1438.1113747251713,0.9969133047202134,0.009230743003901674
1438.1183194002342,1438.1183194002342,1.0027786582025986,0.00921090169642319
1438.125264075437,1438.125264075437,1.0006935215409132,0.009190985700142231
1438.1322087507328,1438.1322087507328,0.9984507839279996,0.009176303235722475
1438.1391534261215,1438.1391534261215,1.003319809476636,0.009142251388403418
1438.1460981016037,1438.1460981016037,0.9956961535921007,0.009113442819289908
1438.153042777179,1438.153042777179,0.9993085251801919,0.009084436991774577
1438.1599874529402,1438.1599874529402,0.9898623166168056,0.009047445372291081
1438.1669321287018,1438.1669321287018,1.0041768731127634,0.009028295846391731
1438.1738768045566,1438.1738768045566,1.0055629228348,0.008986537489693597
1438.1808214805042,1438.1808214805042,0.9996525370428646,0.008969806987745788
1438.187766156545,1438.187766156545,0.9959077260154936,0.008944402249198286
1438.1947108326794,1438.1947108326794,1.005188370779591,0.00890541082076833
1438.2016555088128,1438.2016555088128,0.9948275834019704,0.008861018941686623
1438.2086001850403,1438.2086001850403,0.9995232216290493,0.008833116157247021
1438.2155448614071,1438.2155448614071,1.0046411753804159,0.008793272754603522
1438.2224895377271,1438.2224895377271,0.9952701431881199,0.008768760915431873
1438.2294342141408,1438.2294342141408,0.9986100074035671,0.008746536264019196
1438.236378890647,1438.236378890647,0.9985035535163245,0.008723722429963578
1438.2433235671538,1438.2433235671538,0.9966422753915278,0.008695047410448024
1438.2502682438003,1438.2502682438003,1.0107713521515602,0.008675907249304768
1438.2572129203531,1438.2572129203531,1.008517962560259,0.008656338842797543
1438.2641575970924,1438.2641575970924,0.9994827426204423,0.008636408396002434
1438.271102273832,1438.271102273832,0.9916736510069921,0.008614036751293724
1438.278046950571,1438.278046950571,1.0015814690056246,0.008609442067747327
1438.2849916273105,1438.2849916273105,0.9923549483513258,0.008598392539952704
1438.291936304236,1438.291936304236,1.0025851963189063,0.00859959320848875
1438.2988809810224,1438.2988809810224,1.000593651154325,0.008580725066924252
1438.305825657994,1438.305825657994,1.0034269842661565,0.00857475470713215
1438.3127703348732,1438.3127703348732,1.0051198678416147,0.008569416996495743
1438.319715011799,1438.319715011799,0.9973930932952859,0.00854912636437535
1438.326659688771,1438.326659688771,0.9982364931567765,0.008532611257382893
1438.3336043657898,1438.3336043657898,1.0008690705502408,0.008523246351130734
1438.3405490427622,1438.3405490427622,0.999364089589843,0.008519943327865338
1438.3474937197807,1438.3474937197807,0.9993341134088801,0.008516631038757192
1438.3544383968467,1438.3544383968467,1.0016814951254527,0.008496179244356283
1438.3613830739116,1438.3613830739116,0.9986953147315788,0.008503742571767458
1438.3683277509303,1438.3683277509303,1.0087517574147147,0.008505460624857217
1438.3752724280423,1438.3752724280423,1.002952688210317,0.008509593032279474
1438.382217105061,1438.382217105061,0.9995663318405515,0.008499632285978382
1438.389161782173,1438.389161782173,0.9901402224985064,0.008500964969996867
1438.3961064592381,1438.3961064592381,1.0031808268274616,0.00850170804297335
1438.4030511362569,1438.4030511362569,1.0008037841917155,0.008488066208301939
1438.4099958133695,1438.4099958133695,0.9966451184421097,0.008491844204272977
1438.4169404903878,1438.4169404903878,0.9975125800002894,0.008499016679886465
1438.4238851674997,1438.4238851674997,0.9933100883953226,0.008501762568926662
1438.4308298445185,1438.4308298445185,1.0054070230523435,0.008508529689428343
1438.4377745215372,1438.4377745215372,1.00387897730204,0.008506255620491723
1438.4447191985557,1438.4447191985557,1.0013247866522197,0.008496013200403716
1438.4516638756213,1438.4516638756213,0.995723567772113,0.008522012908805545
1438.458608552594,1438.458608552594,1.0106778163223715,0.008513388313832434
1438.465553229566,1438.465553229566,0.9982880479357981,0.008508327187940836
1438.4724979065375,1438.4724979065375,0.9951608095725815,0.008510595165978236
1438.4794425834637,1438.4794425834637,1.0075738771291112,0.008504780172492583
1438.4863872604358,1438.4863872604358,0.9913665739006348,0.008496682615722942
1438.4933319373147,1438.4933319373147,1.0027073110626865,0.00849378782271949
1438.5002766141472,1438.5002766141472,0.9932604060002188,0.008498435754495609
1438.5072212910732,1438.5072212910732,0.9919238400921243,0.008494575754728232
1438.5141659678586,1438.5141659678586,1.0002852773051494,0.008496800198847024
1438.5211106445981,1438.5211106445981,1.0098742222807777,0.00848996562052213
1438.528055321338,1438.528055321338,1.0092022861661867,0.008500302948576682
1438.534999998077,1438.534999998077,1.0048327624888826,0.008479592837332656
1438.5419446748162,1438.5419446748162,0.996186066537698,0.008476916331618938
1438.5488893515558,1438.5488893515558,0.9950189170781141,0.008479886090832982
1438.5558340282018,1438.5558340282018,1.0015694988844557,0.008484322096156887
1438.5627787048015,1438.5627787048015,0.9932780370518783,0.008490583454461473
1438.569723381308,1438.569723381308,0.9978252770193479,0.008484448047451508
1438.5766680578615,1438.5766680578615,1.0009376273645079,0.008492329707732376
1438.5836127343675,1438.5836127343675,0.9976750710340825,0.008501210133000118
1438.5905574107812,1438.5905574107812,1.0096446315859944,0.008498263383784746
1438.5975020871947,1438.5975020871947,1.000947031684599,0.008473221278369057
1438.6044467635147,1438.6044467635147,0.9936451242508954,0.008474277219625573
1438.6113914398818,1438.6113914398818,1.0002846767174003,0.008470276509337406
1438.6183361161554,1438.6183361161554,1.000415332438133,0.008472777005248925
1438.625280792383,1438.625280792383,1.0004457303528618,0.008469091596030582
1438.6322254685165,1438.6322254685165,1.000419980784342,0.008469021679477417
1438.6391701446971,1438.6391701446971,1.0051210651489817,0.008473587981686006
1438.6461148207845,1438.6461148207845,1.0042333473935297,0.008474202019727867
1438.6530594968256,1438.6530594968256,1.0006564890387486,0.008490750670691414
1438.6600041727731,1438.6600041727731,0.9886678462985129,0.008475706151679857
1438.6669488487678,1438.6669488487678,0.9958030508985563,0.008481772227300595
1438.6738935246224,1438.6738935246224,1.0060815041659836,0.008484572854134145
1438.6808382004303,1438.6808382004303,1.0015779445798185,0.008500255397888163
1438.6877828762383,1438.6877828762383,1.0000250464465026,0.008493055687770376
1438.6947275519065,1438.6947275519065,1.0013370196848015,0.008499066756395982
1438.7016722276214,1438.7016722276214,1.0037894479722915,0.008509416949548135
1438.70861690329,1438.70861690329,1.00623598293184,0.008509236967037462
1438.7155615788186,1438.7155615788186,1.0014368787795038,0.008495848669346273
1438.722506254208,1438.722506254208,1.0005399381996134,0.0085009554616844
1438.7294509296894,1438.7294509296894,0.9916451567001067,0.008501198447601506
1438.7363956050788,1438.7363956050788,0.994112191113169,0.008496186957344474
1438.7433402803745,1438.7433402803745,1.0017715907782352,0.008494603291310809
1438.75028495567,1438.75028495567,1.0102137279554588,0.008492006524385195
1438.7572296308265,1438.7572296308265,0.9916295990194353,0.008481415656377996
1438.7641743059826,1438.7641743059826,0.9984873229402422,0.008484746143463052
1438.7711189810457,1438.7711189810457,1.004179857479452,0.008480589217936364
1438.7780636560617,1438.7780636560617,0.9967347881767029,0.008469311219181711
1438.7850083309854,1438.7850083309854,0.9963531209874287,0.008461273332097095
1438.791953005862,1438.791953005862,1.0084563595552563,0.008460932694956569
1438.7988976806457,1438.7988976806457,0.9858828006856003,0.008450587729509497
1438.8058423554291,1438.8058423554291,0.9971409631838191,0.008448598574448145
1438.8127870301196,1438.8127870301196,1.0074525348911796,0.008451310449061625
1438.819731704717,1438.819731704717,0.9993313549580727,0.008451002949231474
1438.8266763792212,1438.8266763792212,0.9933234113305843,0.008453465276509241
1438.833621053726,1438.833621053726,0.996082834255237,0.008459196813970848
1438.8405657281364,1438.8405657281364,1.0056376854328284,0.008466288604508664
1438.8475104024546,1438.8475104024546,1.0024446057527618,0.008481382529525138
1438.8544550767724,1438.8544550767724,1.0054465683234846,0.008487459061449994
1438.8613997509506,1438.8613997509506,0.9965693458615764,0.008510476216665145
1438.8683444250823,1438.8683444250823,1.002660425082808,0.008513382377323917
1438.8752890991675,1438.8752890991675,0.9942492834854815,0.008508146224016138
1438.8822337731594,1438.8822337731594,1.0005796126168585,0.008522254194451618
1438.8891784470582,1438.8891784470582,1.0022163662488641,0.008527091259161408
1438.8961231209573,1438.8961231209573,0.9899980383674587,0.008510604001476737
1438.9030677946698,1438.9030677946698,0.9988840875249598,0.008514961426949524
1438.910012468336,1438.910012468336,1.0037156520879873,0.0085189772088602
1438.9169571420016,1438.9169571420016,1.0044571107362972,0.008505360857569321
1438.923901815575,1438.923901815575,0.9955482298001771,0.008490079309729916
1438.9308464890546,1438.9308464890546,0.9963033182430691,0.008488553442900193
1438.9377911623947,1438.9377911623947,0.9955091703966685,0.008471218407051388
1438.944735835828,1438.944735835828,0.994804425325626,0.008472999306611995
1438.9516805090748,1438.9516805090748,1.0071151149984288,0.008476365554552449
1438.9586251821822,1438.9586251821822,0.9992577002199262,0.008461500433147758
1438.965569855289,1438.965569855289,0.9973834522894292,0.008464214697508934
1438.9725145283032,1438.9725145283032,1.0082890071526684,0.008476998531145225
1438.9794592012706,1438.9794592012706,1.0020713481980228,0.008493870939667799
1438.9864038741448,1438.9864038741448,1.0040504579331224,0.008485988035006473
1438.9933485469264,1438.9933485469264,0.9944700090323442,0.008493559196952502
1439.000293219661,1439.000293219661,0.991031744538246,0.008491036990386325
1439.0072378922564,1439.0072378922564,0.9975447198114452,0.008498136402100218
1439.0141825648047,1439.0141825648047,1.0004441116446199,0.00851244024756198
1439.0211272372599,1439.0211272372599,1.0043565505590328,0.008506644905714943
1439.028071909715,1439.028071909715,1.0006650323498574,0.008508251692203884
1439.035016581984,1439.035016581984,0.9972655179114861,0.008508775547436224
1439.0419612542998,1439.0419612542998,1.0011398444210378,0.00851169540593725
1439.0489059263828,1439.0489059263828,1.0031499566046338,0.008507619840805461
1439.0558505984657,1439.0558505984657,0.9984579903581544,0.008497043435127638
1439.0627952705015,1439.0627952705015,0.9999145782291035,0.008496389001926242
1439.0697399423984,1439.0697399423984,1.002203847836898,0.008505831227136539
1439.0766846142012,1439.0766846142012,1.0001316314374822,0.00851051042252234
1439.0836292860047,1439.0836292860047,1.0005547987183838,0.008497421917751961
1439.0905739576688,1439.0905739576688,1.0003633568534607,0.008501862719653128
1439.0975186292858,1439.0975186292858,1.0005507452659075,0.008509865700146833
1439.104463300763,1439.104463300763,0.9953356883972686,0.008517056678194005
1439.1114079721942,1439.1114079721942,1.0016705686320404,0.00850768193844061
1439.1183526435316,1439.1183526435316,1.0044993532425674,0.00851382704102259
1439.1252973147766,1439.1252973147766,0.9933804907262932,0.008510543369295782
1439.1322419859741,1439.1322419859741,0.9974221931261275,0.008508049379840493
1439.1391866570793,1439.1391866570793,1.0043268565814913,0.008507756168120995
1439.146131328091,1439.146131328091,1.0009763547610169,0.008508819553437451
1439.1530759990096,1439.1530759990096,1.003206945259189,0.008517176842904834
1439.1600206698818,1439.1600206698818,0.9971754013591818,0.008502209719257822
1439.1669653406138,1439.1669653406138,0.9946857466024992,0.008503244025124325
1439.1739100112532,1439.1739100112532,0.9995598969475369,0.008510340955041489
1439.1808546818925,1439.1808546818925,1.0067044624319959,0.008509055705273195
1439.1877993523453,1439.1877993523453,0.9999122312341827,0.008506933551280857
1439.1947440228446,1439.1947440228446,0.9991944986176344,0.008503317338627357
1439.2016886931585,1439.2016886931585,0.9936284972217304,0.008514433234551325
1439.2086333633783,1439.2086333633783,0.9976424594396904,0.008514361801308634
1439.215578033552,1439.215578033552,1.0065265986238154,0.008522494274384684
1439.2225227036322,1439.2225227036322,1.0145012802616216,0.008529226340936332
1439.2294673736196,1439.2294673736196,0.9934556527918128,0.008516996413990025
1439.236412043514,1439.236412043514,0.9987870120566044,0.008529381915845525
1439.2433567132684,1439.2433567132684,0.9954192457115821,0.00852385855234362
1439.2503013830228,1439.2503013830228,0.9986175691319821,0.008519127512992896
1439.2572460527776,1439.2572460527776,0.9860438449155788,0.008518957948941742
1439.2641907223453,1439.2641907223453,0.9945712457577475,0.008513041088465054
1439.2711353918207,1439.2711353918207,0.998823646266809,0.00851968776569732
1439.2780800612027,1439.2780800612027,1.0102667481980685,0.008525157562506862
1439.2850247305378,1439.2850247305378,1.0041142190039565,0.008519250120026092
1439.291969399734,1439.291969399734,1.0068255503488375,0.008520408972803917
1439.2989140688826,1439.2989140688826,1.000122113390638,0.008509380227924215
1439.3058587379387,1439.3058587379387,1.0068514810493938,0.008500894514574909
1439.3128034069018,1439.3128034069018,0.9876728201649234,0.00849368778713647
1439.3197480757713,1439.3197480757713,0.9900039978336377,0.00848937590837932
1439.3266927445015,1439.3266927445015,0.9999656848668964,0.0084995568267906
1439.3336374133244,1439.3336374133244,1.005672341818086,0.008499167053677013
1439.3405820819148,1439.3405820819148,1.001261904654839,0.008511615660960144
1439.3475267503657,1439.3475267503657,1.0063727185984805,0.008516853525483035
1439.354471418816,1439.354471418816,0.9961203688697798,0.008505339933033793
1439.3614160871734,1439.3614160871734,0.9993332378133839,0.0085061522550431
1439.368360755438,1439.368360755438,0.9965685371985128,0.008508118360995073
1439.375305423609,1439.375305423609,1.0011480240398822,0.008503259603472747
1439.3822500916406,1439.3822500916406,1.0019816527612637,0.008507350016901326
1439.3891947596724,1439.3891947596724,1.0046781988583162,0.008510680638898354
1439.3961394276105,1439.3961394276105,1.002647594498323,0.008518229965727504
1439.4030840954097,1439.4030840954097,0.9957472123041097,0.008520131780393162
1439.410028763115,1439.410028763115,0.99519901922909,0.00852656969065532
1439.4169734308202,1439.4169734308202,0.9974816563599245,0.008524417961778951
1439.4239180982931,1439.4239180982931,1.0039523888695663,0.008521070385347343
1439.4308627659059,1439.4308627659059,0.9927566431537947,0.008514922675144424
1439.4378074331455,1439.4378074331455,1.0069893423444394,0.008514440611462488
1439.4447521004784,1439.4447521004784,1.0015559294968397,0.008515157345682128
1439.4516967676718,1439.4516967676718,0.9981122834389176,0.008512892738784889
1439.4586414347723,1439.4586414347723,0.9923077919028966,0.008506713054441898
1439.4655861017793,1439.4655861017793,1.0100329356202227,0.00851422404076048
1439.4725307687863,1439.4725307687863,0.9995400409928223,0.008500160906734172
1439.4794754356074,1439.4794754356074,0.9985672180950657,0.008515110160600208
1439.486420102335,1439.486420102335,1.0030571942495652,0.00851188038108857
1439.493364769016,1439.493364769016,1.0075406948489367,0.008522581870566568
1439.500309435604,1439.500309435604,0.9965897103459396,0.008532333688213857
1439.5072541020522,1439.5072541020522,0.9995741574242318,0.008541659103143784
1439.5141987685006,1439.5141987685006,0.9961480587811666,0.008529332575538787
1439.5211434347625,1439.5211434347625,0.9924462149183814,0.008537805364778293
1439.5280881010244,1439.5280881010244,1.0041503051664928,0.008547025999556524
1439.535032767147,1439.535032767147,1.0003343853116138,0.008536575104961922
1439.5419774331763,1439.5419774331763,0.9904007513064987,0.008519140054104679
1439.5489220991121,1439.5489220991121,1.0075308965487102,0.008524616240412716
1439.5558667650016,1439.5558667650016,0.9998390634085549,0.008534819350669149
1439.5628114307515,1439.5628114307515,1.0009055011298575,0.008520340419198861
1439.569756096455,1439.569756096455,1.011692683340889,0.008526531250760304
1439.5767007620648,1439.5767007620648,1.0005444711170959,0.008508658160972153
1439.5836454275352,1439.5836454275352,0.996374750042536,0.008512577139605643
1439.5905900930054,1439.5905900930054,1.0078565961339834,0.008513551552132069
1439.5975347582898,1439.5975347582898,1.0010972737866488,0.008520541619797529
1439.6044794235738,1439.6044794235738,0.9944378082566274,0.008514797430343859
1439.6114240887186,1439.6114240887186,0.9954064738538471,0.008517792857671496
1439.6183687538162,1439.6183687538162,0.997113336426079,0.00852546819691597
1439.6253134186816,1439.6253134186816,1.01167396860279,0.008528773902445656
1439.632258083593,1439.632258083593,0.9986344888021182,0.008541214431734749
1439.6392027483648,1439.6392027483648,1.0043850519966244,0.008549882337150604
1439.6461474130433,1439.6461474130433,0.9937066786698349,0.008536171859597586
1439.6530920776756,1439.6530920776756,1.0046764547883507,0.00854353712551623
1439.6600367422147,1439.6600367422147,1.0048619651218353,0.008551900368694543
1439.6669814066142,1439.6669814066142,1.0026256337540453,0.00853630067851088
1439.673926070967,1439.673926070967,0.9921394268744494,0.00853314670151029
1439.6808707351804,1439.6808707351804,0.9952749092237999,0.008539647082320996
1439.6878153993935,1439.6878153993935,1.0059254122690897,0.008535930746010934
1439.6947600633735,1439.6947600633735,1.0002062944908299,0.008537492934892196
1439.701704727307,1439.701704727307,0.997745654996584,0.00854694594156499
1439.7086493912411,1439.7086493912411,1.0026856260399875,0.00854659149860769
1439.7155940550815,1439.7155940550815,0.99997882966289,0.00853592325596186
1439.7225387187827,1439.7225387187827,1.001398477276032,0.008530583403242323
1439.729483382437,1439.729483382437,1.0029001051399322,0.00853217812909269
1439.736428045952,1439.736428045952,0.9960155733101879,0.008530577803676324
1439.7433727093262,1439.7433727093262,0.995510501940106,0.008511645812595553
1439.7503173727014,1439.7503173727014,0.994255242814685,0.008510601895913105
1439.7572620359833,1439.7572620359833,0.998400376391292,0.008509272611582932
1439.7642066991252,1439.7642066991252,1.0082417546216518,0.008523241360060094
1439.7711513622205,1439.7711513622205,1.0082823995595365,0.008520406167854464
1439.7780960252232,1439.7780960252232,1.0003946002516177,0.008513053678092162
1439.7850406881323,1439.7850406881323,0.9992110994359343,0.008514114940017206
