time,time,flux,flux_err
1468.2810675521553,1468.2810675521553,1.0005889794339677,0.000557311296230163
1468.2894008606324,1468.2894008606324,0.9999374077108931,0.0005572950018604715
1468.2970397265265,1468.2970397265265,0.9996489308668813,0.0005086427083550786
1468.3039841499935,1468.3039841499935,0.9991429555035879,0.0005085150611378915
1468.3109285732744,1468.3109285732744,1.0009461021682582,0.0005087638758717648
1468.3178729964616,1468.3178729964616,0.9997529248608824,0.0005085129066296254
1468.3248174194628,1468.3248174194628,1.0003992754274496,0.000508684938196926
1468.331761842371,1468.331761842371,1.0003842914234995,0.0005087781762506488
1468.3387062650927,1468.3387062650927,0.9995950385185456,0.000508720880226646
1468.3456506878144,1468.3456506878144,1.0000873649681379,0.0005087052318497418
1468.3525951103497,1468.3525951103497,0.9998180224309465,0.000508582311805451
1468.359539532699,1468.359539532699,0.9999298720006067,0.0005085345825298706
1468.3664839549556,1468.3664839549556,0.999547916985042,0.0005086709621007644
1468.3734283770257,1468.3734283770257,1.0005845311198809,0.0005088864758783965
1468.3823172372897,1468.3823172372897,0.9995269296391275,0.0005084406831224766
1468.3970394113921,1468.3970394113921,1.0000950418839143,0.0005086151313606327
1468.4039838329038,1468.4039838329038,0.9997032540756312,0.000508654330291097
1468.4109282543218,1468.4109282543218,1.0004510192285132,0.0005085173420917155
1468.417872675646,1468.417872675646,0.9995240435041983,0.0005086068010770494
1468.4248170967846,1468.4248170967846,1.0002831607837832,0.0005088279417437299
1468.4317615179236,1468.4317615179236,0.9994728157226019,0.0005087177505527186
1468.4387059387825,1468.4387059387825,1.0000018839040214,0.0005088756888564646
1468.4456503595486,1468.4456503595486,0.9995453149103538,0.0005086594037716791
1468.4525947802217,1468.4525947802217,0.9995422963382173,0.0005086428836323978
1468.4595392008014,1468.4595392008014,1.0012498125821585,0.00050881621717174
1468.466483621195,1468.466483621195,0.999705719794802,0.0005086124265833258
1468.4734280414955,1468.4734280414955,1.0001720371438982,0.0005088137642853682
1468.4803724616092,1468.4803724616092,1.0009856221893,0.0005090399506741266
1468.48731688163,1468.48731688163,1.0009187971159677,0.0005090539879446033
1468.4942613015583,1468.4942613015583,0.9998078969156318,0.0005088525799094974
1468.5012057212068,1468.5012057212068,0.9992757621042205,0.0005091407408321532
1468.5081501411346,1468.5081501411346,0.9993765499294561,0.0005088002434851821
1468.5150945605965,1468.5150945605965,1.0000214373937706,0.0005087607965673829
1468.5220389799658,1468.5220389799658,0.9993063642406801,0.0005085883800180744
1468.5289833990553,1468.5289833990553,1.000464798882912,0.0005087573993549329
1468.5359278182384,1468.5359278182384,1.0000174606923682,0.0005087668040862334
1468.542872237235,1468.542872237235,1.0002604190932805,0.0005087243688838117
1468.549816656231,1468.549816656231,1.0001979800141136,0.0005088197857793331
1468.5567610748553,1468.5567610748553,0.9999292058206086,0.0005085461780704929
1468.5637054934796,1468.5637054934796,1.0002901351242581,0.0005087489328179119
1468.5706499120101,1468.5706499120101,0.9993881513911906,0.000508499383931785
1468.5775943302617,1468.5775943302617,1.000445583197287,0.0005087636113475045
1468.5845387486063,1468.5845387486063,1.0004871057930045,0.0005086648248951465
1468.5914831667646,1468.5914831667646,0.9999108332848292,0.0005086183421145918
1468.5984275846436,1468.5984275846436,0.9998524849156751,0.0005086750688904181
1468.605372002616,1468.605372002616,1.0001771651229696,0.0005085019881915278
1468.6123164203084,1468.6123164203084,0.999318499200991,0.0005085803131133327
1468.6192608379076,1468.6192608379076,1.0002011355671327,0.0005086990979544716
1468.626205255321,1468.626205255321,0.9997987162900284,0.0005088022997681524
1468.6331496728278,1468.6331496728278,1.0001280244890896,0.0005089268657584135
1468.6400940899612,1468.6400940899612,0.9996757386177961,0.0005086285175741484
1468.6470385070952,1468.6470385070952,1.0002610606683955,0.0005087024728845452
1468.6539829241362,1468.6539829241362,1.00058221035271,0.0005089344158320949
1468.6609273408974,1468.6609273408974,1.0002307858145678,0.0005086930561819927
1468.6678717575658,1468.6678717575658,1.0004710496182159,0.0005086941621078347
1468.6748161741407,1468.6748161741407,0.9999125755586447,0.0005088690163677202
1468.6817605907158,1468.6817605907158,0.9995639836183141,0.000508523378363637
1468.6887050070113,1468.6887050070113,1.0001230078043015,0.0005089372743672773
1468.695649423214,1468.695649423214,0.9996434592362851,0.0005085013032613989
1468.7025938394167,1468.7025938394167,1.0006098218862352,0.0005086944543306786
1468.7095382553393,1468.7095382553393,0.9994181826967525,0.0005085125219826127
1468.7164826710766,1468.7164826710766,0.9999469401624465,0.0005086311439626198
1468.7234270868137,1468.7234270868137,1.0000864703439376,0.000508732214161881
1468.7303715023643,1468.7303715023643,0.9999989864094084,0.0005086597447257116
1468.737315917915,1468.737315917915,1.0004775559554624,0.0005089634313635916
1468.744260333186,1468.744260333186,0.999863135954762,0.0005086575746577927
1468.7512047483638,1468.7512047483638,1.0006350625655123,0.0005088894287066065
1468.7581491635424,1468.7581491635424,0.9997897057170467,0.0005087429719054548
1468.7650935783481,1468.7650935783481,0.9994930847005412,0.0005085602634382753
1468.7720379931538,1468.7720379931538,0.9996073784365169,0.0005087975838745165
1468.7789824079591,1468.7789824079591,0.9999132910451616,0.0005086538635316483
1468.7859268225784,1468.7859268225784,0.9999242643666794,0.0005085828021002727
1468.7928712370117,1468.7928712370117,1.0006635864469313,0.0005089007152019355
1468.7998156513513,1468.7998156513513,0.999507725946193,0.0005084641429538899
1468.806760065505,1468.806760065505,1.0002207101655456,0.0005086003443923248
1468.8137044796586,1468.8137044796586,1.000665720365649,0.0005088027402311865
1468.8206488935327,1468.8206488935327,1.0001474947011189,0.0005087840680905241
1468.8275933074071,1468.8275933074071,1.0000918085284103,0.0005085568761096805
1468.8345377211886,1468.8345377211886,0.9995252825756726,0.000508452057442299
1468.84148213469,1468.84148213469,1.0002913497285988,0.0005087831300747235
1468.8484265480986,1468.8484265480986,0.9997019698156613,0.0005087177931903763
1468.8553709615076,1468.8553709615076,0.9995650866908147,0.000508699535661835
1468.8623153746364,1468.8623153746364,0.9997903471475112,0.0005088367313227243
1468.869259787766,1468.869259787766,1.0003283214930847,0.0005091138191296578
1468.8762042007086,1468.8762042007086,0.9990635691983286,0.0005086004461059177
1468.8831486135582,1468.8831486135582,1.000278498899057,0.0005088346111617787
1468.890093026222,1468.890093026222,1.0007899580713002,0.0005090976578106838
1468.8970374386993,1468.8970374386993,1.000203196851459,0.0005086550607445223
1468.903981851177,1468.903981851177,0.999068590331688,0.0005085757610721584
1468.910926263654,1468.910926263654,1.0007525451052746,0.0005088444380770953
1468.9178706757584,1468.9178706757584,1.0006068207597418,0.0005089225005211587
1468.9248150878634,1468.9248150878634,0.9998858580208875,0.0005085720906204208
1468.931759499875,1468.931759499875,0.9995185311157936,0.0005085371150280543
1468.9387039117005,1468.9387039117005,0.9998698980071996,0.0005085764763227375
1468.9456483234324,1468.9456483234324,1.0002780323991547,0.0005087093121291661
1468.9525927349782,1468.9525927349782,0.9997147667509635,0.0005086240542526446
1468.95981492293,1468.95981492293,1.000060538552045,0.0005086876834939693
1468.9678704400071,1468.9678704400071,0.9997035619798122,0.0005085324706788457
1468.9748148511803,1468.9748148511803,1.0000556402073806,0.0005087590856182069
1468.9817592622608,1468.9817592622608,1.0003142345856761,0.0005087463832349288
1468.9887036731548,1468.9887036731548,0.9996192872240721,0.0005087026843632435
1468.9956480840488,1468.9956480840488,0.9999160970715462,0.0005085399669783129
1469.0025924946635,1469.0025924946635,1.0001347301080485,0.0005086998231760745
1469.0095369052779,1469.0095369052779,1.0006261761161648,0.0005087771266663059
1469.016481315613,1469.016481315613,1.0004312186072473,0.0005087237576762985
1469.0234257261347,1469.0234257261347,0.9991581598306107,0.0005086308893196715
1469.0303701363769,1469.0303701363769,0.9999268580297269,0.0005086137766884765
1469.0373145462468,1469.0373145462468,0.9995804505147943,0.0005087148879542073
1469.0442589562094,1469.0442589562094,1.0012135468374346,0.0005091440159014488
1469.0512033660784,1469.0512033660784,0.9996348141069553,0.0005085789896458326
1469.058147775762,1469.058147775762,0.9993460903216759,0.0005086719360260566
1469.0650921853521,1469.0650921853521,0.9996199163135703,0.0005087604953678043
1469.0720365947561,1469.0720365947561,1.0006880183215927,0.0005090350276839393
1469.0789810041601,1469.0789810041601,0.9997232217291911,0.0005086840291645341
1469.0859254132845,1469.0859254132845,0.9993307432987567,0.000508586718821064
1469.0928698225023,1469.0928698225023,1.0005614040000979,0.000508759294732879
1469.0998142314406,1469.0998142314406,1.0003809637104146,0.0005088462876765701
1469.1067586401928,1469.1067586401928,0.9998383981899688,0.0005085617967844786
1469.113703048945,1469.113703048945,1.0005717504407503,0.0005086616493893882
1469.1206474574171,1469.1206474574171,0.9998535558454555,0.0005084984935778091
1469.1275918659828,1469.1275918659828,1.0000487604079666,0.0005086603670418795
1469.1345362743623,1469.1345362743623,0.9992290333687626,0.0005084484695779263
1469.1414806824623,1469.1414806824623,1.0003622209399121,0.0005086446952825899
1469.148425090749,1469.148425090749,1.0001247670232298,0.0005088145999854452
1469.1553694985694,1469.1553694985694,1.0000970359809813,0.0005088084990972704
1469.1623139063897,1469.1623139063897,1.0000718234154093,0.0005087343070129028
1469.1692583142108,1469.1692583142108,1.0001693923230983,0.0005087062828831517
1469.1762027218451,1469.1762027218451,0.9994742731495532,0.000508558294134493
1469.1831471292935,1469.1831471292935,1.0004998673658774,0.000508787783970133
1469.1900915366484,1469.1900915366484,0.9994366074013807,0.0005084358845275434
1469.19703594391,1469.19703594391,0.9995798635817945,0.0005084262250484076
1469.2039803509856,1469.2039803509856,1.0003431741579416,0.0005086374492667411
1469.2109247579683,1469.2109247579683,1.0001769294461371,0.0005086405964278393
1469.2178691648573,1469.2178691648573,1.0000435925151827,0.0005085129981940354
1469.2248135715606,1469.2248135715606,0.9999126796820971,0.0005086017098987588
1469.2317579781707,1469.2317579781707,1.0008060859978762,0.0005089347602172363
1469.2387023847807,1469.2387023847807,1.0001034679069642,0.0005085702350767689
1469.2456467911113,1469.2456467911113,0.9992667845944274,0.0005086321309047097
1469.2525911973487,1469.2525911973487,0.99993686175378,0.0005085327681005682
1469.2595356034928,1469.2595356034928,0.9998456432570524,0.0005086720489799613
1469.2664800095436,1469.2664800095436,1.0003926498231326,0.0005085226774845282
1469.2734244154085,1469.2734244154085,0.9998020262330876,0.000508556983004851
1469.280368821181,1469.280368821181,1.0001286083377925,0.0005087889706067703
1469.287313226673,1469.287313226673,1.000236342261916,0.0005086183102181527
1469.2942576321657,1469.2942576321657,0.999991163007007,0.0005086532151352794
1469.3012020376577,1469.3012020376577,1.0001388453193893,0.000508630914152569
1469.30814644315,1469.30814644315,0.9992745057877193,0.0005085298321986953
1469.315090848177,1469.315090848177,0.9996825632671605,0.0005083886346097064
1469.3220352532037,1469.3220352532037,0.9993839113965933,0.0005084749636298531
1469.328979658137,1469.328979658137,1.0008655546855403,0.0005086702208377514
1469.3359240629775,1469.3359240629775,1.0002489973995548,0.0005087056233129549
1469.3428684676314,1469.3428684676314,1.000408994294904,0.000508672956517215
1469.3498128721926,1469.3498128721926,1.0005312114750098,0.0005085520548866302
1469.3567572765676,1469.3567572765676,0.9992428170531202,0.0005083246853826591
1469.3637016809423,1469.3637016809423,1.0001949004888728,0.0005086763048384971
1469.3706460850378,1469.3706460850378,0.999834042107769,0.0005084710887860118
1469.3775904891331,1469.3775904891331,0.9998132372030056,0.0005087234803430168
1469.3845348930422,1469.3845348930422,0.9997281156675142,0.0005084573294308846
1469.3914792968583,1469.3914792968583,1.0002401033173092,0.0005087297580668628
1469.3984237005811,1469.3984237005811,0.9995683443728725,0.0005085233722200537
1469.4053681042108,1469.4053681042108,1.000527168496737,0.0005087297289981171
1469.4123125076542,1469.4123125076542,0.9997007177519354,0.0005084415147627757
1469.4192569110044,1469.4192569110044,1.0000502267122129,0.0005085938073569382
1469.4262013141686,1469.4262013141686,1.0002646559050337,0.0005087608391644132
1469.4331457173328,1469.4331457173328,1.0007272190952734,0.0005087693222313617
1469.4400901202173,1469.4400901202173,0.9997205976214614,0.0005084563934134795
1469.447034523102,1469.447034523102,0.9995747736533944,0.0005084822970627654
1469.4539789258001,1469.4539789258001,0.9998964336296623,0.0005086391338503002
1469.4609233284054,1469.4609233284054,0.9995901081615907,0.000508514692727792
1469.4678677308248,1469.4678677308248,0.9998977776865248,0.0005086165178999392
1469.4748121332436,1469.4748121332436,1.000719001742227,0.0005086170565418875
1469.4817565354763,1469.4817565354763,0.9999660245229721,0.000508816762555742
1469.488700937616,1469.488700937616,0.9999462176392022,0.0005088124968710377
1469.4956453396624,1469.4956453396624,1.0002396764488561,0.0005087473364492813
1469.502589741523,1469.502589741523,1.000056839715185,0.0005086239056841284
1469.50953414329,1469.50953414329,0.9994954706690351,0.0005086031012768207
1469.5164785448706,1469.5164785448706,0.9996936004752468,0.0005084367797848723
1469.523422946451,1469.523422946451,1.0001410081791386,0.0005087061137083492
1469.5303673477524,1469.5303673477524,1.0000786636091428,0.000508683094994878
1469.5373117490542,1469.5373117490542,1.0003924596665807,0.0005087722754656043
1469.5442561502628,1469.5442561502628,1.0001618661369105,0.000508706942413436
1469.5512005510982,1469.5512005510982,1.0008679339970068,0.0005088930981647757
1469.5581449519339,1469.5581449519339,0.9990790065610998,0.0005086517468374696
1469.5650893527695,1469.5650893527695,1.0002487420422157,0.0005088671857671473
1469.5720337536054,1469.5720337536054,0.9991405136437257,0.0005084962804300933
1469.5789781541619,1469.5789781541619,0.9997250505115491,0.0005084380875301197
1469.585922554625,1469.585922554625,0.9992790207929619,0.0005085936538870518
1469.592866954902,1469.592866954902,1.000366967285401,0.0005086543988949276
1469.5998113550856,1469.5998113550856,0.9998414161431912,0.0005084915049593455
1469.6067557551764,1469.6067557551764,1.0010885371266638,0.0005086382883481475
1469.613700155081,1469.613700155081,1.0002710379851012,0.0005086892024008549
1469.6206445548924,1469.6206445548924,1.0008528470926301,0.0005086111617660141
1469.6275889546107,1469.6275889546107,0.9998382954571348,0.0005083810981265911
1469.6345333542354,1469.6345333542354,1.000316086700897,0.0005084448576673709
1469.6414777536743,1469.6414777536743,0.999084023119791,0.0005083657237442616
1469.64842215302,1469.64842215302,0.9997892693334556,0.0005084647479385106
1469.6553665522724,1469.6553665522724,0.99919105443511,0.0005083662498918514
1469.6623109513387,1469.6623109513387,1.0006116038172173,0.000508720442781342
1469.669255350312,1469.669255350312,0.9995779583822507,0.0005085872772840174
1469.6761997491917,1469.6761997491917,1.0000091716234483,0.0005085762052670301
1469.6831441478855,1469.6831441478855,1.0001597710646462,0.0005087881511905915
1469.690088546393,1469.690088546393,1.0001261523123084,0.0005088704901104637
1469.6970329449007,1469.6970329449007,1.0006435707701438,0.0005089725309467603
1469.7039773434078,1469.7039773434078,1.0000853490936352,0.0005086107891978337
1469.7109217417287,1469.7109217417287,0.9999570964111868,0.0005085120463157231
1469.7178661398636,1469.7178661398636,0.9995488244740931,0.0005084767928907926
1469.7248105379056,1469.7248105379056,0.9998063506333634,0.000508671544712658
1469.7317549357613,1469.7317549357613,1.000264759222651,0.0005086296853102936
1469.738699333617,1469.738699333617,0.9998780505590215,0.0005086174000349332
1469.7456437311928,1469.7456437311928,0.9998407205576431,0.0005086059400671026
1469.7525881287688,1469.7525881287688,1.0001311518518823,0.0005086705908269359
1469.7595325262523,1469.7595325262523,0.9999308495600573,0.0005086100173732043
1469.7664769235487,1469.7664769235487,1.0003991598772168,0.0005089072100990581
1469.773421320659,1469.773421320659,0.9998813504988278,0.0005086902103811736
1469.7803657176764,1469.7803657176764,0.9995358917433045,0.0005086719528180298
1469.7873101146006,1469.7873101146006,1.001526252042452,0.0005091416403934628
1469.7942545115247,1469.7942545115247,0.9995574135907743,0.0005089320846179157
1469.80119890817,1469.80119890817,0.9993890635063906,0.0005086154059656565
1469.8081433047216,1469.8081433047216,0.9992843693971614,0.0005087586038426018
1469.8150877013663,1469.8150877013663,1.0001172641927605,0.0005086913249369642
1469.8220320975454,1469.8220320975454,0.9990275472021407,0.0005084177004348174
1469.8289764937242,1469.8289764937242,1.0001591985227007,0.0005086030796232409
1469.8359208899035,1469.8359208899035,1.000324239899171,0.0005086452443763734
1469.8428652859898,1469.8428652859898,1.000476005455098,0.0005088937020767695
1469.8498096817964,1469.8498096817964,1.000722037569656,0.0005085922387556556
1469.85675407751,1469.85675407751,1.0000796332941748,0.0005087775177918459
1469.8636984731297,1469.8636984731297,1.0009435773642061,0.000508728399497304
1469.8706428686573,1469.8706428686573,0.9997851257567897,0.0005086058948935633
1469.8775872639983,1469.8775872639983,0.9995749002187942,0.0005085599287152719
1469.8845316593392,1469.8845316593392,0.9996595520571177,0.000508565183826343
1469.8914760545872,1469.8914760545872,0.9996844524845028,0.0005085925253627003
1469.8984204495555,1469.8984204495555,0.9996837663533735,0.000508943233664744
1469.9053648444306,1469.9053648444306,1.0002631549967584,0.0005088485823575193
1469.912309239213,1469.912309239213,0.9993583347142326,0.0005088483430387694
1469.919253633995,1469.919253633995,0.999773836758948,0.0005088156591306313
1469.926198028405,1469.926198028405,0.9997708955592624,0.00050867148402843
1469.9331424229076,1469.9331424229076,1.00082543858433,0.0005087716936591757
1469.940086817224,1469.940086817224,1.0004833290284114,0.0005086544413674986
1469.9470312114474,1469.9470312114474,1.0001668596571243,0.0005088998211892375
1469.9539756053912,1469.9539756053912,1.0001387825403159,0.0005086112841317864
1469.9609199994284,1469.9609199994284,0.9993585626777733,0.0005086121378783841
1469.9678643931863,1469.9678643931863,1.000634897661962,0.00050891342615333
1469.9748087869439,1469.9748087869439,0.9994631017017437,0.0005086682760330457
1469.9817531807016,1469.9817531807016,1.000331511950557,0.0005088122747276669
1469.9886975740867,1469.9886975740867,0.9994571255490492,0.0005086258694008438
1469.9956419674718,1469.9956419674718,1.000482463725063,0.000508906758619441
1470.0025863607643,1470.0025863607643,0.9999219718206405,0.0005086155155997896
1470.00953075387,1470.00953075387,1.0000618225999365,0.0005085486746574986
1470.0164751468826,1470.0164751468826,1.0001113163437534,0.0005088302669746676
1470.0234195398016,1470.0234195398016,0.9996707269244134,0.0005085781646898287
1470.030363932535,1470.030363932535,1.0001104523485922,0.0005087027872153732
1470.0373083251754,1470.0373083251754,1.0000942067383627,0.0005087171306986473
1470.0442527177224,1470.0442527177224,0.999710168809167,0.000508720890632919
1470.0511971101762,1470.0511971101762,0.9997939674201234,0.000508975123048517
1470.0581415024442,1470.0581415024442,0.9995443502839791,0.0005087623075543549
