time,time,flux,flux_err
1410.9107524579802,1410.9107524579802,0.9976524435319106,0.0025474506280524912
1410.9190861077848,1410.9190861077848,0.9973621918607258,0.002547661379260343
1410.9274197575899,1410.9274197575899,0.9979624992818792,0.0025478618408054424
1410.9350589362039,1410.9350589362039,0.9990904515912785,0.0023259910021874762
1410.9420036440958,1410.9420036440958,0.9956264149062743,0.0023254678886264085
1410.9489483517073,1410.9489483517073,1.0024689798544346,0.002327069142128874
1410.955893059226,1410.955893059226,1.0048173272962413,0.0023278805103062812
1410.963393343119,1410.963393343119,1.000961300689075,0.002324267687259671
1410.9745048746083,1410.9745048746083,1.0029347736520038,0.002317193955271056
1410.9878387118742,1410.9878387118742,0.9966144583103581,0.0023016470513307933
1410.9947834186482,1410.9947834186482,1.0013786768841169,0.002301967387450911
1411.0067283138142,1411.0067283138142,1.002394964315981,0.0023012607194216527
1411.0142285965896,1411.0142285965896,0.9989024567854475,0.0022990269735244312
1411.0211733027108,1411.0211733027108,0.9985308717744472,0.002298393258480602
1411.028118008833,1411.028118008833,1.0013682812300018,0.002299277075544917
1411.035062714675,1411.035062714675,0.9986151599166636,0.0022978784484567545
1411.0420074202377,1411.0420074202377,1.0007891889958134,0.0022962782499139816
1411.0492299140346,1411.0492299140346,0.9998798139126148,0.002296341885689004
1411.0572857722523,1411.0572857722523,1.001587115811437,0.0022987250209084618
1411.0642304775365,1411.0642304775365,0.9978055669577843,0.002296658486139355
1411.0711751825397,1411.0711751825397,1.0019628996167964,0.0022991435644951377
1411.0781198873578,1411.0781198873578,0.9994990239617352,0.002300693616327403
1411.0850645921757,1411.0850645921757,1.0043984942875068,0.0022997206201684234
1411.0920092967135,1411.0920092967135,0.9962736986848476,0.00229748411007289
1411.0989540011594,1411.0989540011594,0.999443867548179,0.0022979806686285677
1411.1058987054182,1411.1058987054182,0.9994458695074717,0.0022977825632334928
1411.112843409584,1411.112843409584,0.9987304026059147,0.0022993695291483774
1411.119788113564,1411.119788113564,1.000209385853111,0.002301049393970024
1411.1267328173565,1411.1267328173565,0.9992086467051701,0.0022979691146939574
1411.1336775208713,1411.1336775208713,1.000843697661342,0.00229927534482991
1411.1406222243845,1411.1406222243845,1.0004905869290273,0.002295321101375145
1411.1475669278984,1411.1475669278984,1.0025337692802085,0.002296207853243209
1411.1545116310404,1411.1545116310404,0.9990821936184394,0.002294625819693012
1411.1614563340881,1411.1614563340881,0.9964407158310802,0.002292881628077869
1411.1684010368576,1411.1684010368576,0.9995609545595748,0.002292727617191059
1411.1753457396262,1411.1753457396262,1.0048190849631737,0.0022937614853134
1411.182290442209,1411.182290442209,1.0004865856693343,0.002291345217530551
1411.1892351446984,1411.1892351446984,1.0035839252989165,0.002291037697222673
1411.1961798468149,1411.1961798468149,1.0000460875251869,0.002290946862793808
1411.2031245488392,1411.2031245488392,0.9968173800547531,0.0022910262370759767
1411.2100692508627,1411.2100692508627,0.9962837465791573,0.0022901045269964216
1411.2170139525142,1411.2170139525142,1.0028533351405304,0.002290471649887481
1411.2239586540722,1411.2239586540722,1.0046399648509947,0.002294196768779572
1411.23090335563,1411.23090335563,1.0016957635781654,0.0022909451663168526
1411.2378480568163,1411.2378480568163,1.0017406097263648,0.0022906675459184664
1411.2447927580015,1411.2447927580015,1.0008311316811824,0.0022911035117441593
1411.2517374588147,1411.2517374588147,1.0047978048355453,0.0022928806696347263
1411.2586821596278,1411.2586821596278,1.0015400097119302,0.0022946610258730315
1411.2656268603478,1411.2656268603478,1.0023002916906207,0.002293868367100883
1411.2725715606957,1411.2725715606957,0.9992622434547471,0.002294210244349053
1411.2795162610425,1411.2795162610425,0.99682151671164,0.0022945512357849546
1411.286460961297,1411.286460961297,1.000549177254078,0.0022978880737384547
1411.2934056611787,1411.2934056611787,1.000470276069631,0.0023006953789865567
1411.300350360967,1411.300350360967,1.0018373553827928,0.0022997219572292492
1411.30729506057,1411.30729506057,0.9995297012830722,0.0022987023647578907
1411.3142397601719,1411.3142397601719,1.0004692589197572,0.002299313742230735
1411.3211844594023,1411.3211844594023,1.00332608729408,0.0023006609455588937
1411.3281291587252,1411.3281291587252,0.9996537290099343,0.0022993740063144705
1411.3350738575818,1411.3350738575818,0.9993165601586785,0.0023015908062110424
1411.3420185564403,1411.3420185564403,0.9956881658781788,0.0022996061915836804
1411.3489632551104,1411.3489632551104,0.9999292489344669,0.0022980883142411203
1411.3559079535958,1411.3559079535958,1.0008315768323957,0.0023002229028729238
1411.3628526519872,1411.3628526519872,1.0004918005556975,0.002299251495477835
1411.3697973501924,1411.3697973501924,0.999319754554777,0.002299276290557403
1411.3767420482122,1411.3767420482122,1.0017372748123008,0.0022976587520548734
1411.3836867459513,1411.3836867459513,0.9977656438169948,0.002296042963910501
1411.3906314436913,1411.3906314436913,0.999261725719452,0.0022943871394239764
1411.397576141338,1411.397576141338,1.0019758733223385,0.0022942428827152856
1411.404520838705,1411.404520838705,1.0021207367575566,0.0022923388424412852
1411.4114655358862,1411.4114655358862,1.0025824548004678,0.0022920989736794385
1411.4184102329734,1411.4184102329734,0.9991837596993755,0.0022902805760881603
1411.4253549296893,1411.4253549296893,0.99993704233309,0.002289828409872855
1411.4322996266837,1411.4322996266837,1.001226876338402,0.0022899423196423518
1411.4392443232125,1411.4392443232125,0.9967397457430801,0.002289558412341082
1411.4461890194625,1411.4461890194625,1.007515744732719,0.0022904132170692283
1411.4531337158046,1411.4531337158046,1.00114494538199,0.002289570976920096
1411.4600784117758,1411.4600784117758,1.0019454090597237,0.0022878485543477343
1411.4670231077453,1411.4670231077453,0.9994635805187805,0.0022888040858174575
1411.4739678035296,1411.4739678035296,0.9950621463854384,0.0022865276694993037
1411.4809124990343,1411.4809124990343,1.002690452392123,0.002290612020611344
1411.4878571945385,1411.4878571945385,1.0004693324515725,0.002285539052195264
1411.4948018897644,1411.4948018897644,1.0008425437977273,0.002287806761784088
1411.5017465848027,1411.5017465848027,0.9988398927307299,0.0022895246238106718
1411.5086912798417,1411.5086912798417,1.0022245566849477,0.002294242630819521
1411.515635974601,1411.515635974601,1.0065324275432306,0.0022940320886967944
1411.522580669174,1411.522580669174,1.0018549174546592,0.002293625172036213
1411.5295253636548,1411.5295253636548,0.9997183315227962,0.002292412236020774
1411.536470057855,1411.536470057855,0.9984345343667002,0.0022938098610023553
1411.5434147520562,1411.5434147520562,0.9973449270342523,0.002293626342755877
1411.5503594460706,1411.5503594460706,0.9993351359967291,0.0022982533293167584
1411.5573041398984,1411.5573041398984,0.9993500146647236,0.0022985358786337283
1411.5642488335411,1411.5642488335411,0.9996932086586554,0.0023012240919710893
1411.5711935269958,1411.5711935269958,0.9989493083602825,0.002303552129983579
1411.578138220359,1411.578138220359,1.0038904416679006,0.0023046675395701284
1411.5850829135347,1411.5850829135347,0.9995198754081013,0.0023074703667226052
1411.5920276064317,1411.5920276064317,1.005326643668705,0.002309846364213834
1411.5989722994223,1411.5989722994223,0.9969905064643647,0.002307414785326833
1411.6059169921323,1411.6059169921323,0.9984066338632227,0.002307627784370354
1411.612861684564,1411.612861684564,0.9981959167343083,0.002311546206406016
1411.6198063769948,1411.6198063769948,1.0013918890781834,0.002309682432222391
1411.6267510691466,1411.6267510691466,0.9965403524816623,0.00231125439462018
1411.6336957612987,1411.6336957612987,1.000323995706327,0.0023132665516112424
1411.6406404531706,1411.6406404531706,1.001334506337944,0.0023141774368432505
1411.6475851448572,1411.6475851448572,0.998168151822391,0.002313157948145249
1411.65452983645,1411.65452983645,1.004014384781642,0.0023151817919896526
1411.6614745277639,1411.6614745277639,1.0002968048626844,0.0023119593964541067
1411.6684192190774,1411.6684192190774,1.0006769776736113,0.0023124225868974627
1411.6753639102046,1411.6753639102046,1.0007949835828673,0.00231244110659823
1411.682308601146,1411.682308601146,0.9983212906025086,0.0023123549266523703
1411.6892532919933,1411.6892532919933,0.9938342411804099,0.002310964726880189
1411.6961979825628,1411.6961979825628,1.001377672279475,0.0023132020755550005
1411.7031426730375,1411.7031426730375,1.0037675837051971,0.0023123040581046117
1411.710087363327,1411.710087363327,0.9977840169733984,0.00231032632944294
1411.71703205343,1411.71703205343,1.0026129966093247,0.002312236769547324
1411.7239767434392,1411.7239767434392,1.001872177025462,0.00231344646396865
1411.7309214332636,1411.7309214332636,0.9955847122522957,0.0023111573947697944
1411.7378661230862,1411.7378661230862,1.0006837776711333,0.002310459086373354
1411.744810812631,1411.744810812631,1.0023724028860728,0.002312550807370852
1411.7517555017089,1411.7517555017089,1.0024465551449555,0.0023116217941267316
1411.758700191067,1411.758700191067,0.9989128750007719,0.0023111494174929558
1411.7656448800526,1411.7656448800526,0.9981916954576796,0.002311825931934092
1411.7725895689443,1411.7725895689443,0.9967190340188055,0.002312711168731229
1411.7795342577438,1411.7795342577438,0.9995254210938249,0.0023121179142901486
1411.7864789462633,1411.7864789462633,1.0028344157052662,0.002315911239581002
1411.7934236346898,1411.7934236346898,1.0022729345002557,0.0023171753614896523
1411.8003683230231,1411.8003683230231,0.99679535804162,0.002318076378351044
1411.8073130110768,1411.8073130110768,1.0019515751356463,0.002317983926199258
1411.814257699038,1411.814257699038,1.0021364178955603,0.002318756528286603
1411.8212023868125,1411.8212023868125,1.0004635194874374,0.002319539360000157
1411.8281470745874,1411.8281470745874,0.9993991488238908,0.0023202352232959966
1411.8350917619894,1411.8350917619894,0.9959027309790957,0.0023202305820293556
1411.8420364494846,1411.8420364494846,0.9999481907331201,0.0023218307216834187
1411.8489811367008,1411.8489811367008,0.9992737138424902,0.002321491367179213
1411.8559258234502,1411.8559258234502,1.0015188800699137,0.0023247064819894967
1411.8628705104804,1411.8628705104804,0.9985569982598286,0.0023227794949545596
1411.8698151972299,1411.8698151972299,0.9986156084119859,0.0023216004306682437
1411.8767598837007,1411.8767598837007,1.0019652960425058,0.002324127953446458
1411.8837045701716,1411.8837045701716,1.0021498673715243,0.002322992393179139
1411.8906492563628,1411.8906492563628,1.0012433963849596,0.002321919598052733
1411.897593942555,1411.897593942555,1.0018682179379261,0.0023210549995332204
1411.904538628466,1411.904538628466,0.9995098285572184,0.0023224537345963585
1411.911483314379,1411.911483314379,0.9967371534184292,0.0023225913553574892
1411.9184280000109,1411.9184280000109,1.0009649548738122,0.0023263370683838866
1411.9253726854572,1411.9253726854572,0.998589446358982,0.0023255321544389793
1411.9323173708106,1411.9323173708106,0.9972905883582321,0.002324942480067259
1411.9392620560702,1411.9392620560702,1.0013691055027818,0.0023256151907464573
1411.9462067409581,1411.9462067409581,1.0015960367286432,0.0023249049012474283
1411.9531514258454,1411.9531514258454,1.0008514394300894,0.0023255122786555596
1411.960096110733,1411.960096110733,0.99887270613853,0.0023259113690996015
1411.967040795341,1411.967040795341,1.0001541413708233,0.0023254672592885267
1411.9739854797629,1411.9739854797629,1.00083628954243,0.0023273770472853673
1411.9809301640914,1411.9809301640914,1.002176256792263,0.002326660719684151
1411.987874848234,1411.987874848234,0.9992260223714855,0.0023242372502236272
1411.9948195321906,1411.9948195321906,0.9986155670904122,0.002321754256810515
1412.0017642159598,1412.0017642159598,0.9991575728706845,0.0023232106941269634
1412.0087088997302,1412.0087088997302,0.9989274907694774,0.00232220712130689
1412.015653583314,1412.015653583314,0.9992802079214366,0.002320005891797937
1412.0225982666177,1412.0225982666177,0.9971494477917913,0.002317557150939024
1412.0295429499226,1412.0295429499226,0.9985519905964846,0.0023185039297351053
1412.0364876330398,1412.0364876330398,1.0045179673725109,0.0023178181890416453
1412.0434323158793,1412.0434323158793,1.0053040173200742,0.002317834639413676
1412.0503769989036,1412.0503769989036,1.002087727630203,0.0023151495183548303
1412.0573216814628,1412.0573216814628,0.9976121515929124,0.002315177710212322
1412.0642663640224,1412.0642663640224,0.9965861317796512,0.0023151903406677605
1412.0712110462086,1412.0712110462086,0.998437984137855,0.002316607819277546
1412.078155728489,1412.078155728489,1.002916943818042,0.0023161459195838786
1412.0851004104888,1412.0851004104888,1.0010241472754609,0.0023185611178499887
1412.0920450923968,1412.0920450923968,0.9999333799628388,0.0023189733240471556
1412.0989897742104,1412.0989897742104,0.9970581838926573,0.0023200534562721974
1412.1059344557452,1412.1059344557452,1.0006297600165523,0.0023218905774597238
1412.1128791373728,1412.1128791373728,0.99909577984629,0.002321024798428921
1412.1198238185352,1412.1198238185352,1.0010663525116088,0.002321078391719909
1412.1267684997908,1412.1267684997908,0.998584075498821,0.002320944216082271
1412.1337131807663,1412.1337131807663,0.9985867898324402,0.00232309260611566
1412.140657861743,1412.140657861743,1.0046374567896952,0.0023258212122502747
1412.1476025424392,1412.1476025424392,1.0000047517341717,0.00232714909072445
1412.1545472230428,1412.1545472230428,1.0002398832913861,0.002325768827236349
1412.161491903553,1412.161491903553,0.9998424219994396,0.0023269669503908795
1412.1684365837832,1412.1684365837832,1.0007019412081841,0.0023259924801424204
1412.175381264015,1412.175381264015,1.0002650065816123,0.0023275334319185063
1412.182325943966,1412.182325943966,0.9967531923352754,0.0023269260997368247
1412.1892706238248,1412.1892706238248,0.9975260004842171,0.0023279916674009615
1412.1962153035897,1412.1962153035897,1.0029409601795134,0.0023279957644078263
1412.2031599830757,1412.2031599830757,0.9989786361529243,0.0023273137865665377
1412.210104662562,1412.210104662562,1.00075237712818,0.0023253442148917407
1412.2170493417675,1412.2170493417675,1.0021520209741202,0.002323434083805005
1412.223994021068,1412.223994021068,0.9964829105368663,0.0023195663542863974
1412.2309386999943,1412.2309386999943,0.9969197472420305,0.0023189844010922476
1412.2378833788289,1412.2378833788289,1.0012520347025808,0.0023171475890805832
1412.2448280576623,1412.2448280576623,1.0016299991500577,0.0023131931939104206
1412.251772736124,1412.251772736124,1.0011318289674755,0.002313093995147536
1412.260384137375,1412.260384137375,1.000473447560969,0.0023105437299119893
1412.2695511126726,1412.2695511126726,1.0002984084640656,0.0023105766577825905
1412.279829235968,1412.279829235968,0.9992870191563608,0.0023112417081808385
1412.290107359264,1412.290107359264,0.9998126782688896,0.002308556981512962
1412.297607611119,1412.297607611119,1.0024510387346994,0.002309625772076277
1412.3045522886498,1412.3045522886498,1.0014874360811743,0.0023061966141423493
1412.3114969659928,1412.3114969659928,0.9972513581324105,0.0023079470859042883
1412.3184416432441,1412.3184416432441,0.9994600873079678,0.0023076182735602027
1412.3253863202149,1412.3253863202149,0.998208817720012,0.0023095630190175668
1412.3323309971863,1412.3323309971863,1.0011367629585919,0.0023094548400354226
1412.3392756740645,1412.3392756740645,0.999507066895649,0.0023102759871769115
1412.34622035057,1412.34622035057,0.9994066559622284,0.0023128607849581626
1412.3531650271693,1412.3531650271693,1.0041516712545664,0.0023176526217563976
1412.360109703488,1412.360109703488,1.0009551068884963,0.00231907926648277
1412.3670543796218,1412.3670543796218,1.0005457112295073,0.002318918011912772
1412.3739990557544,1412.3739990557544,0.9981272497677207,0.002317602020816676
1412.3809437317946,1412.3809437317946,0.9986078258440131,0.0023199725794804536
1412.3878884074618,1412.3878884074618,1.002840743580102,0.0023197276776324464
1412.3948330834087,1412.3948330834087,0.9964306010853994,0.002320633281814739
1412.4017777587035,1412.4017777587035,0.9975401541386912,0.002322294860206086
1412.4087224340915,1412.4087224340915,1.0004064992213266,0.0023231272876735633
1412.4156671093867,1412.4156671093867,1.000817996833426,0.0023259987060338123
1412.422611784495,1412.422611784495,0.9997942004072055,0.0023218130409228773
1412.4295564595109,1412.4295564595109,0.9998003442466039,0.00231969942079666
1412.43650113434,1412.43650113434,1.0010237714555932,0.0023194103639621586
1412.4434458089831,1412.4434458089831,1.000548478318576,0.0023176767590135506
1412.4503904834396,1412.4503904834396,1.0006079174552942,0.0023170819824330675
1412.4573351578958,1412.4573351578958,0.9992162342193665,0.002313907546092098
1412.46427983226,1412.46427983226,0.9977333880499449,0.002312918628746033
1412.4712245063438,1412.4712245063438,1.0009516075441405,0.0023137647539097058
1412.4781691803353,1412.4781691803353,1.001568596313255,0.00231496552366248
1412.485113854326,1412.485113854326,1.0005023397537427,0.002315447125333884
1412.4920585279447,1412.4920585279447,1.0005818762569727,0.0023137140517730708
1412.4990032016567,1412.4990032016567,1.0029788371451205,0.0023145972613362554
1412.5059478749022,1412.5059478749022,0.9989105165386162,0.0023166238579302983
1412.512892548521,1412.512892548521,0.9989828662571938,0.0023165782717449045
1412.519837221394,1412.519837221394,1.000594804806599,0.0023167871101841273
1412.5267818946406,1412.5267818946406,0.9971755915278985,0.002318280429978527
1412.5337265675137,1412.5337265675137,0.9971311804538011,0.002318617381854393
1412.5406712403874,1412.5406712403874,1.0010348922937602,0.0023222101905237278
1412.5476159129812,1412.5476159129812,1.0012386181738941,0.0023257753840028156
1412.5545605854825,1412.5545605854825,1.0028715741608534,0.002327098057343152
1412.5615052578903,1412.5615052578903,1.0039307024144157,0.0023270635986232598
1412.568449930018,1412.568449930018,0.9987967128243433,0.0023280486656837795
1412.5753946021473,1412.5753946021473,0.997636202220219,0.0023304610407859803
1412.5823392741818,1412.5823392741818,0.9990436690898093,0.0023296335389720907
1412.5892839459382,1412.5892839459382,0.9972865020843205,0.002330821477560541
1412.596228617694,1412.596228617694,0.9986550370669077,0.002330296958959964
1412.6031732892636,1412.6031732892636,0.9989621861044595,0.0023318270247797658
1412.6101179606471,1412.6101179606471,0.9997046155525465,0.002331067909112719
1412.617062631937,1412.617062631937,1.000808980336672,0.0023295816868470318
1412.6240073032275,1412.6240073032275,1.0007591647859804,0.0023297589279784757
1412.6309519742379,1412.6309519742379,1.0036967389549545,0.0023299449382758884
1412.6378966451562,1412.6378966451562,1.0014799986512317,0.0023284546187181
1412.6448413158869,1412.6448413158869,1.0000400160444753,0.00232573295766473
1412.651785986526,1412.651785986526,0.9995525519908315,0.002325940701464764
1412.6587306569777,1412.6587306569777,1.0012306105226128,0.002324701890444112
1412.6656753273367,1412.6656753273367,0.9955340061620432,0.002323223345909656
1412.6726199976024,1412.6726199976024,0.9995577257904262,0.002324210703453264
1412.6795646676815,1412.6795646676815,1.0012428712845498,0.0023284842889560752
1412.6865093376687,1412.6865093376687,0.9985098403143902,0.0023272943136872443
1412.6934540074678,1412.6934540074678,1.000233172693015,0.002327834263845714
1412.7003986771756,1412.7003986771756,1.0014529435070827,0.002326585913904801
1412.7073433466958,1412.7073433466958,1.0029368601796507,0.0023271309085498787
1412.7142880162169,1412.7142880162169,0.9978412051152257,0.0023253451988632296
