time,time,flux,flux_err
1354.116509025994,1354.116509025994,0.9998612955587701,8.125769226128452e-05
1354.124610771031,1354.124610771031,0.9999405282483556,7.418193502205831e-05
1354.1315551239463,1354.1315551239463,1.00005308977187,7.417405031757743e-05
1354.1384994768619,1354.1384994768619,1.0001868402857395,7.416883701132546e-05
1354.1454438297774,1354.1454438297774,1.0000291699060386,7.415760143078483e-05
1354.1523881828325,1354.1523881828325,1.0001147773874117,7.415533268012308e-05
1354.1593325357014,1354.1593325357014,1.0000954313993904,7.414763647434025e-05
1354.1662768888032,1354.1662768888032,0.9999808948329598,7.41395971501964e-05
1354.173221241858,1354.173221241858,0.9999534389070318,7.413483079264082e-05
1354.1801655947743,1354.1801655947743,0.9999137988171475,7.413324146201529e-05
1354.1871099478756,1354.1871099478756,1.0000146096589453,7.41382303761885e-05
1354.1940543009775,1354.1940543009775,1.0000191092913426,7.413794302773772e-05
1354.2009986540793,1354.2009986540793,0.9999815106087284,7.414051478896503e-05
1354.207943007274,1354.207943007274,0.9999750814320582,7.414491980956033e-05
1354.2148873605154,1354.2148873605154,1.000082881465315,7.415006909822077e-05
1354.2218317136173,1354.2218317136173,1.0000867198515224,7.415563369455813e-05
1354.2287760668582,1354.2287760668582,1.000100510572428,7.416181427582529e-05
1354.2357204200537,1354.2357204200537,0.9999364775464322,7.41586478268503e-05
1354.2426647733416,1354.2426647733416,0.9998177022324262,7.415721014032005e-05
1354.2496091265832,1354.2496091265832,0.9999701416028766,7.417088593370902e-05
1354.256553479871,1354.256553479871,0.9999974044988225,7.417203660522941e-05
1354.2634978332055,1354.2634978332055,0.9999359790485919,7.417407315813971e-05
1354.27044218654,1354.27044218654,0.9999525546167758,7.417904229740334e-05
1354.2773865398747,1354.2773865398747,1.0000595021751573,7.418617360428492e-05
1354.2843308932556,1354.2843308932556,1.0000057399423767,7.418721137332845e-05
1354.291275246637,1354.291275246637,1.000007264736218,7.418880560334764e-05
1354.2982196000644,1354.2982196000644,1.000105203704845,7.419310376625617e-05
1354.3051639534922,1354.3051639534922,0.9999331734599451,7.418830449554281e-05
1354.3121083069668,1354.3121083069668,0.999930095422472,7.418787610826422e-05
1354.3190526604408,1354.3190526604408,1.000073528647719,7.419824822203559e-05
1354.3259970139618,1354.3259970139618,1.0000228957449764,7.419510098604973e-05
1354.332941367436,1354.332941367436,1.0001387546020686,7.420170268669219e-05
1354.3398857209565,1354.3398857209565,0.9999464783745191,7.419560557729834e-05
1354.3468300744778,1354.3468300744778,0.9999302007330015,7.419660572194854e-05
1354.3537744280916,1354.3537744280916,1.0000048371530392,7.420001904004042e-05
1354.3607187816592,1354.3607187816592,0.9999769784313972,7.42009312049928e-05
1354.3676631352268,1354.3676631352268,0.9999762391820063,7.419824817529245e-05
1354.374607488887,1354.374607488887,0.9999505947239637,7.419583900049358e-05
1354.3815518424549,1354.3815518424549,0.9999520008105343,7.419724679191155e-05
1354.3884961961617,1354.3884961961617,0.9999997378934466,7.419757974516971e-05
1354.395440549822,1354.395440549822,0.999977954931462,7.419726312071851e-05
1354.4023849035293,1354.4023849035293,1.0001121774380046,7.41982028243024e-05
1354.4093292571897,1354.4093292571897,0.9999903240220664,7.419316271925352e-05
1354.4162736109433,1354.4162736109433,1.0000622014881992,7.41984030164078e-05
1354.4232179646974,1354.4232179646974,1.000067515836076,7.419733039805402e-05
1354.4301623184506,1354.4301623184506,0.9998256446433225,7.418824872624248e-05
1354.4371066722044,1354.4371066722044,1.000065038064327,7.41957804761463e-05
1354.4440510259578,1354.4440510259578,1.0000634656564982,7.419372688625302e-05
1354.450995379805,1354.450995379805,1.0000331273949254,7.419600187834914e-05
1354.4579397336051,1354.4579397336051,0.9999930163658035,7.419342189143041e-05
1354.4648840874056,1354.4648840874056,0.9999187981013833,7.419367280354894e-05
1354.4718284412522,1354.4718284412522,0.9999500195719921,7.419337788786953e-05
1354.4787727951457,1354.4787727951457,1.0002341610011676,7.420519946617735e-05
1354.4857171490385,1354.4857171490385,0.9999276614606722,7.419366124909214e-05
1354.492661502886,1354.492661502886,0.9999938506199492,7.419643362648133e-05
1354.4996058567792,1354.4996058567792,0.9999561079686929,7.419316616307816e-05
1354.5065502106722,1354.5065502106722,1.0000639978167567,7.4199118600229e-05
1354.5134945646125,1354.5134945646125,0.9999068280555508,7.419421249489763e-05
1354.5204389185524,1354.5204389185524,1.0001901554693284,7.420218177233012e-05
1354.527383272539,1354.527383272539,0.9999056491401405,7.419182215735232e-05
1354.5343276264323,1354.5343276264323,1.0000130859898646,7.41957640506307e-05
1354.5412719804187,1354.5412719804187,0.9999422465539787,7.419546288521675e-05
1354.548216334452,1354.548216334452,1.0000882395442392,7.42007273938876e-05
1354.5551606884387,1354.5551606884387,1.0000097725820858,7.41974917777237e-05
1354.5621050424247,1354.5621050424247,0.9998775310345401,7.419224655144693e-05
1354.569049396458,1354.569049396458,1.0000504605155345,7.419959056197973e-05
1354.5759937504909,1354.5759937504909,1.0000469815759765,7.42025016650022e-05
1354.5829381045241,1354.5829381045241,0.9999522304760061,7.419327533458057e-05
1354.5898824586038,1354.5898824586038,0.999875761822555,7.41914304190684e-05
1354.596826812637,1354.596826812637,0.999994612005407,7.419861568654488e-05
1354.6037711667632,1354.6037711667632,1.0002261747919439,7.420714834852783e-05
1354.6107155208424,1354.6107155208424,0.9999172574572699,7.41973771958678e-05
1354.6176598748755,1354.6176598748755,1.0000821860135833,7.420513177034202e-05
1354.6246042290018,1354.6246042290018,1.0000229457165983,7.4203822088185e-05
1354.6315485831747,1354.6315485831747,0.9999503997097559,7.420110241856558e-05
1354.6384929372075,1354.6384929372075,0.9999624621317244,7.420205738772334e-05
1354.6454372913806,1354.6454372913806,1.000001345850426,7.420270085598672e-05
1354.6523816455065,1354.6523816455065,0.999917610836832,7.420234313543411e-05
1354.6593259996796,1354.6593259996796,1.000026765640079,7.420698811287906e-05
1354.6662703538059,1354.6662703538059,0.9999910584168392,7.420992635579483e-05
1354.673214708025,1354.673214708025,1.000062190142582,7.421332600343557e-05
1354.6801590621048,1354.6801590621048,0.9999077598000318,7.421001341923787e-05
1354.6871034163705,1354.6871034163705,1.0000793685661358,7.42191617090192e-05
1354.6940477704968,1354.6940477704968,1.0000942661371923,7.421962226105542e-05
1354.7009921246695,1354.7009921246695,0.9999608222790626,7.421470456887097e-05
1354.7079364789356,1354.7079364789356,0.9999922714922966,7.421981377110245e-05
1354.7148808331083,1354.7148808331083,0.9999544760228808,7.421844821407718e-05
1354.7218251872346,1354.7218251872346,1.0000300844197338,7.422389746337563e-05
1354.7287695415005,1354.7287695415005,1.0001041596514704,7.423149375192663e-05
1354.7357138957664,1354.7357138957664,1.0000106877148256,7.422919836949402e-05
1354.7426582500325,1354.7426582500325,0.9998758695527853,7.422563059225947e-05
1354.749602604298,1354.749602604298,1.0000131264374075,7.423551526995876e-05
1354.7565469583312,1354.7565469583312,1.0000041261597556,7.423677405302368e-05
1354.7634913125971,1354.7634913125971,1.0000774482359485,7.423870459397618e-05
1354.7704356668632,1354.7704356668632,1.0000613168617334,7.424339527736227e-05
1354.777380021129,1354.777380021129,1.000062312942758,7.424722917844952e-05
1354.7843243753948,1354.7843243753948,0.9999875243238222,7.424770839127203e-05
1354.7912687296607,1354.7912687296607,0.9998732640194292,7.424922924062212e-05
1354.7982130839266,1354.7982130839266,1.0000395777337092,7.425741068599933e-05
1354.8051574381927,1354.8051574381927,0.9999675583880915,7.426165486531409e-05
1354.8121017924582,1354.8121017924582,0.9999542018581602,7.426637245145074e-05
1354.8190461467243,1354.8190461467243,1.0000819213570682,7.427337732846529e-05
1354.8259905009904,1354.8259905009904,1.0000232838456193,7.427404510405619e-05
1354.8329348552563,1354.8329348552563,1.0000217733612748,7.428309774690236e-05
1354.839879209522,1354.839879209522,0.9999744938979838,7.428467922531629e-05
1354.8468235637883,1354.8468235637883,0.9999618624743383,7.428435356588475e-05
1354.853767918054,1354.853767918054,1.0000647913475735,7.429450752271924e-05
1354.86071227232,1354.86071227232,0.9999689064194346,7.429522961868192e-05
1354.8676566266327,1354.8676566266327,1.000030120368222,7.430016680711774e-05
1354.8746009810845,1354.8746009810845,0.9999497205081325,7.430262761043935e-05
1354.8815453353504,1354.8815453353504,0.9999572365969869,7.430641925895792e-05
1354.8884896896166,1354.8884896896166,1.0000223234144436,7.43109225137668e-05
1354.8954340438822,1354.8954340438822,0.9999875303290097,7.431130213054857e-05
1354.9023783981486,1354.9023783981486,1.0000934116509472,7.431845029707758e-05
1354.909322752414,1354.909322752414,1.000048357129346,7.432051079348e-05
1354.91626710668,1354.91626710668,0.9999842523259949,7.431743456327217e-05
1354.9232114609458,1354.9232114609458,1.0000368566471964,7.432366063494036e-05
1354.9301558152117,1354.9301558152117,0.9999546518013718,7.431720847073652e-05
1354.9382112663,1354.9382112663,0.9999789876784169,7.431403469861928e-05
1354.94543339483,1354.94543339483,0.999889676891273,7.431387116111217e-05
1354.9523777490954,1354.9523777490954,1.0000358894443977,7.43194647392359e-05
1354.9593221033615,1354.9593221033615,1.0000652364717464,7.431998340066428e-05
1354.9662664576276,1354.9662664576276,0.9999261776168591,7.431055231280877e-05
1354.973210811893,1354.973210811893,1.0001738317197548,7.432133795928912e-05
1354.9801551661592,1354.9801551661592,0.9999877555665015,7.431312211150044e-05
1354.9870995204255,1354.9870995204255,0.9999838326293956,7.43117934439341e-05
1354.9940438746912,1354.9940438746912,0.9999393622771487,7.43105980145537e-05
1355.000988228957,1355.000988228957,1.0000536893425054,7.43133422594945e-05
1355.0079325832228,1355.0079325832228,1.000067067289447,7.431240935036574e-05
1355.0148769374891,1355.0148769374891,0.9999755481372794,7.430511339662888e-05
1355.0218212917546,1355.0218212917546,0.9999487550890587,7.430373258704503e-05
1355.0287656460207,1355.0287656460207,1.0000300453039976,7.429969361544142e-05
1355.0357100002868,1355.0357100002868,0.9999084461567562,7.429830360448016e-05
1355.0426543545525,1355.0426543545525,0.9999948482834036,7.429544984346384e-05
1355.0495987088186,1355.0495987088186,0.999982389008934,7.429606639198472e-05
1355.0565430630843,1355.0565430630843,1.0000379039117497,7.429478048437181e-05
1355.0634874173502,1355.0634874173502,0.9999810437100674,7.429193946377154e-05
1355.0704317716165,1355.0704317716165,1.0000893361672565,7.429526086685823e-05
1355.077376125882,1355.077376125882,1.000044302344729,7.429030909533336e-05
1355.0843204801479,1355.0843204801479,0.9999768636843551,7.428232901949441e-05
1355.0912648343674,1355.0912648343674,0.9999918019515388,7.428069519717413e-05
1355.098209188447,1355.098209188447,0.9999576197058342,7.427523508630179e-05
1355.1051535427127,1355.1051535427127,0.9998946931206936,7.427346355656836e-05
1355.1120978969789,1355.1120978969789,1.0000642736174554,7.426977921272482e-05
1355.1190422512448,1355.1190422512448,1.0000224804095583,7.426851197024087e-05
1355.1259866054174,1355.1259866054174,1.0000633772745324,7.426732213984677e-05
1355.132930959544,1355.132930959544,1.0000296856902708,7.4263828105284e-05
1355.1398753138096,1355.1398753138096,0.9999256173277772,7.425812485742287e-05
1355.1468196680291,1355.1468196680291,0.9999843829672983,7.425235069071507e-05
1355.153764022109,1355.153764022109,0.9999695056009024,7.425059237649951e-05
1355.1607083763745,1355.1607083763745,0.9999860066787202,7.424473008290535e-05
1355.167652730501,1355.167652730501,1.0000141699401415,7.424446930624781e-05
1355.1745970846737,1355.1745970846737,1.000077116308755,7.424112104982359e-05
1355.1815414388464,1355.1815414388464,0.9999345541413301,7.423254664158741e-05
1355.1884857929729,1355.1884857929729,1.0000001117919006,7.42301331106371e-05
1355.1954301471455,1355.1954301471455,0.9999607052700629,7.422302287139671e-05
1355.2023745012716,1355.2023745012716,1.0000013142033566,7.42176893093773e-05
1355.209318855398,1355.209318855398,1.000060385040284,7.421593773655938e-05
1355.2162632095708,1355.2162632095708,1.000065267533685,7.420850869915203e-05
1355.223207563604,1355.223207563604,1.0000226485248853,7.420133071194995e-05
1355.2301519177768,1355.2301519177768,0.9999991615508405,7.419980960457636e-05
1355.237096271903,1355.237096271903,0.9999448130323956,7.419349131348148e-05
1355.2440406259361,1355.2440406259361,0.9998731615741143,7.41857146822693e-05
1355.2509849800153,1355.2509849800153,1.0000242501876322,7.418323949527954e-05
1355.2579293340955,1355.2579293340955,1.0000733410050942,7.418286954264598e-05
1355.2648736881752,1355.2648736881752,0.999999260742866,7.417357091532714e-05
1355.2718180422544,1355.2718180422544,0.9999987104359777,7.416481123665256e-05
1355.2787623962874,1355.2787623962874,1.0000321186890608,7.416277512064008e-05
1355.2857067503205,1355.2857067503205,1.0000402337145238,7.415898770730764e-05
1355.2926511043543,1355.2926511043543,0.9998649305414119,7.41438804214339e-05
1355.2995954583869,1355.2995954583869,0.9999805240299159,7.414262019319256e-05
1355.30653981242,1355.30653981242,1.0000137220368246,7.41419179333073e-05
1355.3134841664066,1355.3134841664066,1.0000658270290785,7.413246296101648e-05
1355.320428520393,1355.320428520393,0.9999006581727568,7.412891184636131e-05
1355.3273728744261,1355.3273728744261,1.0000949034119373,7.412889806294411e-05
1355.3348727767075,1355.3348727767075,0.9999877465521039,7.412346906097705e-05
1355.3426504531594,1355.3426504531594,1.0000245326451007,7.411821717311342e-05
1355.3495948070995,1355.3495948070995,1.0000305547572559,7.411442250714867e-05
1355.3565391610393,1355.3565391610393,0.9999232206175662,7.410807576760403e-05
1355.3634835149792,1355.3634835149792,1.0001200212134012,7.411313787985676e-05
1355.370427868919,1355.370427868919,0.9999709988750054,7.409856155788458e-05
1355.3773722228127,1355.3773722228127,1.000048712111417,7.409858525401349e-05
1355.3843165767062,1355.3843165767062,0.9998733982587273,7.408880507249935e-05
1355.3912609306458,1355.3912609306458,0.9999970261514142,7.409521965691222e-05
1355.3990386069581,1355.3990386069581,1.0000468474878568,7.409464982819554e-05
1355.406538509146,1355.406538509146,1.000038997844446,7.409082981629305e-05
1355.4134828629933,1355.4134828629933,1.000040185505665,7.40882678680248e-05
1355.4204272168397,1355.4204272168397,0.999967289014454,7.408538870030963e-05
1355.4273715706865,1355.4273715706865,0.9998773446813758,7.407266511761743e-05
1355.434315924487,1355.434315924487,1.0001463354447924,7.408220921682625e-05
1355.4412602783336,1355.4412602783336,0.999961655122474,7.407922686155621e-05
1355.4482046320875,1355.4482046320875,1.000006752538407,7.407221952286399e-05
1355.4551489858877,1355.4551489858877,0.9999190875056311,7.407082161382915e-05
1355.462093339688,1355.462093339688,0.9999911330379824,7.407016804919011e-05
1355.4690376934418,1355.4690376934418,1.0001034606940358,7.407240611693627e-05
1355.4759820471957,1355.4759820471957,1.0000689964829874,7.407238800002597e-05
1355.4829264009493,1355.4829264009493,0.9999199293937278,7.406661606226642e-05
1355.4898707546563,1355.4898707546563,1.0000129765927572,7.406999574452176e-05
1355.4968151083635,1355.4968151083635,1.0001265858559103,7.407582101152089e-05
1355.503759462024,1355.503759462024,0.9999514174421043,7.406828496777794e-05
1355.5107038157307,1355.5107038157307,1.0001384340834696,7.407591889277635e-05
1355.5176481693918,1355.5176481693918,0.9999198928412435,7.406984384093623e-05
1355.5245925230986,1355.5245925230986,0.999981269490766,7.40757528303621e-05
1355.5315368767592,1355.5315368767592,1.000281287620109,7.409265894367313e-05
1355.5384812303735,1355.5384812303735,0.9999338968673321,7.408089538230649e-05
1355.5454255840336,1355.5454255840336,0.9999710601381478,7.408208491956441e-05
1355.5523699376013,1355.5523699376013,1.000013435483048,7.408842532069686e-05
1355.5593142912155,1355.5593142912155,0.9998279179433659,7.408950345941774e-05
1355.5662586447827,1355.5662586447827,1.0000215477290921,7.410010872329974e-05
1355.5732029983506,1355.5732029983506,0.9999757358384638,7.409597004403837e-05
1355.5801473519175,1355.5801473519175,1.0000579514950305,7.41095773076129e-05
1355.5870917054851,1355.5870917054851,1.0000143689177183,7.410721326207866e-05
1355.5940360589593,1355.5940360589593,0.9999112693178425,7.41085099145915e-05
1355.6009804125267,1355.6009804125267,1.000035053060876,7.41168380814758e-05
1355.6079247660477,1355.6079247660477,0.9999701754339888,7.411799558841074e-05
1355.614869119522,1355.614869119522,1.0001118171303311,7.41218922868042e-05
1355.6218134729495,1355.6218134729495,1.0000749827806243,7.412679182047352e-05
1355.6287578264241,1355.6287578264241,0.999928915227384,7.411974088476784e-05
1355.6357021798517,1355.6357021798517,0.9999084832433933,7.412327609473382e-05
1355.6426465332795,1355.6426465332795,0.9999671925459964,7.412995979865244e-05
1355.6495908867073,1355.6495908867073,1.000055243902821,7.413592870812404e-05
1355.6565352400887,1355.6565352400887,0.9999139151086848,7.413436396409155e-05
1355.6634795934697,1355.6634795934697,1.0000953291213275,7.41389211657601e-05
1355.6704239468509,1355.6704239468509,0.9999919722320623,7.414476378984233e-05
1355.6773683001854,1355.6773683001854,1.000041897751843,7.414885984216681e-05
1355.68431265352,1355.68431265352,1.0000714594402489,7.415072292167665e-05
1355.6912570068548,1355.6912570068548,1.0001336536265593,7.41555101959449e-05
1355.6982013601428,1355.6982013601428,0.9998641488623317,7.414805874817197e-05
1355.7051457134307,1355.7051457134307,0.9999470916384039,7.414992696461075e-05
1355.7120900666723,1355.7120900666723,0.9999585733892339,7.415109524192222e-05
1355.719034420007,1355.719034420007,1.0000714466903067,7.415480329808012e-05
1355.7259787732019,1355.7259787732019,1.0000074567337875,7.415680574307702e-05
1355.7329231264432,1355.7329231264432,0.9999424380107532,7.415684683972126e-05
1355.7398674796382,1355.7398674796382,1.0000000239187545,7.41585981363568e-05
1355.747922929376,1355.747922929376,1.0000442451441003,7.415988573418742e-05
1355.7551450566018,1355.7551450566018,1.0000511566256813,7.41614296850918e-05
1355.7620894097502,1355.7620894097502,1.0001566869806806,7.416569610001821e-05
1355.7690337630381,1355.7690337630381,0.9999481038499722,7.416109142915197e-05
1355.7759781161399,1355.7759781161399,0.9999238446507555,7.41599952096002e-05
1355.7829224692418,1355.7829224692418,0.9998720385075973,7.415879212177711e-05
1355.7898668223436,1355.7898668223436,0.9999896107259669,7.416130827298183e-05
1355.7968111753992,1355.7968111753992,0.9999475620198515,7.415878928143348e-05
1355.8037555283142,1355.8037555283142,1.0000775900111936,7.416474420152091e-05
1355.810699881416,1355.810699881416,0.9999302005339084,7.416344339780186e-05
1355.817644234518,1355.817644234518,1.0000189226042877,7.416550256338702e-05
1355.8245885874335,1355.8245885874335,0.999966469596347,7.416351379091137e-05
1355.8315329404886,1355.8315329404886,1.000025023458441,7.416891160853884e-05
1355.8384772934046,1355.8384772934046,0.9999812908390073,7.4163940437609e-05
1355.8454216464127,1355.8454216464127,1.000134988430115,7.417354431423344e-05
1355.8523659993284,1355.8523659993284,0.9999264748472833,7.41682534871297e-05
1355.859310352244,1355.859310352244,1.0000394688518706,7.41715093674527e-05
1355.8662547051595,1355.8662547051595,0.999978000769107,7.417063505252802e-05
1355.8731990580284,1355.8731990580284,0.9999294969586892,7.417012564981453e-05
1355.8801434108973,1355.8801434108973,0.9999414728238524,7.417170800337693e-05
1355.8870877637664,1355.8870877637664,1.0000519846841749,7.417301902163088e-05
