time,time,flux,flux_err
1468.2806489203115,1468.2806489203115,1.0051913201058411,0.017837258516133537
1468.2882880086213,1468.2882880086213,1.0234377942885444,0.016294480451896187
1468.2952326341851,1468.2952326341851,1.0230708069990224,0.016290214532878163
1468.302177259749,1468.302177259749,0.9896980672652005,0.01628874932809375
1468.3091218850338,1468.3091218850338,1.0009568644159101,0.016312775220574092
1468.3160665102248,1468.3160665102248,0.9891327392585199,0.01632178207354785
1468.323011135416,1468.323011135416,1.0038397689736733,0.0163173035449989
1468.3299557603284,1468.3299557603284,1.0126529641990167,0.016331560403151278
1468.3369003852401,1468.3369003852401,0.9947559944289178,0.016314217381133263
1468.343845010059,1468.343845010059,1.0235032218575857,0.016321854787637792
1468.350789634505,1468.350789634505,1.0004098379984725,0.0163331611118926
1468.357734259324,1468.357734259324,1.004945790116909,0.016304305835904927
1468.3646788836772,1468.3646788836772,0.9895612708481469,0.01629330043155333
1468.371623507844,1468.371623507844,0.9772233536853785,0.016309815844705082
1468.3785681319177,1468.3785681319177,1.0071289835127057,0.016311730095649016
1468.3952352295269,1468.3952352295269,1.0013688881899554,0.016184349638991003
1468.4021798531357,1468.4021798531357,1.0023804517558887,0.016194330496654606
1468.4091244769302,1468.4091244769302,1.0055691106972717,0.016185360249444787
1468.4160691003515,1468.4160691003515,0.9970472533116812,0.01619982601960336
1468.42301372368,1468.42301372368,0.9965795929715477,0.0161813005259658
1468.429958347009,1468.429958347009,0.9966300375368211,0.01620236788088547
1468.4369029700586,1468.4369029700586,1.0072423724847823,0.016157922610185414
1468.4438475932006,1468.4438475932006,0.9744550827486418,0.01616181953343587
1468.450792216157,1468.450792216157,0.974568432550522,0.016162527407033993
1468.4577368389266,1468.4577368389266,0.9815494248699057,0.016145455721616728
1468.4646814616033,1468.4646814616033,1.0200473478745902,0.01616738471124701
1468.4716260840942,1468.4716260840942,1.0134438729744102,0.016202470008290486
1468.4785707065846,1468.4785707065846,1.0155935173575643,0.01613687045931218
1468.4855153287954,1468.4855153287954,1.0049853895262275,0.016130945629655783
1468.4924599511928,1468.4924599511928,1.0140582738489679,0.016103262997822995
1468.4994045733115,1468.4994045733115,1.0000165969023038,0.016052286921642928
1468.5063491951498,1468.5063491951498,0.9856617844674128,0.016036024087791506
1468.513293816895,1468.513293816895,0.9891802298038812,0.016036856738817613
1468.520238438734,1468.520238438734,0.9766023149374412,0.016029691785292656
1468.5271830602928,1468.5271830602928,1.004240707069256,0.016070968135754732
1468.5341276817587,1468.5341276817587,1.0155786144006458,0.016056892506093042
1468.541072303132,1468.541072303132,1.0235804434639837,0.016084134672808066
1468.5480169244115,1468.5480169244115,1.0049778634609676,0.016041301189857672
1468.5549615455052,1468.5549615455052,0.9918776307702233,0.016017047002658047
1468.5619061665057,1468.5619061665057,0.9895562324861041,0.01599443407706398
1468.568850787413,1468.568850787413,0.9896582896289695,0.015977188232303423
1468.575795408227,1468.575795408227,0.9991178792903547,0.01603320868324871
1468.5827400288545,1468.5827400288545,0.9986940230895973,0.016032570845666495
1468.5896846493895,1468.5896846493895,1.0125997409522267,0.01603521810571157
1468.5966292698308,1468.5966292698308,0.9821563840654773,0.016036368203867772
1468.6035738900869,1468.6035738900869,1.031418304013274,0.01606564825829212
1468.6105185102485,1468.6105185102485,0.9891507655369892,0.016035112919296688
1468.6174631304107,1468.6174631304107,0.9962982075303669,0.016025329800283917
1468.6244077502006,1468.6244077502006,0.9947829131002749,0.015972287958690826
1468.6313523698973,1468.6313523698973,0.9921520220646454,0.015966857558877258
1468.6382969896868,1468.6382969896868,0.9946676489285771,0.015960888979063816
1468.6452416092902,1468.6452416092902,1.0146073732755063,0.0159766102726596
1468.6521862288932,1468.6521862288932,0.9967444636166499,0.015987513112958113
1468.6591308482177,1468.6591308482177,1.0010236859619845,0.01601646995454224
1468.6660754674488,1468.6660754674488,0.9933761022491957,0.01601352285745778
1468.6730200864931,1468.6730200864931,1.025454991791341,0.016049804854366172
1468.679964705631,1468.679964705631,1.0049256351768874,0.01597816353129979
1468.686909324489,1468.686909324489,0.9961733213433002,0.016007831306062318
1468.6938539432545,1468.6938539432545,0.980112644937287,0.01600948473530086
1468.7007985618336,1468.7007985618336,0.9926733658420679,0.01606772137938062
1468.7077431804123,1468.7077431804123,0.9934076045932965,0.016060617056510625
1468.7146877988048,1468.7146877988048,1.0013672286545479,0.016046885224443235
1468.7216324171045,1468.7216324171045,1.006307432947841,0.01602818193989799
1468.7285770352178,1468.7285770352178,1.000819453124933,0.016027546364729407
1468.7355216533315,1468.7355216533315,1.030387545708728,0.016014940596501877
1468.7424662712583,1468.7424662712583,0.9873962998114448,0.015983971548170734
1468.749410889092,1468.749410889092,0.9826812202653722,0.01596304665509462
1468.7563555067397,1468.7563555067397,1.0041016983234266,0.0159378781342943
1468.7633001243876,1468.7633001243876,0.998737251995785,0.015953956127824902
1468.7702447419422,1468.7702447419422,1.016394396152164,0.015958743125266954
1468.7771893593103,1468.7771893593103,1.0078176561629764,0.015981280291679258
1468.7841339763058,1468.7841339763058,1.016238854614205,0.016037856985548445
1468.7910785935812,1468.7910785935812,0.9937930453862014,0.016029110482219965
1468.798023210484,1468.798023210484,0.982590240855395,0.016037661971455074
1468.8049678272932,1468.8049678272932,1.0182599500504705,0.01606728133194973
1468.8119124441023,1468.8119124441023,0.9914350308909834,0.01605168976800344
1468.8188570607253,1468.8188570607253,0.9926013834948325,0.016069772755483668
1468.825801677349,1468.825801677349,1.003380122070723,0.016084792486060415
1468.832746293693,1468.832746293693,0.9897992932816818,0.016093052800908707
1468.8396909099433,1468.8396909099433,0.998746109909787,0.016125480119387775
1468.8466355261007,1468.8466355261007,1.0113552280143476,0.016124322629100456
1468.8535801422581,1468.8535801422581,1.009254232270243,0.016064407019023424
1468.8605247581363,1468.8605247581363,0.999138574598305,0.01605155484451601
1468.867469374015,1468.867469374015,0.9937170080777106,0.016034370870259378
1468.8744139897067,1468.8744139897067,1.0021599404117292,0.01603780509080798
1468.8813586053052,1468.8813586053052,0.9925659153861733,0.015982141991604536
1468.888303220811,1468.888303220811,0.9949551702451147,0.015978077102928208
1468.895247836037,1468.895247836037,0.9980992505515287,0.015991033682770994
1468.9021924514498,1468.9021924514498,1.0051264360518606,0.01597753128193375
1468.9091370664894,1468.9091370664894,1.0138377519462343,0.015968812381221185
1468.9160816815292,1468.9160816815292,0.9923233274403855,0.01592740048696547
1468.923026296383,1468.923026296383,0.9926025614845211,0.015917007652038132
1468.9299709111438,1468.9299709111438,1.0006164619459699,0.015971399739219946
1468.936915525718,1468.936915525718,1.019883582695717,0.015914035660124098
1468.9438601402921,1468.9438601402921,0.9928287312453066,0.01590961769808388
1468.95080475468,1468.95080475468,0.9888575676992858,0.015926756542073386
1468.957749368975,1468.957749368975,1.0140339457209788,0.01600911857323123
1468.9660829059987,1468.9660829059987,0.9978810642734945,0.015985823181858105
1468.973027520107,1468.973027520107,0.9975759795618908,0.01601641556421852
1468.9799721339361,1468.9799721339361,0.9991657696345971,0.016004749437278483
1468.9869167478585,1468.9869167478585,0.9982919773023176,0.01600194179689124
1468.9938613615018,1468.9938613615018,0.999281490577377,0.016035035358515685
1469.0008059750514,1469.0008059750514,0.99727086064783,0.016020773693320858
1469.0077505886013,1469.0077505886013,0.9877757896158995,0.01602708309516811
1469.0146952018715,1469.0146952018715,1.0072030196867234,0.016015970976506443
1469.021639815142,1469.021639815142,0.9946475160176856,0.015998960318684533
1469.0285844282264,1469.0285844282264,1.009930000865144,0.015984797421605624
1469.0355290411244,1469.0355290411244,1.013126161803962,0.015943764774100054
1469.0424736541154,1469.0424736541154,0.9847526072339562,0.015939063473432158
1469.049418267013,1469.049418267013,0.9965026041666418,0.01590249007687271
1469.056362879445,1469.056362879445,1.0052140473567734,0.015901574834605033
1469.0633074919708,1469.0633074919708,1.0184394533951902,0.015870805856591917
1469.070252104403,1469.070252104403,0.9696211623192008,0.01585534459981215
1469.0771967167423,1469.0771967167423,1.019705326010944,0.01589019870567251
1469.084141328895,1469.084141328895,1.0002825305930565,0.01588333991756384
1469.0910859409546,1469.0910859409546,1.0048378345105453,0.015862671348181093
1469.0980305529215,1469.0980305529215,0.9821485062860095,0.01587282129516701
1469.1049751647013,1469.1049751647013,0.9993670120840769,0.015885268834164162
1469.1119197763887,1469.1119197763887,1.006268991079349,0.015910374663085085
1469.1188643879825,1469.1188643879825,1.012790729251546,0.015947652658130848
1469.1258089994838,1469.1258089994838,1.0105949590668004,0.01594142809199929
1469.1327536108915,1469.1327536108915,0.9850623250856103,0.01591750465579932
1469.139698222206,1469.139698222206,1.0008246628074793,0.015901535821188063
1469.1466428332417,1469.1466428332417,0.9943492496411057,0.015869427281973197
1469.1535874442766,1469.1535874442766,0.9861409426159911,0.015853464308245684
1469.1605320552185,1469.1605320552185,0.993129668077402,0.015830846560029588
1469.1674766658812,1469.1674766658812,0.9927415161435376,0.015812942647115562
1469.1744212767305,1469.1744212767305,1.0069063817766684,0.015781443575004807
1469.1813658871142,1469.1813658871142,1.0175326571079175,0.0157729276807673
1469.1883104974972,1469.1883104974972,1.0107745426619532,0.01576238870272672
1469.1952551078805,1469.1952551078805,0.9928666936326142,0.01568665651740104
1469.2021997182637,1469.2021997182637,1.0115537559393144,0.01570196760877135
1469.2091443281813,1469.2091443281813,0.9924202590619711,0.015658897118814318
1469.2160889381926,1469.2160889381926,1.0028374101198696,0.015647195970336616
1469.22303354811,1469.22303354811,0.9889567375361998,0.015707863778865995
1469.229978157748,1469.229978157748,0.9982468481499616,0.015727887719194006
1469.2369227673867,1469.2369227673867,1.0031368949097117,0.01576057372211758
1469.2438673769313,1469.2438673769313,1.0085590876449597,0.015784167423042613
1469.2508119863837,1469.2508119863837,0.9993285075193452,0.015797330257367286
1469.2577565956494,1469.2577565956494,1.006689235454317,0.01582142347071371
1469.2647012048217,1469.2647012048217,1.0044415615512396,0.015813939110632395
1469.2716458138082,1469.2716458138082,0.9852243481338722,0.015809030429890982
1469.2785904227017,1469.2785904227017,0.981714417483561,0.01580781821152746
1469.2855350315017,1469.2855350315017,0.990995675091179,0.015845619311267746
1469.2924796403017,1469.2924796403017,1.0179966900132027,0.015842648391481175
1469.299424248822,1469.299424248822,1.0143672572411144,0.015872106697739016
1469.30636885725,1469.30636885725,0.9889451112062524,0.01584480529140026
1469.3133134657705,1469.3133134657705,0.9955531632749353,0.015866647365589202
1469.3202580738257,1469.3202580738257,1.0106261770104248,0.015848602069247004
1469.3272026818809,1469.3272026818809,1.0196815404390986,0.015854308488962722
1469.3341472899353,1469.3341472899353,0.9863635471997491,0.015807753160375932
1469.3410918979905,1469.3410918979905,0.9919552834377304,0.01577417808341971
1469.3480365055802,1469.3480365055802,0.9771593629510156,0.01577834538692582
1469.3549811133557,1469.3549811133557,0.9979504305067021,0.015850408895934063
1469.3619257208516,1469.3619257208516,1.016341502027271,0.015799934921691385
1469.368870328255,1469.368870328255,0.9993093228739383,0.015758013721517517
1469.3758149356577,1469.3758149356577,1.0076720529811536,0.015775656962608298
1469.3827595427817,1469.3827595427817,1.0230904247357375,0.015755234576174868
1469.3897041498126,1469.3897041498126,1.0012461492514269,0.015757945007280845
1469.3966487569362,1469.3966487569362,1.0009001691982455,0.015760178896942142
1469.4035933636874,1469.4035933636874,1.001722107790449,0.015749787731311627
1469.4105379704383,1469.4105379704383,0.9847467674179781,0.015744192482389213
1469.4174825770963,1469.4174825770963,1.0146966578105157,0.01573329630714875
1469.4244271836615,1469.4244271836615,0.9936392542628589,0.01575209648327537
1469.4313717899472,1469.4313717899472,0.9876425861178031,0.01576465654546999
1469.4383163962325,1469.4383163962325,1.0123102824751005,0.01572809593996031
1469.4452610024248,1469.4452610024248,0.990006887618255,0.01571650129736725
1469.452205608431,1469.452205608431,0.9862435335166163,0.015713372823421563
1469.4591502144372,1469.4591502144372,1.0121657751181643,0.01571526463714902
1469.466094820164,1469.466094820164,1.0046982931537047,0.015708635926208324
1469.4730394258906,1469.4730394258906,1.0239594017069513,0.015703631989920717
1469.479984031524,1469.479984031524,0.9849380298788285,0.01568266514519575
1469.4869286368782,1469.4869286368782,1.0087109593014147,0.015694000046941155
1469.4938732423257,1469.4938732423257,0.9888926613709094,0.0156682574803354
1469.5008178475869,1469.5008178475869,0.9968803155470252,0.0157035377994205
1469.5077624526614,1469.5077624526614,0.9840795595918639,0.01569458915668744
1469.5147070576434,1469.5147070576434,1.0106856590746376,0.015682507391935604
1469.5216516625314,1469.5216516625314,0.9859275990286314,0.01565750719658763
1469.5285962673267,1469.5285962673267,1.0143252070725581,0.01568811602004754
1469.5355408719365,1469.5355408719365,1.0132782349605958,0.01569823035303135
1469.5424854765454,1469.5424854765454,0.9921741893711843,0.015696668367566044
1469.5494300809682,1469.5494300809682,1.0045445197236231,0.015655480524407146
1469.556374685298,1469.556374685298,0.988843743608306,0.01569985225335927
1469.5633192894413,1469.5633192894413,0.9970250202976418,0.015680386660189637
1469.570263893585,1469.570263893585,1.0039745548563697,0.01571867399817516
1469.577208497542,1469.577208497542,0.9980749514886897,0.015709594066604937
1469.5841531014062,1469.5841531014062,1.0054730753381371,0.01576647911954541
1469.591097705084,1469.591097705084,0.9757078180687657,0.01576854338757765
1469.598042308948,1469.598042308948,1.0003703351276942,0.01575292188603013
1469.6049869123467,1469.6049869123467,1.006562874338581,0.015761287775830864
1469.6119315157448,1469.6119315157448,0.9881966594272555,0.01573739202921848
1469.6188761191431,1469.6188761191431,1.01152411543995,0.015787134051540926
1469.6258207220765,1469.6258207220765,1.000107858276872,0.015825104329204847
1469.632765325195,1469.632765325195,1.0009628261318453,0.01582245078232501
1469.6397099282208,1469.6397099282208,1.010046495266465,0.015834562759207933
1469.6466545310604,1469.6466545310604,0.9932562907750937,0.015803824386544887
1469.653599133621,1469.653599133621,1.0012843372114122,0.015810910464666435
1469.6605437362746,1469.6605437362746,1.0057951057659171,0.015786058384816577
1469.6674883388346,1469.6674883388346,1.0020374291174599,0.015805250144182926
1469.6744329411151,1469.6744329411151,0.9865630131523421,0.01574832596813882
1469.6813775433031,1469.6813775433031,0.9952740594124831,0.01572335627829754
1469.688322145584,1469.688322145584,0.9827564450050342,0.015720712460948652
1469.6952667475855,1469.6952667475855,1.00441605677434,0.015687763435360075
1469.7022113494936,1469.7022113494936,1.0150849951171554,0.015644265522113048
1469.7091559513083,1469.7091559513083,1.0021870455810413,0.015634121718068293
1469.7161005529374,1469.7161005529374,0.9924774967413749,0.015607600281534646
1469.7230451545663,1469.7230451545663,1.0173482620133942,0.015653075960787015
1469.7299897559162,1469.7299897559162,1.0052093923904188,0.015636302589393726
1469.7369343573585,1469.7369343573585,0.9948063293260152,0.01563188988083334
1469.743878958429,1469.743878958429,1.0039914117665698,0.01562662324681262
1469.7508235594985,1469.7508235594985,0.9893845961702527,0.01562332556237869
1469.757768160569,1469.757768160569,1.0027497608023213,0.01565824723142913
1469.764712761639,1469.764712761639,0.9954493152229263,0.015692043330841062
1469.7716573622433,1469.7716573622433,0.9952575206859272,0.015678023132713916
1469.7786019629411,1469.7786019629411,0.9947133615281247,0.015666463048995417
1469.7855465635453,1469.7855465635453,0.9922579513464267,0.015683220153129413
1469.7924911638706,1469.7924911638706,1.0247885443367397,0.015695343859074763
1469.7994357641953,1469.7994357641953,0.996375064213297,0.015679611298563653
1469.8063803644277,1469.8063803644277,1.0030880251902274,0.015632638812604203
1469.8133249644736,1469.8133249644736,0.9945523601133635,0.01565883665935012
1469.8202695645189,1469.8202695645189,0.9914726523456292,0.01563145662240125
1469.8272141643781,1469.8272141643781,1.009137673882152,0.015637803410072048
1469.8341587640512,1469.8341587640512,0.9929795179558777,0.015637918774552756
1469.8411033636312,1469.8411033636312,1.0148375519348796,0.01566719462800685
1469.8480479631185,1469.8480479631185,0.9958869281196343,0.015654149294939697
1469.8549925626055,1469.8549925626055,0.9969565354284906,0.015710580820704114
1469.8619371618124,1469.8619371618124,0.9967092045838906,0.0156983550732124
1469.8688817610196,1469.8688817610196,0.9879364284028924,0.01571208916910749
1469.8758263601344,1469.8758263601344,1.0215028212441386,0.015712605069958068
1469.882770958876,1469.882770958876,0.987770757169061,0.015684073262292965
1469.889715557618,1469.889715557618,1.0069877622421515,0.015691759625086215
1469.8966601563595,1469.8966601563595,0.9868473895539374,0.015668712992690473
1469.9036047551015,1469.9036047551015,1.008446154048638,0.015677999489318226
1469.910549353657,1469.910549353657,0.9873885667560918,0.015703874858772955
1469.9174939520265,1469.9174939520265,1.0152840386567012,0.015701722609157205
1469.9244385502097,1469.9244385502097,0.9936846611992399,0.015729621241690993
1469.9313831483923,1469.9313831483923,1.0057786073556785,0.015710874270128614
1469.9383277462962,1469.9383277462962,1.0216446117195845,0.015734976182165863
1469.9452723442926,1469.9452723442926,0.9996376038764201,0.015754695648673853
1469.9522169421032,1469.9522169421032,0.9848574966224899,0.015766843145457392
1469.9591615398208,1469.9591615398208,0.9966543284500254,0.015754528125377004
1469.9661061373517,1469.9661061373517,0.9835566344841535,0.01570874591312737
1469.97305073479,1469.97305073479,0.9977413631608476,0.015775327657971745
1469.9799953321344,1469.9799953321344,1.0022054440602741,0.015744700620004812
1469.986939929479,1469.986939929479,1.018247041802602,0.015785336559599152
1469.9938845264514,1469.9938845264514,0.9966452554472708,0.015754664657491535
1470.0008291234237,1470.0008291234237,0.9965907807376599,0.015749887278864443
1470.0077737203962,1470.0077737203962,0.998429496257072,0.015746999424992976
1470.0147183171825,1470.0147183171825,1.0085421202903881,0.01571599055062287
1470.0216629136887,1470.0216629136887,1.0069144885365937,0.015740629734838675
1470.0286075104746,1470.0286075104746,0.9789521969297418,0.015696993347135382
1470.0355521069814,1470.0355521069814,0.9823016665682245,0.01574130601406385
1470.0424967029292,1470.0424967029292,1.0329960800800255,0.015780756838309384
1470.049441299343,1470.049441299343,1.0016685253537077,0.015784620216069484
1470.056385895384,1470.056385895384,1.007598439728247,0.01577619985364091
1470.0633304913313,1470.0633304913313,0.981890243524437,0.015756655686505767
1470.0702750872797,1470.0702750872797,1.0098306174068286,0.015717272420164977
1470.077219682948,1470.077219682948,0.98898827623653,0.01571020108910138
1470.0841642786163,1470.0841642786163,0.9918811530352668,0.015698494320516263
