time,time,flux,flux_err
1354.1190858773946,1354.1190858773946,1.0001683215646529,0.00011394230576478609
1354.1278823740965,1354.1278823740965,0.9999269636098229,0.00011393463107426286
1354.1355214367904,1354.1355214367904,1.0000795589328955,0.00010401574004483945
1354.1424660388814,1354.1424660388814,0.999728049358145,0.00010399087200699303
1354.1494106407858,1354.1494106407858,0.9999812466919249,0.00010400818426326239
1354.1563552425043,1354.1563552425043,0.9999376347040452,0.00010400478267780201
1354.1632998440361,1354.1632998440361,0.9999232330127722,0.00010400563143752792
1354.1702444451028,1354.1702444451028,1.0001491093262387,0.0001040124488479794
1354.177189046169,1354.177189046169,1.0000564031633061,0.00010400980846109688
1354.1841336469563,1354.1841336469563,0.9999839290166411,0.00010400365506977281
1354.1910782475566,1354.1910782475566,0.9998459478562479,0.00010399821778348565
1354.1980228477848,1354.1980228477848,1.0001680596976368,0.00010400760239400924
1354.2049674480131,1354.2049674480131,0.999973616994736,0.00010399802219199438
1354.2119120478687,1354.2119120478687,0.9999047829612872,0.00010400141517429029
1354.218856647445,1354.218856647445,0.9998332676173447,0.0001039953351166136
1354.2258012469283,1354.2258012469283,1.000236735041916,0.00010401006178689784
1354.2327458462248,1354.2327458462248,1.0001580090818902,0.00010401712876724507
1354.2396904450566,1354.2396904450566,0.9998793540914008,0.00010399959680211065
1354.2466350437942,1354.2466350437942,0.9999434807592242,0.0001039979890401993
1354.2535796425323,1354.2535796425323,0.9998891069994116,0.00010399833671022116
1354.260524240991,1354.260524240991,1.0000038622647913,0.00010399686448718209
1354.2674688390773,1354.2674688390773,1.0001697017355706,0.00010401664030027446
1354.27441343707,1354.27441343707,1.0000223530363845,0.0001040012168524509
1354.281358034784,1354.281358034784,0.9999464966634342,0.00010399934436968722
1354.288302632404,1354.288302632404,0.9999539937465034,0.0001039999006074424
1354.2952472296524,1354.2952472296524,0.9998671915810909,0.00010400036988754359
1354.302191826807,1354.302191826807,1.0001807691358455,0.00010401016361197022
1354.3091364236823,1354.3091364236823,0.9999546853371406,0.00010400013331550561
1354.316081020465,1354.316081020465,1.000012743617482,0.00010400435045633397
1354.3230256168747,1354.3230256168747,0.999945862815672,0.00010400217906894444
1354.329970213284,1354.329970213284,1.0000235102974613,0.00010400565863645849
1354.3369148093216,1354.3369148093216,1.0001183859709584,0.00010400834238600596
1354.3438594052654,1354.3438594052654,0.9998229384647892,0.00010399067315786902
1354.3508040009306,1354.3508040009306,1.0000072127492718,0.00010400695364337234
1354.357748596502,1354.357748596502,0.9998316771189202,0.00010399802325687389
1354.364693191701,1354.364693191701,1.000097770258806,0.00010401140915292963
1354.3716377869002,1354.3716377869002,0.9999103476417905,0.00010400085492054292
1354.3785823818196,1354.3785823818196,0.9999601099248547,0.0001039972623311788
1354.3855269765531,1354.3855269765531,1.0002730335067427,0.00010401272767887723
1354.3924715711005,1354.3924715711005,0.9998163080623319,0.00010400115233326523
1354.3994161652747,1354.3994161652747,1.0001484762089388,0.00010401339406238507
1354.406360759822,1354.406360759822,0.9999664400651884,0.00010400630902507447
1354.4133053534379,1354.4133053534379,0.9998759402303008,0.00010399550720341266
1354.420249947426,1354.420249947426,1.0000180147073006,0.00010400600250544201
1354.4271945409491,1354.4271945409491,1.000063950633929,0.00010401318366620919
1354.434139134471,1354.434139134471,0.9999043732562806,0.00010399969080765253
1354.4410837276214,1354.4410837276214,1.0001021716118523,0.00010401036311494073
1354.4480283206785,1354.4480283206785,0.9996950851680271,0.00010398964281191218
1354.4549729135492,1354.4549729135492,1.0002106461757758,0.00010401307400589201
1354.461917506234,1354.461917506234,1.0000109681541958,0.00010399655701034739
1354.468862098732,1354.468862098732,0.9998930398738043,0.0001039962881256194
1354.4758066910438,1354.4758066910438,1.0000939299650848,0.00010400709208945524
1354.4827512830766,1354.4827512830766,1.0001010840695077,0.00010401221430890877
1354.4896958752952,1354.4896958752952,0.9999381392909733,0.00010399770478090708
1354.4966404670486,1354.4966404670486,1.0000617298386207,0.0001040088225893489
1354.5035850585223,1354.5035850585223,1.000074808163862,0.00010400744396404857
1354.510529649996,1354.510529649996,0.9999851817564614,0.00010400311627341838
1354.5174742412837,1354.5174742412837,0.9998951620411493,0.00010400237931273398
1354.5244188323848,1354.5244188323848,0.999842864640175,0.00010399345695915005
1354.5313634232996,1354.5313634232996,0.9999090404433051,0.00010399489923395347
1354.5383080139356,1354.5383080139356,1.0000705770216156,0.00010400201678772728
1354.5452526045708,1354.5452526045708,1.000069563595515,0.00010400787745650358
1354.5521971950202,1354.5521971950202,1.0001506781949394,0.00010401370366798859
1354.5591417852836,1354.5591417852836,0.9999580957919807,0.0001040041727285316
1354.5660863753596,1354.5660863753596,1.0000409738869775,0.00010399792221075961
1354.5730309652506,1354.5730309652506,1.0000750668395422,0.000104005762337485
1354.5799755550477,1354.5799755550477,0.9999229432269064,0.0001040027524591651
1354.5869201444727,1354.5869201444727,0.9999818326046892,0.00010399741641635531
1354.5938647338978,1354.5938647338978,0.9997141339537492,0.00010398940046234157
1354.6008093233227,1354.6008093233227,0.9999773506022969,0.00010400027827590123
1354.6077539123748,1354.6077539123748,1.000234451518427,0.00010401767678676781
1354.614698501334,1354.614698501334,1.0001129830993836,0.0001040149541647114
1354.6216430901065,1354.6216430901065,1.000095029125116,0.00010401238622918052
1354.6285876786935,1354.6285876786935,1.0000276226460527,0.00010400619507673239
1354.6355322671873,1354.6355322671873,0.9999097632004936,0.00010400157912310351
1354.6424768555873,1354.6424768555873,0.9998316156589558,0.0001040042874166487
1354.6494214436157,1354.6494214436157,0.999939138629576,0.00010399920477624343
1354.65636603155,1354.65636603155,1.0000216383061464,0.00010400725416332009
1354.663310619485,1354.663310619485,0.9999894497542705,0.00010399841220850546
1354.6702552071406,1354.6702552071406,0.9999600737047267,0.00010399997650808455
1354.6771997947021,1354.6771997947021,1.0000695040361234,0.00010401085440521698
1354.6841443819856,1354.6841443819856,1.0000807804624716,0.0001040102262163058
1354.6910889690819,1354.6910889690819,1.000008166550319,0.00010400107273930793
1354.698033556178,1354.698033556178,0.999914502512684,0.00010399912109483975
1354.704978143275,1354.704978143275,0.9999751807312904,0.00010400175558327586
1354.711922729999,1354.711922729999,0.9999690302666793,0.00010400490808826904
1354.7188673166297,1354.7188673166297,1.0002190267326008,0.00010401350293755125
1354.7258119030746,1354.7258119030746,1.0000072001121934,0.00010400164702561036
1354.7327564894258,1354.7327564894258,1.0000444664177692,0.0001040069334186963
1354.7397010755915,1354.7397010755915,0.9998603762882741,0.00010400473002106208
1354.7466456615703,1354.7466456615703,1.0000361583736512,0.0001040037385815716
1354.753590247456,1354.753590247456,0.9999536840479084,0.0001040059904393392
1354.7605348332486,1354.7605348332486,0.9999902123971177,0.00010400151200312314
1354.767479418762,1354.767479418762,0.999871064743304,0.00010399612078162205
1354.7744240042753,1354.7744240042753,0.9999449676532601,0.00010400542918663593
1354.7813685896024,1354.7813685896024,1.0002026796161811,0.00010401965403258914
1354.788313174836,1354.788313174836,0.9999573426570217,0.00010400684482347986
1354.7952577596975,1354.7952577596975,1.0001585431667703,0.00010401587992602464
1354.802202344466,1354.802202344466,0.9999661168509416,0.00010400835907625682
1354.8091469292342,1354.8091469292342,0.9998681053163405,0.0001039985263987736
1354.8160915140022,1354.8160915140022,1.000077303501372,0.00010401788612200526
1354.8230360984912,1354.8230360984912,0.9999368992108633,0.00010400471362931368
1354.8299806827938,1354.8299806827938,0.9999553541458177,0.00010400568035128927
1354.8369252670964,1354.8369252670964,0.9999255621786001,0.0001040038968659967
1354.8438698510265,1354.8438698510265,1.000025738533379,0.00010400643309553421
1354.8508144349566,1354.8508144349566,0.9999236325800517,0.00010400060619663466
1354.857759018793,1354.857759018793,1.0001724675352297,0.00010401265833984818
1354.8647036023508,1354.8647036023508,0.9999881033642286,0.00010400424809706278
1354.8716481860017,1354.8716481860017,1.0000828991026132,0.00010400750467963148
1354.8785927692797,1354.8785927692797,1.0000718356495846,0.00010400655750545282
1354.885537352558,1354.885537352558,0.9999782692739109,0.00010400572713222722
1354.8924819356496,1354.8924819356496,0.9999894632867941,0.00010400556242459164
1354.8994265186484,1354.8994265186484,0.9998189477534393,0.00010399259130414354
1354.9063711015544,1354.9063711015544,0.9998490924323779,0.00010399358134785426
1354.9133156841804,1354.9133156841804,1.0000195146506103,0.00010400937036636831
1354.9202602668995,1354.9202602668995,1.000093667157707,0.00010401324466651153
1354.9272048493397,1354.9272048493397,1.00020473075831,0.00010401631244781609
1354.9341494316864,1354.9341494316864,1.000146266952982,0.00010401715250735928
1354.9424829302418,1354.9424829302418,1.0000110040164762,0.00010401071169889894
1354.9494275122163,1354.9494275122163,0.9998573906070432,0.00010400006685034622
1354.9563720940973,1354.9563720940973,0.9999453142880437,0.00010401002123156379
1354.9633166759784,1354.9633166759784,0.9998739248824146,0.00010400312106190617
1354.9702612576737,1354.9702612576737,0.9998768453802173,0.00010399443834253185
1354.9772058391816,1354.9772058391816,1.0001467520341105,0.00010400986651193191
1354.9841504205976,1354.9841504205976,1.0000838738553197,0.00010401348762200074
1354.9910950018268,1354.9910950018268,1.0000674208314972,0.00010400822027745156
1354.9980395830557,1354.9980395830557,0.999946564904252,0.0001040115081799485
1355.004984164099,1355.004984164099,1.0000255950651291,0.00010401484204174315
1355.0119287450484,1355.0119287450484,1.0003533259294635,0.0001040171048279864
1355.0188733258124,1355.0188733258124,0.9998709992351447,0.00010400029315620792
1355.0258179064826,1355.0258179064826,0.9999779448723192,0.0001040039485660507
1355.03276248706,1355.03276248706,1.0001837183947528,0.00010401257777651707
1355.0397070675444,1355.0397070675444,0.9997843318311306,0.00010399410182940693
1355.0466516477488,1355.0466516477488,1.0001573624608113,0.00010401818709236666
1355.0535962278607,1355.0535962278607,1.0001382385052424,0.0001040137786022375
1355.0605408079723,1355.0605408079723,0.9999435904682317,0.00010401180211670566
1355.067485388084,1355.067485388084,0.9998995434857605,0.00010400300497243722
1355.0744299677299,1355.0744299677299,0.9999514472027297,0.00010400780286006746
1355.081374547469,1355.081374547469,1.0000647054821485,0.00010400646295640671
1355.0883191271146,1355.0883191271146,0.9998466294434245,0.00010399614039022986
1355.0952637064815,1355.0952637064815,1.0000978328069168,0.00010400969654464043
1355.1022082859413,1355.1022082859413,0.9998998652126947,0.00010399626138984843
1355.1091528651214,1355.1091528651214,1.0001926769269205,0.00010401604454596668
1355.116097444302,1355.116097444302,1.0001138461049675,0.0001040166938273261
1355.1230420232957,1355.1230420232957,0.9999802465076861,0.00010400253521794635
1355.1299866021968,1355.1299866021968,1.0000446917469006,0.00010401659298380803
1355.1369311809117,1355.1369311809117,0.9998572660678148,0.00010400094840031216
1355.1438757596259,1355.1438757596259,1.0001194300125718,0.00010401692245169493
1355.150820338155,1355.150820338155,0.9999116962847456,0.00010400757316771339
1355.1577649165897,1355.1577649165897,0.9998667513320229,0.00010400975284410158
1355.1647094949317,1355.1647094949317,0.9999090602758894,0.00010401152601236031
1355.1716540730881,1355.1716540730881,1.0001282675360792,0.00010401249206212762
1355.1785986512436,1355.1785986512436,1.0000443605848162,0.00010402299914045914
1355.1855432290272,1355.1855432290272,0.9999822841556348,0.00010401126615499184
1355.19248780709,1355.19248780709,0.9999421682871219,0.00010400733659855823
1355.1994323845936,1355.1994323845936,1.0001008392873223,0.00010401420669179032
1355.2063769623771,1355.2063769623771,0.9999567145788741,0.00010400413167292043
1355.213321539974,1355.213321539974,1.000111653543242,0.00010401494186142923
1355.220266117385,1355.220266117385,0.999950145912254,0.00010400015647754862
1355.2272106947028,1355.2272106947028,0.9999018537665467,0.00010400327301208885
1355.2341552719274,1355.2341552719274,0.9999583709649847,0.00010400655064207734
1355.2410998489656,1355.2410998489656,1.000099007254416,0.00010401679520531467
1355.2480444260036,1355.2480444260036,1.0000660683076312,0.0001040188275240045
1355.2549890028556,1355.2549890028556,1.0001005107089647,0.00010401739763684864
1355.2619335796148,1355.2619335796148,0.9999738918894252,0.00010401206586019624
1355.2688781562804,1355.2688781562804,0.9997771394182319,0.0001040048046055035
1355.275822732853,1355.275822732853,1.0000272640493864,0.00010402080446515996
1355.2827673092393,1355.2827673092393,0.9999637970354008,0.00010401242867060939
1355.2897118855324,1355.2897118855324,0.9999687437618008,0.00010400857566145656
1355.2966564617327,1355.2966564617327,0.9998873611225084,0.00010400417357997886
1355.3036010379328,1355.3036010379328,1.0000329014325067,0.00010400737738707681
1355.3105456139467,1355.3105456139467,1.0001630163428348,0.00010401184745406355
1355.3174901898676,1355.3174901898676,1.0000537502064897,0.00010400839150097362
1355.3244347656018,1355.3244347656018,1.0000815838091963,0.00010400758623458947
1355.3313793414293,1355.3313793414293,1.0000414705765392,0.00010401013645187552
1355.339157266032,1355.339157266032,0.999968255612858,0.00010401465726054095
1355.3466574075235,1355.3466574075235,0.9999577164129498,0.00010400841283651803
1355.3536019829785,1355.3536019829785,0.9999986764299083,0.00010401486390932363
1355.3605465580615,1355.3605465580615,0.9999777193497955,0.0001040104598298051
1355.3674911333298,1355.3674911333298,0.9998250878949648,0.00010400848842764133
1355.3744357083192,1355.3744357083192,1.0000507023261105,0.00010401121071108738
1355.3813802833088,1355.3813802833088,1.0001128616368242,0.00010401841576382733
1355.388324858112,1355.388324858112,0.9999545915370878,0.00010400075989576939
1355.395269432915,1355.395269432915,0.9998255209999167,0.00010400479396621789
1355.4033251394183,1355.4033251394183,0.9998558996112322,0.00010400543885185276
1355.41054749696,1355.41054749696,1.0001743534086842,0.00010401656468956616
1355.4174920714838,1355.4174920714838,1.0001317481140979,0.00010401498714251967
1355.4244366457283,1355.4244366457283,1.0000710814941631,0.00010401593516456468
1355.4313812198793,1355.4313812198793,0.999994790720667,0.00010400252351884134
1355.4383257940306,1355.4383257940306,1.0000603544620865,0.00010401451050934374
1355.4452703680886,1355.4452703680886,1.0000127551326048,0.0001040034529474695
1355.4522149420534,1355.4522149420534,0.999958325311875,0.00010400922762727361
1355.4591595157392,1355.4591595157392,0.9999736310305035,0.0001040073521027715
1355.4661040894248,1355.4661040894248,0.9999775276294798,0.00010401197794921114
1355.4730486631101,1355.4730486631101,0.9998979292208006,0.00010400119800889525
1355.4799932367027,1355.4799932367027,1.000138885266822,0.00010402176510728001
1355.4869378100154,1355.4869378100154,0.9999167533073248,0.00010401178305949671
1355.4938823834218,1355.4938823834218,0.9999387833536272,0.00010401442793767513
1355.5008269565485,1355.5008269565485,0.9999268145163613,0.00010401025822265786
1355.507771529675,1355.507771529675,1.0002465808771313,0.00010402382221235751
1355.514716102802,1355.514716102802,0.9999660481125083,0.00010401182777551104
1355.5216606756494,1355.5216606756494,0.9998289696512501,0.00010401099501461969
1355.5286052484962,1355.5286052484962,0.9999309906064374,0.00010401106508074139
1355.5355498212505,1355.5355498212505,1.0001671738562679,0.00010401625173637212
1355.542494393819,1355.542494393819,1.0001270146163679,0.00010401174731927067
1355.5494389663866,1355.5494389663866,0.9998765391155133,0.00010400713815318232
1355.5563835387682,1355.5563835387682,0.999860207329782,0.00010400480911016865
1355.56332811115,1355.56332811115,1.0000745985939783,0.00010401464538728007
1355.5702726834384,1355.5702726834384,1.0000869957039622,0.00010401403422369171
1355.577217255541,1355.577217255541,1.0001362264784526,0.00010402301355309712
1355.5841618276431,1355.5841618276431,0.999942698625981,0.00010400729650412242
1355.5911063996523,1355.5911063996523,0.9999448563701543,0.00010401676251882025
1355.5980509714752,1355.5980509714752,0.9998922342602669,0.00010401094754206846
1355.6049955432047,1355.6049955432047,0.9999634150890693,0.00010401129397660904
1355.6119401149347,1355.6119401149347,1.0000699981163077,0.00010401774357115063
1355.6188846864782,1355.6188846864782,0.9999512689074657,0.00010400935057135915
1355.6258292580212,1355.6258292580212,1.0001832585583705,0.00010402352782550646
1355.632773829379,1355.632773829379,0.9999567740921688,0.000104016429656357
1355.639718400736,1355.639718400736,0.9998546822365899,0.0001040080786294752
1355.6466629719066,1355.6466629719066,1.0000569943888646,0.00010401545697653852
1355.6536075429847,1355.6536075429847,1.0000215411749103,0.00010402042506938321
1355.6605521140627,1355.6605521140627,1.000095225010805,0.0001040169482036229
1355.6674966850471,1355.6674966850471,1.0001677761193346,0.00010401573131181614
1355.674441255846,1355.674441255846,0.9997458761817247,0.00010400400074058697
1355.6813858266441,1355.6813858266441,1.0000148470564485,0.00010402016746862008
1355.6883303972565,1355.6883303972565,1.0000140425466015,0.00010401235038587378
1355.6952749677753,1355.6952749677753,1.0000692953414207,0.00010402315848101285
1355.702219538201,1355.702219538201,1.0001079406531574,0.00010402438974721224
1355.7091641086272,1355.7091641086272,0.9998662879075187,0.00010401071832836289
1355.71610867896,1355.71610867896,1.000038002114892,0.00010401150636722006
1355.7230532491062,1355.7230532491062,1.0000179881252043,0.00010400808851893965
1355.7299978192532,1355.7299978192532,0.9999348789673347,0.00010401314121436134
1355.736942389213,1355.736942389213,1.0002529685675439,0.00010402254505030644
1355.7438869591738,1355.7438869591738,0.9999899507674396,0.00010401750747372201
1355.7522204429208,1355.7522204429208,0.9999479451214631,0.00010401539817972553
1355.759165012695,1355.759165012695,0.9999783757358035,0.0001040100091467276
1355.7661095823757,1355.7661095823757,0.9999133132859704,0.00010400587443354795
1355.7730541517772,1355.7730541517772,1.0001111353374952,0.00010402396785440017
1355.7799987212713,1355.7799987212713,0.9998837142762268,0.00010401501022330851
1355.7869432906732,1355.7869432906732,1.0000306356368793,0.00010401358407935324
1355.7938878598884,1355.7938878598884,0.9999238386893949,0.00010401155102510965
1355.8008324291036,1355.8008324291036,0.9999153387613318,0.00010401064386250073
1355.8077769982253,1355.8077769982253,1.0000464900879829,0.0001040252440779805
1355.814721567161,1355.814721567161,1.0001093233203528,0.00010402113433790022
1355.8216661360975,1355.8216661360975,1.0000503030980572,0.0001040142500829284
1355.8286107049398,1355.8286107049398,0.9999607944778873,0.0001040115525437636
1355.8355552736891,1355.8355552736891,1.0000381919811616,0.00010401178760206327
1355.8424998421597,1355.8424998421597,0.9998996570374784,0.00010401455088956217
1355.8494444110952,1355.8494444110952,0.9998361977518296,0.00010400511126486541
1355.8563889795655,1355.8563889795655,0.99982297785316,0.00010400271901700748
1355.863333547663,1355.863333547663,1.0001511306550162,0.0001040164221016577
1355.87027811604,1355.87027811604,1.0000197274092386,0.00010401178273758023
