time,time,flux,flux_err
1385.9533927969733,1385.9533927969733,1.0000510303615322,0.0002626998995938627
1385.9617262083393,1385.9617262083393,0.9999592497312021,0.00026272316873818794
1385.9700596196465,1385.9700596196465,1.000065299167437,0.00026271778653612495
1385.9783930308758,1385.9783930308758,0.9997896657496662,0.00026271338946580724
1385.9860319911688,1385.9860319911688,1.000095974805662,0.00023984218827632664
1385.9929765004774,1385.9929765004774,0.9997742974131641,0.00023980432255608767
1385.9999210097164,1385.9999210097164,1.0001775613878041,0.00023987783042093584
1386.0068655189557,1386.0068655189557,1.0002989921344685,0.00023988303496083745
1386.0138100281715,1386.0138100281715,1.0000058387049076,0.00023986253081862064
1386.0207545372937,1386.0207545372937,1.0001024913517134,0.00023987941838821627
1386.0276990464868,1386.0276990464868,0.9995807958892259,0.00023980403213877838
1386.0346435555862,1386.0346435555862,0.9999282807526715,0.00023987863363165527
1386.041588064592,1386.041588064592,1.0001897602647525,0.00023989459255675536
1386.0485325736452,1386.0485325736452,1.0000148618749891,0.0002398731466204836
1386.0554770826282,1386.0554770826282,1.0000017655013642,0.00023987615417022458
1386.0624215915873,1386.0624215915873,0.9997971207421485,0.0002398428938814651
1386.069366100524,1386.069366100524,1.0003969028464652,0.0002399247694166641
1386.0763106094141,1386.0763106094141,1.000074384124482,0.00023987942725267608
1386.08325511828,1386.08325511828,0.9998704217215776,0.00023987852153853164
1386.0901996271,1386.0901996271,0.9998818343746804,0.0002398747188571279
1386.0971441358738,1386.0971441358738,0.9997098695319933,0.0002398507792165687
1386.1040886446235,1386.1040886446235,1.0000893431116507,0.00023988235506404307
1386.111033153327,1386.111033153327,0.9999462455101614,0.0002398833031745874
1386.117977662031,1386.117977662031,1.000450422257566,0.0002399442506686741
1386.1249221706646,1386.1249221706646,1.0000120139785873,0.00023987899112433417
1386.1318666792745,1386.1318666792745,0.9999567231373367,0.00023987044866628418
1386.1388111878855,1386.1388111878855,0.9995978688029046,0.00023985491459220304
1386.1457556964262,1386.1457556964262,0.999901772013175,0.000239868215405864
1386.152700204943,1386.152700204943,1.0004661436026665,0.00023992346853818897
1386.1596447133911,1386.1596447133911,0.9999916560363683,0.0002398827718268189
1386.1665892218384,1386.1665892218384,1.0000438877649063,0.0002398974565443576
1386.1735337302384,1386.1735337302384,0.9996895889218935,0.00023986967753237865
1386.1804782386166,1386.1804782386166,0.9998887568705648,0.00023987310586793607
1386.187422746948,1386.187422746948,1.0004302824238374,0.00023994079371065326
1386.194367255255,1386.194367255255,0.9998166161182945,0.00023987003925557204
1386.2013117635397,1386.2013117635397,1.0000757645854943,0.00023989230843669807
1386.2082562717776,1386.2082562717776,0.9999322548338739,0.0002398996531450049
1386.215200779969,1386.215200779969,0.9997766361951372,0.00023987357762783436
1386.2221452881367,1386.2221452881367,1.0002345243638326,0.00023991824152717298
1386.229089796259,1386.229089796259,1.0001827464385855,0.00023991327540575334
1386.2360343043802,1386.2360343043802,0.9996850207391313,0.00023985706058234484
1386.2429788124311,1386.2429788124311,1.0000049596110112,0.00023988849791350486
1386.24992332046,1386.24992332046,1.0000879971435548,0.00023990949400584357
1386.2568678284422,1386.2568678284422,0.9999219438319592,0.00023989112927981772
1386.2638123364463,1386.2638123364463,0.9998228516693441,0.0002398632404810207
1386.2707568443589,1386.2707568443589,1.0000247243505043,0.0002398827032336486
1386.2777013522011,1386.2777013522011,0.9999362760730781,0.00023989160697275501
1386.2846458600893,1386.2846458600893,1.0002375218446373,0.00023991923990747478
1386.2915903679082,1386.2915903679082,1.0001637086451471,0.00023990627188417643
1386.298534875704,1386.298534875704,1.0001504824104017,0.00023990865439825937
1386.3054793834297,1386.3054793834297,0.9998888406611155,0.00023987546377945293
1386.3124238911546,1386.3124238911546,0.999984840516824,0.00023988474580257686
1386.3193683988573,1386.3193683988573,0.9995203663046116,0.00023981964276058735
1386.3263129064903,1386.3263129064903,1.00036648305742,0.00023991077502377793
1386.3332574140989,1386.3332574140989,0.9998107757392954,0.00023986164407196407
1386.3402019216853,1386.3402019216853,0.9999779415130382,0.00023986967246305158
1386.3471464292252,1386.3471464292252,1.000085841144114,0.00023988071212530958
1386.3540909367405,1386.3540909367405,1.0001820182057086,0.00023989858354111435
1386.3610354442103,1386.3610354442103,1.0000220625846983,0.0002398788292143283
1386.3690910728103,1386.3690910728103,0.9998884313860688,0.00023985441373301658
1386.376313360573,1386.376313360573,1.0000105381826967,0.00023986003554288382
1386.3832578679267,1386.3832578679267,0.9996406337365216,0.00023983355383102364
1386.3902023752566,1386.3902023752566,1.000180864229746,0.0002398611782316468
1386.3971468825166,1386.3971468825166,0.9999301580031592,0.00023984706704868595
1386.4040913897993,1386.4040913897993,1.0004624340761668,0.00023989653319429104
1386.4110358970368,1386.4110358970368,0.9999109639812385,0.00023985100562579526
1386.4179804042035,1386.4179804042035,0.9999665121714274,0.00023985275803371764
1386.42492491137,1386.42492491137,1.000084270263701,0.00023987420685510534
1386.4318694184906,1386.4318694184906,0.999763507910054,0.0002398329506093414
1386.4388139255648,1386.4388139255648,1.0001207950565152,0.0002398785880507097
1386.4457584326144,1386.4457584326144,0.9999519023697268,0.00023985120730241104
1386.4527029396652,1386.4527029396652,0.9998700812099347,0.00023986123580565168
1386.4596474466466,1386.4596474466466,0.9999053682501575,0.0002398579071383119
1386.4665919535798,1386.4665919535798,1.0001776017009827,0.000239886873880458
1386.4735364605137,1386.4735364605137,0.9999277844037048,0.00023985310794168743
1386.4804809673783,1386.4804809673783,1.0000373975413737,0.0002398721632889043
1386.4874254742658,1386.4874254742658,1.0001959777599612,0.00023989651400912
1386.4943699810365,1386.4943699810365,0.9999501829468815,0.000239858584077248
1386.5013144878078,1386.5013144878078,0.9998991438456685,0.0002398518970734566
1386.5082589945791,1386.5082589945791,0.9996870013990374,0.00023983160010919332
1386.5152035012795,1386.5152035012795,1.000038030901329,0.0002398780041812204
1386.5221480079579,1386.5221480079579,1.0002951790178618,0.00023989472933389316
1386.5290925145898,1386.5290925145898,1.0002292169308498,0.00023988801704866893
1386.5360370211974,1386.5360370211974,0.999939969986646,0.0002398490654541004
1386.5429815277819,1386.5429815277819,0.9996674269891347,0.00023984124418624034
1386.5499260342976,1386.5499260342976,1.0001459856993755,0.00023988703698942692
1386.556870540789,1386.556870540789,1.000135312781757,0.00023988473811018115
1386.5646483880462,1386.5646483880462,0.9998520659574476,0.00023984718210258568
1386.5721484549872,1386.5721484549872,0.9998754624657469,0.00023986615132938946
1386.5790929613859,1386.5790929613859,1.0000952534118492,0.00023989147148215643
1386.586037467737,1386.586037467737,0.9999950299035507,0.00023987196393371159
1386.5929819740659,1386.5929819740659,0.9998307294479053,0.0002398390210338191
1386.5999264803486,1386.5999264803486,0.9998904093259741,0.000239853657060861
1386.606870986607,1386.606870986607,1.0002119001597962,0.00023988661527130979
1386.6138154928426,1386.6138154928426,1.0002473829859864,0.00023990167051353225
1386.6207599990316,1386.6207599990316,1.000166822562375,0.00023988411753302893
1386.6277045051277,1386.6277045051277,0.9999457129299258,0.00023986330479167854
1386.6346490112696,1386.6346490112696,1.0001348896849418,0.0002398835119539398
1386.6415935173425,1386.6415935173425,0.9998999310382377,0.0002398513231189932
1386.6485380233921,1386.6485380233921,0.9995515023716827,0.00023979870146427655
1386.655482529394,1386.655482529394,0.9997874627976933,0.00023983788875539723
1386.6624270353739,1386.6624270353739,1.0000656456870523,0.000239871819981955
1386.669371541307,1386.669371541307,0.9999148342947105,0.00023985514190868473
1386.6763160472394,1386.6763160472394,1.0003391754956983,0.0002399144560243502
1386.6832605530794,1386.6832605530794,1.0002708489218175,0.0002398870097917262
1386.6902050589192,1386.6902050589192,0.999848030648274,0.0002398459847600318
1386.6971495647356,1386.6971495647356,0.9999380686369541,0.0002398498812235592
1386.7040940704817,1386.7040940704817,0.9996802369915228,0.00023983510451026056
1386.711038576229,1386.711038576229,1.00020584761497,0.00023989078892028504
1386.7179830819528,1386.7179830819528,1.000164887759561,0.00023988776709786024
1386.7249275875588,1386.7249275875588,1.0001543858745037,0.00023990186242923493
1386.7318720931657,1386.7318720931657,1.0000718314996497,0.00023988267996002732
1386.7388165987734,1386.7388165987734,1.0001002231952152,0.00023989600230370057
1386.7457611043799,1386.7457611043799,1.0000349105200304,0.00023987479404138654
1386.7527056098934,1386.7527056098934,0.9996751272091549,0.00023981941255209237
1386.7596501153846,1386.7596501153846,0.9996512991406321,0.00023983695318217
1386.766594620852,1386.766594620852,0.9999695356419174,0.00023987648483932475
1386.7743724669212,1386.7743724669212,0.999732261512752,0.00023985686628861524
1386.781872532721,1386.781872532721,1.0001116269858101,0.00023988650766242517
1386.7888170380725,1386.7888170380725,1.0000605598279355,0.00023988927122073266
1386.7957615433759,1386.7957615433759,1.0008145932429715,0.00023997182293825032
1386.802706048657,1386.802706048657,1.0003204067350353,0.0002398872561684549
1386.8096505539147,1386.8096505539147,0.999428466953411,0.00023983176670351356
1386.8165950591028,1386.8165950591028,1.000120716105745,0.00023988501543046017
1386.82353956429,1386.82353956429,1.0002057373754922,0.0002399120807414805
1386.8304840694086,1386.8304840694086,0.9993813414924073,0.00023981362209317677
1386.83742857455,1386.83742857455,0.9999207287241395,0.0002398814378027696
1386.8443730795743,1386.8443730795743,1.000243284686657,0.00023993310326165103
1386.8513175845992,1386.8513175845992,0.9997887325111765,0.00023987116429168421
1386.8582620896245,1386.8582620896245,1.0003777970585552,0.00023993106099666272
1386.8652065945791,1386.8652065945791,0.9996621759648472,0.00023986220812668809
1386.8721510995108,1386.8721510995108,1.0000474620679642,0.00023988694601158458
1386.8790956043963,1386.8790956043963,1.0001305449969609,0.00023990137856952522
1386.8860401092581,1386.8860401092581,1.0000131577793723,0.00023987842891089683
1386.892984614096,1386.892984614096,0.9997642665164899,0.00023983108300467375
1386.8999291188652,1386.8999291188652,1.0001044910398356,0.00023986498767268296
1386.9068736236575,1386.9068736236575,0.9997393637957191,0.00023983383719903694
1386.913818128333,1386.913818128333,1.0002639998943088,0.0002398799779689585
1386.9207626330547,1386.9207626330547,1.0000695274924531,0.0002398528452884333
1386.9277071377078,1386.9277071377078,1.0001087795505308,0.00023986614443226428
1386.9346516423136,1386.9346516423136,0.9997702006992203,0.00023980830569166034
1386.9415961468953,1386.9415961468953,1.0002938685970952,0.0002398798724237387
1386.948540651455,1386.948540651455,0.9998089414811405,0.00023985761447611447
1386.9554851559444,1386.9554851559444,1.0001966378766567,0.00023986899113835657
1386.9624296604566,1386.9624296604566,1.0002148768241201,0.00023989789251705626
1386.9693741648994,1386.9693741648994,1.000054033546545,0.00023987507682011333
1386.976318669296,1386.976318669296,0.9995835426006577,0.00023982189197325498
1386.9846520745343,1386.9846520745343,0.9998046462347562,0.00023985981980643705
1386.99159657886,1386.99159657886,1.000042863464854,0.00023987124891441253
1386.9985410831634,1386.9985410831634,0.9997560400500939,0.0002398533825801981
1387.0054855874207,1387.0054855874207,0.9998880172961213,0.00023984739110424644
1387.0124300916527,1387.0124300916527,1.0005286018587487,0.00023991139968186919
1387.019374595863,1387.019374595863,0.9997180748099126,0.00023983606456372822
1387.0263191000267,1387.0263191000267,1.0004351879702988,0.00023989141039258317
1387.0332636041203,1387.0332636041203,0.9998296300478984,0.0002398249044085454
1387.0402081082132,1387.0402081082132,1.0001188536039383,0.00023987591084008783
1387.0471526122842,1387.0471526122842,0.9998863095791357,0.00023983651031445874
1387.054097116285,1387.054097116285,0.9998299859531858,0.00023983310191316617
1387.0610416202846,1387.0610416202846,1.000286395139728,0.00023987914717540798
1387.0679861242384,1387.0679861242384,0.9998155816834118,0.0002398314917688899
1387.0749306281227,1387.0749306281227,0.9999379257932304,0.00023986045184698048
1387.0818751319835,1387.0818751319835,1.0000462167770876,0.00023984277874100867
1387.0888196358437,1387.0888196358437,1.000198567045374,0.0002398691076552255
1387.0957641397047,1387.0957641397047,0.9998243861984728,0.0002398275919389226
1387.1027086434492,1387.1027086434492,1.00030061815966,0.0002398782469537982
1387.1096531472162,1387.1096531472162,0.999957486648438,0.00023983902271402136
1387.116597650891,1387.116597650891,0.9996878323706939,0.0002398289760464559
1387.1235421545891,1387.1235421545891,0.9999561243863628,0.00023982351823514762
1387.1304866582168,1387.1304866582168,0.9999786612185458,0.00023985450337102895
1387.1374311618442,1387.1374311618442,1.000346634796199,0.00023987584500746823
1387.1443756654023,1387.1443756654023,0.9998605503532749,0.00023984111679126275
1387.151320168938,1387.151320168938,0.9998558641655894,0.00023984062103995038
1387.1582646724253,1387.1582646724253,0.9998088788105312,0.0002398461192930291
1387.1652091758901,1387.1652091758901,1.0001040467203555,0.00023986487658586645
1387.1721536793323,1387.1721536793323,1.0004007021600885,0.00023990078180808494
1387.1790981827276,1387.1790981827276,0.999998012413165,0.00023985446790013965
1387.1860426860517,1387.1860426860517,0.9999143838931657,0.00023983935667577943
1387.192987189424,1387.192987189424,1.0000025760129643,0.0002398707450756835
1387.199931692726,1387.199931692726,0.9997810503301311,0.000239847695566767
1387.2068761959579,1387.2068761959579,0.9998518033614691,0.00023985006464871873
1387.2138206991665,1387.2138206991665,1.0002101122279925,0.00023987929044025575
1387.2207652023524,1387.2207652023524,0.9997582689397376,0.00023981895906850735
1387.227709705515,1387.227709705515,1.0000990757896657,0.00023987157053677292
1387.2346542086066,1387.2346542086066,1.0004153479817082,0.00023992019541920303
1387.241598711699,1387.241598711699,0.9998167023171561,0.0002398390852055433
1387.2485432147455,1387.2485432147455,0.999962625110709,0.00023984756167203582
1387.255487717768,1387.255487717768,1.0000131577442586,0.000239851397073263
1387.2624322207434,1387.2624322207434,0.9999780394732077,0.0002398424199903011
1387.269376723673,1387.269376723673,1.000005149487582,0.00023986035325868063
1387.2763212265795,1387.2763212265795,1.0000078677531317,0.00023988082227249926
1387.2832657294616,1387.2832657294616,1.0001570521483865,0.00023988046598534874
1387.290210232298,1387.290210232298,0.999986779009013,0.00023987494585150565
1387.2971547351112,1387.2971547351112,0.9999510065473466,0.00023987928763909136
1387.3040992378544,1387.3040992378544,0.999885389898824,0.00023985113417382262
1387.3127104212908,1387.3127104212908,0.999977697484123,0.0002398741675731214
1387.320766044419,1387.320766044419,0.9999142605282344,0.000239859584975244
1387.327710547,1387.327710547,0.999708946899103,0.00023982150314577044
1387.3360439501648,1387.3360439501648,1.0001743960617175,0.00023988608181878176
1387.3429884527454,1387.3429884527454,1.0001818074968103,0.00023988356430949443
1387.35076629558,1387.35076629558,1.0001206548414137,0.00023989484498374556
1387.358266358282,1387.358266358282,1.0000853096006648,0.00023987302806215458
1387.3652108607457,1387.3652108607457,0.9999539140177671,0.00023987508033124745
1387.3721553631865,1387.3721553631865,1.0000868081053924,0.00023985636486696053
1387.3790998655807,1387.3790998655807,0.9996647976194254,0.00023983304838399457
1387.3860443679268,1387.3860443679268,0.9999957773421049,0.00023982650215004478
1387.3929888702517,1387.3929888702517,0.9998432084371961,0.000239827309339075
1387.3999333725292,1387.3999333725292,1.0000220598461314,0.00023983833043431305
1387.406877874783,1387.406877874783,0.9999647109827903,0.0002398277823119241
1387.4138223770137,1387.4138223770137,1.0001802028565134,0.00023985276069601
1387.4207668791753,1387.4207668791753,1.0000867645860412,0.0002398456965662162
1387.42771138129,1387.42771138129,1.0003421274041135,0.00023989189762721103
1387.4346558834038,1387.4346558834038,0.9998588917185739,0.00023982240256991972
1387.441600385518,1387.441600385518,0.9999621163825301,0.00023981885517615175
1387.4485448875869,1387.4485448875869,0.9997495577103253,0.00023980546324936595
1387.455489389585,1387.455489389585,1.0000413647423119,0.0002398506950338134
1387.4624338915592,1387.4624338915592,0.9995224085531396,0.0002398024509378158
1387.469378393511,1387.469378393511,0.9995059321718498,0.000239787117080952
1387.4763228954162,1387.4763228954162,1.0002512981295337,0.00023988983217271254
1387.4832673972974,1387.4832673972974,1.0002453589390086,0.00023988023210191572
1387.4902118991324,1387.4902118991324,1.0003304632932273,0.00023986768564119662
1387.4971564009213,1387.4971564009213,1.0002383584278953,0.000239881729493979
1387.5041009026868,1387.5041009026868,1.0002484878353741,0.0002398932840528022
1387.5110454044047,1387.5110454044047,0.9994363942143851,0.00023980525862131143
1387.5179899061236,1387.5179899061236,0.9997242977589845,0.0002398225352546859
1387.524934407773,1387.524934407773,1.0001890629829702,0.000239874476438131
1387.5318789093985,1387.5318789093985,1.0000675715728595,0.00023985645869234579
1387.5388234110003,1387.5388234110003,0.999972895035506,0.00023985743449933105
1387.5457679125793,1387.5457679125793,0.9998756979417633,0.0002398487602569874
1387.5527124141122,1387.5527124141122,1.0000563427639988,0.00023985961967175768
1387.559656915528,1387.559656915528,0.9998684270980721,0.0002398398377713215
1387.5666014170135,1387.5666014170135,1.0002336337844533,0.0002398661914278602
1387.5735459184298,1387.5735459184298,0.9998578193538907,0.00023979639750248402
1387.5804904198228,1387.5804904198228,0.9999830175022322,0.00023981825329519603
1387.587434921145,1387.587434921145,0.9999297044453777,0.0002398141255192463
1387.5943794224681,1387.5943794224681,0.9999094574865175,0.00023978610926348067
1387.601323923768,1387.601323923768,1.0002490963298625,0.0002398251197384081
1387.6082684249977,1387.6082684249977,1.0002068671639426,0.00023982702911711653
1387.6152129261802,1387.6152129261802,0.999430597767492,0.00023974542506335423
1387.622157427387,1387.622157427387,1.000352198514501,0.00023982301100424999
1387.6291019285009,1387.6291019285009,1.000006790871698,0.00023978987319953987
1387.636046429614,1387.636046429614,0.9999299309054586,0.0002397886994093951
1387.6429909306803,1387.6429909306803,1.0002582196287146,0.00023981374190963834
1387.6499354317243,1387.6499354317243,1.0000287394739675,0.00023982241691200475
1387.6568799326749,1387.6568799326749,0.9998010910564783,0.00023977770020167395
1387.6638244336243,1387.6638244336243,0.9997865898969721,0.0002398042472631989
1387.670768934575,1387.670768934575,1.0000361561317976,0.00023980626364753947
1387.677713435502,1387.677713435502,1.0006486562475974,0.0002398963576693842
1387.6846579363598,1387.6846579363598,0.9999327081492719,0.0002398001481054245
1387.6916024371696,1387.6916024371696,0.999372462964511,0.0002397457451234121
1387.6985469379572,1387.6985469379572,0.9997824861977851,0.00023981801174764082
1387.7054914387215,1387.7054914387215,0.9999206703820575,0.00023981234608876192
1387.7124359394393,1387.7124359394393,1.0003830874811508,0.00023986374529917417
1387.7193804401325,1387.7193804401325,0.9998780199010888,0.00023980995794675638
