time,time,flux,flux_err
1325.3020714880424,1325.3020714880424,0.9997602589794137,0.00029120857544339464
1325.3104048436944,1325.3104048436944,1.0000703974738692,0.0002913717395845465
1325.3187381992302,1325.3187381992302,1.0001742626288463,0.00029147969875236785
1325.326377108594,1325.326377108594,1.0000996489240952,0.000266092161642412
1325.3333215716616,1325.3333215716616,1.0001101355248911,0.00026622412544780825
1325.3402660347297,1325.3402660347297,0.9996175863695915,0.00026624746022417686
1325.3472104978441,1325.3472104978441,0.9999793146903457,0.0002663240648066595
1325.3541549609586,1325.3541549609586,1.000260121579772,0.00026639483895072246
1325.3610994241196,1325.3610994241196,1.0000129455973212,0.0002664677314942074
1325.3680438873741,1325.3680438873741,1.0002184507038023,0.00026654229974971174
1325.3749883505347,1325.3749883505347,0.9996119408190411,0.0002664883059844874
1325.3819328138356,1325.3819328138356,1.0003823115549635,0.000266603639944671
1325.38887727709,1325.38887727709,1.0003609864971168,0.00026664160029075035
1325.3958217403438,1325.3958217403438,0.999663904517506,0.0002666232895474468
1325.402766203691,1325.402766203691,1.000091017178584,0.00026667382922133194
1325.4097106670388,1325.4097106670388,0.9995290111210133,0.00026660767793815134
1325.416655130432,1325.416655130432,0.9997681778879983,0.0002666773508071803
1325.423599593873,1325.423599593873,0.9999729289827718,0.00026670436696997
1325.4305440572202,1325.4305440572202,0.9999604729070455,0.0002667045784078508
1325.437488520707,1325.437488520707,1.000261981685356,0.0002668045042752647
1325.4444329842406,1325.4444329842406,1.0002614594128627,0.0002667965721375787
1325.4513774477275,1325.4513774477275,1.0002268757078148,0.00026681511681642486
1325.4583219113078,1325.4583219113078,1.0001947133255693,0.00026685873598843586
1325.4652663748411,1325.4652663748411,0.9999040972034123,0.0002668304030949261
1325.4722108384678,1325.4722108384678,0.9998689403582237,0.0002668923558456629
1325.4791553020946,1325.4791553020946,1.0000003588546442,0.00026690902541556284
1325.4860997657213,1325.4860997657213,0.9996171588023064,0.00026695492045847297
1325.4930442293946,1325.4930442293946,0.9997209473181362,0.00026697807273453456
1325.4999886931146,1325.4999886931146,1.000507990370474,0.0002671219628624226
1325.5069331568807,1325.5069331568807,0.9998133168089645,0.00026708091144500405
1325.5138776206472,1325.5138776206472,1.0001339478706122,0.0002671564276705397
1325.5208220844138,1325.5208220844138,0.999732842884318,0.0002671762246031229
1325.5277665482265,1325.5277665482265,1.0000195348912562,0.00026722585726687506
1325.5347110120392,1325.5347110120392,1.000331718901174,0.00026730930712288374
1325.5416554758988,1325.5416554758988,0.999892683098016,0.00026724231103834645
1325.5485999398052,1325.5485999398052,0.9998025927144738,0.0002672831436777954
1325.5555444037109,1325.5555444037109,0.9999195245608471,0.0002673453033082875
1325.5624888677107,1325.5624888677107,0.9999803189168777,0.00026738712939870226
1325.56943333157,1325.56943333157,1.0003007866398796,0.00026744426437759836
1325.5763777956156,1325.5763777956156,1.0003519719661877,0.00026751234287032867
1325.5833222596616,1325.5833222596616,0.9999509105977002,0.0002674797015891797
1325.5902667237074,1325.5902667237074,1.0001354345730384,0.00026750525430813094
1325.5972111877531,1325.5972111877531,0.9994987955555228,0.00026746615358532485
1325.604155651799,1325.604155651799,1.0000151220692624,0.0002675736110270647
1325.611100115984,1325.611100115984,0.9997534691709055,0.00026754541481079574
1325.6180445801233,1325.6180445801233,1.0001148883981128,0.00026762597856963685
1325.6249890442618,1325.6249890442618,1.0000618087511168,0.0002675898876176148
1325.6319335084477,1325.6319335084477,1.0002239126898869,0.00026765579043621154
1325.63887797268,1325.63887797268,1.0000715297616578,0.00026763408239066953
1325.6458224369119,1325.6458224369119,0.9998700501541997,0.0002675981750152221
1325.6527669011907,1325.6527669011907,0.9997271038764677,0.00026757431722047767
1325.6597113654689,1325.6597113654689,0.9997138586984724,0.000267598972073447
1325.6666558297475,1325.6666558297475,0.9996662699652414,0.0002675517293438994
1325.6736002940727,1325.6736002940727,1.000783889832858,0.0002676929547230593
1325.6805447584447,1325.6805447584447,0.9999168136421437,0.0002676166523010225
1325.6874892228163,1325.6874892228163,1.000023274499326,0.0002676364764705354
1325.694433687188,1325.694433687188,0.9998038795907623,0.00026761763929250397
1325.7013781516066,1325.7013781516066,0.9999801678898125,0.00026764816022204326
1325.7083226160714,1325.7083226160714,0.9995929795042698,0.00026763752566487484
1325.7152670804896,1325.7152670804896,1.0002994540516525,0.00026769709027584865
1325.7222115450008,1325.7222115450008,1.0000595367475558,0.00026769383312771027
1325.7291560095125,1325.7291560095125,0.9998301336333206,0.0002677558258157821
1325.7361004740237,1325.7361004740237,1.0004622568462829,0.00026781887270642277
1325.7430449385818,1325.7430449385818,0.9997442664568595,0.0002677936617324893
1325.7499894030932,1325.7499894030932,0.9998805563624955,0.0002678657920561462
1325.7569338677447,1325.7569338677447,1.000389756508964,0.00026793269749901603
1325.7638783323025,1325.7638783323025,0.9997835034743758,0.00026789214376676893
1325.7708227968603,1325.7708227968603,0.99997763915412,0.0002679387764222789
1325.7777672616046,1325.7777672616046,0.9997184201717753,0.00026797780958593873
1325.7847117262559,1325.7847117262559,1.0004015427709523,0.00026811290003123366
1325.7916561908605,1325.7916561908605,0.999797797182981,0.00026804802605983664
1325.7986006556048,1325.7986006556048,0.9999744587151133,0.00026811307331726486
1325.8055451203024,1325.8055451203024,0.9998816429424746,0.0002681516369477006
1325.8124895850472,1325.8124895850472,1.0002535768889,0.0002682393577399512
1325.8194340497907,1325.8194340497907,1.0000264785010233,0.00026823898650283565
1325.8263785145355,1325.8263785145355,0.9997948195088388,0.00026825143783559076
1325.8333229793263,1325.8333229793263,1.0003010949027977,0.0002683289673631424
1325.8402674441172,1325.8402674441172,0.9998699129076453,0.0002683229124444293
1325.8472119089079,1325.8472119089079,1.0002618321156584,0.00026833123869656795
1325.854156373745,1325.854156373745,0.9998652734806516,0.00026833196274695124
1325.8611008386292,1325.8611008386292,0.9995594761270361,0.00026827870966353464
1325.8680453034665,1325.8680453034665,1.0001616470260841,0.000268312792687568
1325.8749897683508,1325.8749897683508,0.9997655354570896,0.00026825622685648566
1325.8819342332813,1325.8819342332813,1.0001004804451283,0.0002682974836008997
1325.8888786981188,1325.8888786981188,1.0002671441744257,0.00026822644895633184
1325.895823163049,1325.895823163049,0.9997196714117308,0.0002681801938949755
1325.9027676280264,1325.9027676280264,1.0004274656773868,0.0002682326041785174
1325.9097120929569,1325.9097120929569,1.0003263223567938,0.0002681766760744226
1325.916656557934,1325.916656557934,0.9997201360108947,0.00026810735365683316
1325.923601022911,1325.923601022911,0.9997216653818798,0.0002681073557083443
1325.9305454878884,1325.9305454878884,0.9997798079354963,0.00026811112249750695
1325.9374899529116,1325.9374899529116,0.9999418058680731,0.0002681420180765047
1325.9444344179356,1325.9444344179356,1.000309020629138,0.0002681519402144276
1325.9513788829595,1325.9513788829595,0.9998933780213294,0.0002681182338585378
1325.958323347983,1325.958323347983,1.0001730621096134,0.0002681611636446649
1325.9661011488786,1325.9661011488786,1.0005971950537593,0.00026823007093155436
1325.9736011711652,1325.9736011711652,0.9994819377091859,0.0002680880887353284
1325.9805456361892,1325.9805456361892,0.9998486529284426,0.0002681266218367614
1325.9874901013523,1325.9874901013523,0.9997374249168933,0.0002681332757357468
1325.9944345664226,1325.9944345664226,0.999745122447664,0.00026816776381770113
1326.0013790315397,1326.0013790315397,1.0002116400561236,0.0002682262889906905
1326.0083234967492,1326.0083234967492,1.0000093326469792,0.00026823725128887686
1326.0152679617267,1326.0152679617267,0.9999060795604052,0.000268279631713761
1326.0222124269364,1326.0222124269364,1.0001773242328449,0.0002683220519083102
1326.0291568921466,1326.0291568921466,1.0002281169862666,0.0002683646035458521
1326.0361013573565,1326.0361013573565,0.9997397508310503,0.0002683738181100301
1326.0430458225196,1326.0430458225196,0.9997743933366904,0.0002683408430158934
1326.0499902875436,1326.0499902875436,0.9997743117006452,0.00026836105898399136
1326.0569347527532,1326.0569347527532,0.9999670433161653,0.00026840094613031956
1326.0638792179634,1326.0638792179634,1.0000934922131448,0.0002684384604308331
1326.0708236831736,1326.0708236831736,1.0005705437663241,0.00026850539444113166
1326.077768148383,1326.077768148383,1.000116782771913,0.00026845648770652873
1326.08471261364,1326.08471261364,0.9999391449800404,0.0002684754861343224
1326.091657079036,1326.091657079036,0.9998536024238115,0.0002684899490121934
1326.0986015442463,1326.0986015442463,0.9998126372099442,0.00026848988350425685
1326.105546009456,1326.105546009456,0.9997420803564789,0.00026846086439350153
1326.1124904746657,1326.1124904746657,0.9998221028118832,0.0002684937733625603
1326.1194349398759,1326.1194349398759,1.0002340558798544,0.0002685506479103827
1326.1263794052716,1326.1263794052716,0.999820855459703,0.00026853518910895547
1326.1333238705288,1326.1333238705288,1.0002099137211797,0.0002685426091599274
1326.1402683357385,1326.1402683357385,1.0002622928258036,0.00026857364320144065
1326.147212801088,1326.147212801088,0.9999210946779298,0.0002685779165598417
1326.1541572663914,1326.1541572663914,1.0003720644736567,0.0002685805950288321
1326.1611017316013,1326.1611017316013,0.9998182699107143,0.0002685350621610743
1326.168046197044,1326.168046197044,0.9997053100317903,0.00026857219436568914
1326.174990662254,1326.174990662254,0.9999071471004923,0.0002685930569529118
1326.1819351276501,1326.1819351276501,1.0003186091269822,0.0002686186664107292
1326.1888795929065,1326.1888795929065,0.9998949062856749,0.0002685832881514214
1326.1958240582558,1326.1958240582558,1.0001024090102562,0.0002685938144168202
1326.2027685235594,1326.2027685235594,0.9999718040040035,0.00026863379533173743
1326.2097129889553,1326.2097129889553,0.9998060099861069,0.0002685756820067722
1326.216657454212,1326.216657454212,0.9996509661864639,0.0002685533107996815
1326.2236019196548,1326.2236019196548,1.000085537850199,0.00026859018936766237
1326.2305463849113,1326.2305463849113,1.000366888262164,0.0002686270031586801
1326.2374908503075,1326.2374908503075,1.000025884773179,0.0002685927568693966
1326.2444353156568,1326.2444353156568,1.0001391626279719,0.0002686067110902976
1326.2513797809606,1326.2513797809606,0.9999158574583381,0.00026857829781727236
1326.2583242463563,1326.2583242463563,0.9999138585379708,0.00026861324520520636
1326.2652687117063,1326.2652687117063,0.9998447803040091,0.0002685754631716759
1326.2722131770556,1326.2722131770556,0.999873722674516,0.00026857386956434537
1326.279157642452,1326.279157642452,1.0002247185516917,0.00026858703291225727
1326.2861021077554,1326.2861021077554,0.999888941123403,0.0002685724119228482
1326.2930465731513,1326.2930465731513,1.0000081567040051,0.00026854459177888984
1326.2999910385474,1326.2999910385474,1.0001884366294875,0.00026859839901410804
1326.3069355038504,1326.3069355038504,1.0002179304976802,0.0002685933773857735
1326.3138799692467,1326.3138799692467,0.9999071814407602,0.000268576262545225
1326.320824434643,1326.320824434643,1.0001599893760682,0.0002685974177078044
1326.3277688999926,1326.3277688999926,0.9998311282939284,0.0002686096670873535
1326.3347133653429,1326.3347133653429,0.9996866090602587,0.00026854360162702006
1326.3416578307383,1326.3416578307383,0.9996861920970765,0.00026862292154047706
1326.3491578533049,1326.3491578533049,1.0004309350718228,0.0002686743852836633
1326.3583245476148,1326.3583245476148,1.0000497679034372,0.0002686502467765367
1326.3652690129647,1326.3652690129647,1.0001612797222847,0.0002686804745882261
1326.3722134783607,1326.3722134783607,1.000206470141349,0.00026869942237646313
1326.3791579437104,1326.3791579437104,0.9993975325457157,0.0002686303322861505
1326.38610240906,1326.38610240906,1.0001220416432957,0.0002687191406936406
1326.393046874456,1326.393046874456,0.9999384631629098,0.00026873445473502174
1326.3999913398059,1326.3999913398059,1.0001228744565631,0.0002687695882660786
1326.4069358051556,1326.4069358051556,1.0000547250590404,0.0002687881488004448
1326.413880270552,1326.413880270552,1.0001471447771484,0.00026879808556602816
1326.4208247358551,1326.4208247358551,0.9998022296781256,0.00026876656707837686
1326.427769201251,1326.427769201251,1.000023123733118,0.00026878596137430054
1326.4347136666006,1326.4347136666006,1.0001211981274378,0.0002688353029233809
1326.4416581319038,1326.4416581319038,0.9995661272769463,0.0002687781229220001
1326.448602597347,1326.448602597347,1.000161357354577,0.0002688128758502551
1326.455547062603,1326.455547062603,0.9999528224056441,0.0002688628715444275
1326.4624915279994,1326.4624915279994,1.0000856833740048,0.0002688612981338023
1326.4694359933023,1326.4694359933023,0.9999760240232597,0.000268841759472254
1326.476380458652,1326.476380458652,1.0002239416093255,0.0002689392705404535
1326.4833249239555,1326.4833249239555,1.0003616192959863,0.00026898595518040424
1326.4902693893048,1326.4902693893048,0.9999154538517256,0.00026892173739530333
1326.4972138546082,1326.4972138546082,0.9999911230230438,0.0002689511003907062
1326.5041583199575,1326.5041583199575,0.999959901568733,0.0002689688543382129
1326.511102785214,1326.511102785214,0.9996343074721408,0.0002689627146952278
1326.5180472506104,1326.5180472506104,0.9999557886272982,0.0002690128855806729
1326.5249917158203,1326.5249917158203,0.9997794322322271,0.0002690040063937173
1326.5319361812167,1326.5319361812167,0.9998616454038828,0.00026907024256530866
1326.538880646473,1326.538880646473,0.9999140760729098,0.000269056102963231
1326.545825111683,1326.545825111683,1.0003311285144207,0.0002691772604263555
1326.5527695770793,1326.5527695770793,1.0001191219519283,0.000269156154256363
1326.5597140423356,1326.5597140423356,1.0003475736743557,0.00026921311159428343
1326.5666585075455,1326.5666585075455,1.0004667090845363,0.0002692230593785117
1326.5736029728023,1326.5736029728023,1.0000679902615812,0.0002691482077331723
1326.5805474381987,1326.5805474381987,1.00005423426984,0.00026915478870553325
1326.5874919034081,1326.5874919034081,0.9997129663545916,0.00026911850920049985
1326.5944363686183,1326.5944363686183,0.9999356663189832,0.00026914317021876064
1326.6013808338282,1326.6013808338282,0.9995877899537845,0.0002691283067657544
1326.6083252990381,1326.6083252990381,0.9998879444531301,0.00026919583595056985
1326.6152697642485,1326.6152697642485,1.0001918072761498,0.0002692212929728749
1326.6222142294578,1326.6222142294578,1.00002449262329,0.00026920305787738374
1326.6291586946681,1326.6291586946681,1.0002978435623118,0.000269267754796113
1326.6361031598776,1326.6361031598776,1.0004043049342966,0.00026927011035195083
1326.643047625088,1326.643047625088,0.9998835211117605,0.0002692175265618832
1326.6499920902977,1326.6499920902977,0.999692679988204,0.00026915562530625164
1326.656936555508,1326.656936555508,0.9999268658282208,0.00026919120503286775
1326.663881020718,1326.663881020718,0.9993817429238792,0.00026910761792713707
1326.6708254859275,1326.6708254859275,1.0004751448538372,0.00026926162656896134
1326.677769951138,1326.677769951138,1.0003037194468065,0.0002692215395131738
1326.684714416208,1326.684714416208,1.0001496406277606,0.0002691709873879414
1326.6927699957585,1326.6927699957585,0.9999249399099943,0.00026911754337668667
1326.6999922395767,1326.6999922395767,0.9997702450157557,0.00026911595358626746
1326.706936704647,1326.706936704647,0.9997362133649312,0.0002690649159310263
1326.7144367269807,1326.7144367269807,1.00029164981841,0.00026912206094012204
1326.7222145279227,1326.7222145279227,1.0002503486920369,0.0002690819106112366
1326.729158992993,1326.729158992993,0.9998186320779441,0.000269057012253797
1326.7361034581097,1326.7361034581097,1.0000869300182327,0.00026905782032283295
1326.7430479231803,1326.7430479231803,1.0001011741377825,0.00026900673085709464
1326.7499923882501,1326.7499923882501,0.999372895480669,0.0002689603913433434
1326.7569368533666,1326.7569368533666,1.0000332606069693,0.0002690372138276126
1326.7638813183444,1326.7638813183444,1.0001075591561104,0.0002690124474089955
1326.7708257834145,1326.7708257834145,0.9997813259954189,0.0002689526123133088
1326.777770248438,1326.777770248438,1.0004954364145537,0.0002690307642919438
1326.7847147134619,1326.7847147134619,1.000144710743467,0.0002690280341814027
1326.7916591784856,1326.7916591784856,0.9998866160440892,0.000268976087572114
1326.7986036434627,1326.7986036434627,1.0002461554903106,0.00026901304789802444
1326.8055481084398,1326.8055481084398,0.9995958739529376,0.00026894846348744344
1326.8124925734633,1326.8124925734633,0.999664134972357,0.00026895346009719173
1326.819437038394,1326.819437038394,1.000144763962023,0.0002690202965946999
1326.826381503371,1326.826381503371,0.9999054854602438,0.0002689751140430282
1326.8333259683016,1326.8333259683016,1.0003342686356698,0.00026902369672270217
1326.8402704332323,1326.8402704332323,0.9997689794821621,0.00026896742873412275
1326.8472148981627,1326.8472148981627,1.000026766706228,0.0002690185942662856
1326.8541593630932,1326.8541593630932,1.0006235406939956,0.0002690345731543511
1326.8611038279773,1326.8611038279773,0.999745550405209,0.00026890175096919497
1326.8680482928617,1326.8680482928617,1.0001382733679969,0.00026894075551967635
1326.8749927577453,1326.8749927577453,0.9998323867999931,0.0002689017818152532
1326.8819372226292,1326.8819372226292,0.9993821783913386,0.000268805233675859
1326.8888816874667,1326.8888816874667,0.9999235249157585,0.00026881282117775985
1326.895826152304,1326.895826152304,1.000232705810904,0.0002688211967039214
1326.9027706170953,1326.9027706170953,1.0003673429518078,0.00026880806266005015
1326.9097150819323,1326.9097150819323,1.0000422404807936,0.0002687194551467941
1326.9166595467698,1326.9166595467698,0.9999589975320522,0.0002687334065144169
1326.9236040115607,1326.9236040115607,1.0001699876848655,0.000268668206431704
1326.930548476305,1326.930548476305,1.0000900350733697,0.00026864071403511234
1326.937492941096,1326.937492941096,0.9997802990481641,0.0002685285559976899
1326.94443740584,1326.94443740584,1.000067411909581,0.0002685416145546878
1326.9513818705846,1326.9513818705846,1.0000622165249244,0.0002684867030148028
1326.9583263353288,1326.9583263353288,0.9995695324733422,0.0002684288847671861
1326.9652708000267,1326.9652708000267,1.0001055204130909,0.00026846783268967496
1326.9722152647241,1326.9722152647241,0.9999357142779747,0.00026837928242813965
1326.9791597294218,1326.9791597294218,1.0002183396041606,0.00026839511118059933
1326.9861041940735,1326.9861041940735,0.9999075503871848,0.00026832009638812156
1326.9930486587705,1326.9930486587705,1.0000227966352984,0.00026830950981973346
1326.9999931234222,1326.9999931234222,1.0000292602793868,0.00026829905107115886
1327.0069375880732,1327.0069375880732,1.0001108026546546,0.00026833033366408345
1327.013882052678,1327.013882052678,0.9998114584754216,0.0002682313555944991
1327.0208265171893,1327.0208265171893,1.0000731444062794,0.0002682709974363454
1327.0277709818404,1327.0277709818404,1.0001237022569989,0.00026826140103660816
1327.0347154463986,1327.0347154463986,0.9999215287551365,0.000268259833528607
1327.0416599109562,1327.0416599109562,0.9998178131390286,0.0002682690046405142
1327.0486043755147,1327.0486043755147,0.9998931890063549,0.0002682603846402392
1327.055548840026,1327.055548840026,1.0002979990750709,0.00026829213864697113
1327.0633266403163,1327.0633266403163,1.000016014359015,0.0002682720253044239
