time,time,flux,flux_err
1325.2997043604698,1325.2997043604698,0.9999910435920581,0.00036461664374171944
1325.3080376551586,1325.3080376551586,1.0003926770725164,0.0003647099107705491
1325.3163709500907,1325.3163709500907,1.000082180518232,0.00036466461721139387
1325.3247042452597,1325.3247042452597,0.99971181875538,0.00036466161708042166
1325.3323430993805,1325.3323430993805,0.9996906136231759,0.0003329354246899621
1325.3392875123782,1325.3392875123782,0.9999135024164063,0.00033302255121899236
1325.346231925545,1325.346231925545,0.9993502147939941,0.0003329581459266998
1325.3531763388742,1325.3531763388742,0.9997932789821717,0.00033312655016696005
1325.3601207523607,1325.3601207523607,1.0003945274132149,0.000333275574957048
1325.3670651660166,1325.3670651660166,1.0005365118182208,0.00033338428464012873
1325.3740095798173,1325.3740095798173,1.0003440931709684,0.00033341958341466326
1325.3809539937815,1325.3809539937815,1.000298670144733,0.0003335010751624897
1325.3878984078965,1325.3878984078965,0.9997548520522127,0.00033352152684558916
1325.3948428221686,1325.3948428221686,1.000357947186476,0.0003337100636585246
1325.4017872365869,1325.4017872365869,0.9993958953779385,0.0003336658654596707
1325.408731651156,1325.408731651156,0.9997654747554311,0.00033376221773864735
1325.4156760658766,1325.4156760658766,0.9998843084182383,0.00033386701437148773
1325.4226204807428,1325.4226204807428,1.0001396876834039,0.00033399144414975875
1325.4295648957604,1325.4295648957604,0.9997305390170501,0.0003340586992614149
1325.4365093109175,1325.4365093109175,1.0000210472040874,0.0003341708985892228
1325.44345372622,1325.44345372622,1.000395927562945,0.000334284407079639
1325.4503981416624,1325.4503981416624,0.9997736665515629,0.00033422808820439263
1325.4573425572446,1325.4573425572446,1.0000851021242578,0.0003343151042902864
1325.464286972972,1325.464286972972,1.0000462430765862,0.00033438941761468224
1325.4712313888335,1325.4712313888335,1.0000933592596852,0.00033448268131149354
1325.4781758048407,1325.4781758048407,0.9999038999054779,0.0003345529471384096
1325.4851202209638,1325.4851202209638,0.999696083011856,0.0003346120780790243
1325.4920646372389,1325.4920646372389,1.000178948701203,0.0003347919131868792
1325.499009053636,1325.499009053636,1.0006553572360795,0.0003349509487911329
1325.5059534701784,1325.5059534701784,1.0000756285907886,0.00033497951687916794
1325.5128978868313,1325.5128978868313,0.9996534192777634,0.0003349831788947547
1325.5198423036359,1325.5198423036359,0.9994575938236583,0.00033510715440813766
1325.526786720551,1325.526786720551,0.9996897326451292,0.0003352473509193741
1325.533731137594,1325.533731137594,1.0007441258055652,0.0003354425573226951
1325.5406755547708,1325.5406755547708,1.0000067448878731,0.0003354536820495593
1325.5476199720704,1325.5476199720704,0.9997620386471123,0.00033550850878136967
1325.5545643894857,1325.5545643894857,1.0001646815462604,0.0003356389147630167
1325.5615088070297,1325.5615088070297,0.9997997277664059,0.00033567318302703166
1325.5684532246898,1325.5684532246898,0.9997273170419536,0.0003357424462517578
1325.575397642472,1325.575397642472,1.0003363385145883,0.00033589242786529323
1325.5823420603713,1325.5823420603713,0.9997680322252528,0.00033587353680760844
1325.5892864783796,1325.5892864783796,1.0002454969966827,0.0003360241230848692
1325.5962308965177,1325.5962308965177,1.0001316612997542,0.0003360698418999852
1325.6031753147595,1325.6031753147595,1.0001126940267255,0.0003361219120791928
1325.6101197331184,1325.6101197331184,1.0003058492923,0.0003361875933014694
1325.6170641515816,1325.6170641515816,0.9995333253624322,0.0003361450998390301
1325.6240085701615,1325.6240085701615,1.0000229145179136,0.0003362163169307066
1325.630952988846,1325.630952988846,0.9998907823819954,0.0003362309965710247
1325.6378974076472,1325.6378974076472,1.000064950149422,0.00033627264633119146
1325.6448418265584,1325.6448418265584,1.0001615376713144,0.0003362838956808646
1325.6517862455632,1325.6517862455632,0.9999079310705721,0.00033627067468708957
1325.6587306646843,1325.6587306646843,0.9996528938491703,0.0003362600945907809
1325.6656750838988,1325.6656750838988,1.0003361431104874,0.0003363143082289776
1325.672619503229,1325.672619503229,0.9998388178536232,0.0003362852734757957
1325.6795639226473,1325.6795639226473,0.9996576602447359,0.00033621274049694204
1325.6865083421758,1325.6865083421758,1.0003709527729983,0.000336334308036323
1325.6934527618089,1325.6934527618089,1.0000765229041537,0.0003363238001351587
1325.7003971815302,1325.7003971815302,0.99985042189198,0.00033631347265077754
1325.7073416013495,1325.7073416013495,0.9999734336905768,0.0003363831589507444
1325.714286021262,1325.714286021262,1.0003871762738303,0.00033644634157569005
1325.7212304412794,1325.7212304412794,1.0004578776573616,0.000336521860915584
1325.7281748613846,1325.7281748613846,0.9993820513809123,0.00033641205134643325
1325.7351192815881,1325.7351192815881,0.9997467953218642,0.00033648085600641127
1325.7420637018736,1325.7420637018736,1.0001635882342133,0.00033659964409942953
1325.7490081222634,1325.7490081222634,0.9999667876615348,0.00033660753172130056
1325.7559525427353,1325.7559525427353,1.0002311022889303,0.0003366757009266879
1325.7628969632997,1325.7628969632997,0.9997504845734602,0.00033671524359076704
1325.7698413839516,1325.7698413839516,0.9997737876690753,0.0003367754277176137
1325.7767858046911,1325.7767858046911,1.000230388873333,0.0003369066341281869
1325.7837302255177,1325.7837302255177,1.000503147018518,0.00033695647542356544
1325.7906746464316,1325.7906746464316,0.9999269809446675,0.00033691725320389465
1325.797619067421,1325.797619067421,0.9996160869900311,0.000336924524283627
1325.8045634885154,1325.8045634885154,0.9995910291387581,0.000336936648508026
1325.8115079096738,1325.8115079096738,1.0002649331301376,0.00033710371675584977
1325.818452330914,1325.818452330914,0.9999714582170898,0.00033709646513559806
1325.825396752241,1325.825396752241,1.0000764316166746,0.00033715676945853315
1325.8323411736437,1325.8323411736437,1.0004659178212298,0.00033721475713032313
1325.839285595134,1325.839285595134,0.9997941358095209,0.0003371397552752061
1325.8462300166998,1325.8462300166998,0.9999703658459577,0.000337163715562349
1325.8531744383467,1325.8531744383467,0.9998590304411745,0.0003371355704176771
1325.8601188600585,1325.8601188600585,1.0001870005755855,0.00033713964439543347
1325.867063281863,1325.867063281863,0.9994919126535262,0.00033701736133327033
1325.87400770372,1325.87400770372,1.000048421058295,0.0003370136167187218
1325.8809521256699,1325.8809521256699,1.0000510657145534,0.0003369537719570431
1325.8878965476838,1325.8878965476838,1.0002751078029308,0.00033692396099479783
1325.8948409697678,1325.8948409697678,1.0001202452602684,0.0003368686182948932
1325.9017853919331,1325.9017853919331,1.0001072519418654,0.0003367806664334883
1325.9087298141626,1325.9087298141626,1.0000089408048758,0.0003367717810780212
1325.9156742364676,1325.9156742364676,1.0001311847633287,0.0003367019549325099
1325.9226186588423,1325.9226186588423,0.9995670177281306,0.00033662046083063194
1325.9295630812817,1325.9295630812817,1.000014595835506,0.00033665952009544843
1325.9365075037902,1325.9365075037902,0.9997076337931151,0.00033661043762393063
1325.943451926363,1325.943451926363,1.0000310681733127,0.00033661656195450016
1325.950396349012,1325.950396349012,0.9999753241723838,0.0003365869258535201
1325.9573407717185,1325.9573407717185,1.0004853398008275,0.0003366787393340656
1325.9653963021417,1325.9653963021417,1.000603858971832,0.0003367170683401181
1325.9726185019142,1325.9726185019142,0.9989349640819931,0.00033647113565541244
1325.9795629248188,1325.9795629248188,1.0005979772872942,0.000336669099976197
1325.9865073477872,1325.9865073477872,0.9999637519949289,0.0003366171434648296
1325.9934517708373,1325.9934517708373,0.9993242543388107,0.0003365617483703043
1326.0003961939342,1326.0003961939342,0.9998250291968821,0.00033661276081094064
1326.007340617089,1326.007340617089,1.0001044220184714,0.00033670087631721557
1326.014285040314,1326.014285040314,1.0006603012773545,0.0003368296784939219
1326.0212294635912,1326.0212294635912,0.9998926733445801,0.0003367991252602256
1326.0281738869326,1326.0281738869326,1.000388726135527,0.00033691686634589626
1326.0351183103317,1326.0351183103317,0.9996563411384234,0.00033681520340008494
1326.042062733789,1326.042062733789,1.0001440350405395,0.00033684004103436865
1326.0490071572992,1326.0490071572992,0.9995599174930845,0.00033676849264821924
1326.0559515808495,1326.0559515808495,1.0001458150752,0.00033679939794610634
1326.0628960044821,1326.0628960044821,0.9999186286700613,0.00033683545008524713
1326.069840428155,1326.069840428155,0.9997404202427171,0.0003368354698456207
1326.0767848518858,1326.0767848518858,0.9997977628981994,0.0003368502045422963
1326.0837292756755,1326.0837292756755,1.0003757171779597,0.0003369262110891737
1326.090673699506,1326.090673699506,1.0000400690404423,0.00033690464509562407
1326.0976181233998,1326.0976181233998,1.000765323511123,0.0003370044954391277
1326.104562547341,1326.104562547341,1.0000621548203625,0.0003369759792574875
1326.1115069713276,1326.1115069713276,1.0002045423166002,0.00033694759830303514
1326.1184513953735,1326.1184513953735,0.9999353791052179,0.0003369172364662928
1326.125395819471,1326.125395819471,0.9993641692440132,0.0003368274156050859
1326.132340243616,1326.132340243616,0.9995918795346805,0.0003368559516567168
1326.1392846678068,1326.1392846678068,0.999371283750088,0.00033678935124622285
1326.1462290920504,1326.1462290920504,0.9996187188358785,0.0003368681576516188
1326.15317351634,1326.15317351634,1.0005735815054198,0.00033696603066566306
1326.1601179406707,1326.1601179406707,1.0004372428371884,0.0003369737863009513
1326.1670623650596,1326.1670623650596,1.0005157868373065,0.000336931360079707
1326.1740067894832,1326.1740067894832,1.000102675230871,0.0003368839062092871
1326.1809512139598,1326.1809512139598,1.0002436899826104,0.0003368646988322636
1326.1878956384826,1326.1878956384826,0.9997905398182038,0.00033677345589455064
1326.194840063046,1326.194840063046,1.0000215765843146,0.0003368083413516149
1326.2017844876505,1326.2017844876505,0.999782708070611,0.00033675770447075883
1326.2087289123128,1326.2087289123128,0.99961765143231,0.0003367562126741031
1326.2156733369986,1326.2156733369986,0.9998438748713353,0.0003367979943725622
1326.2226177617426,1326.2226177617426,0.9999691587870773,0.0003367960635068863
1326.2295621865155,1326.2295621865155,0.9998157921126977,0.00033671840584313607
1326.2365066113412,1326.2365066113412,1.0002756744974235,0.00033682328481966155
1326.2434510362127,1326.2434510362127,0.9999569515509827,0.0003367564712501264
1326.2503954611143,1326.2503954611143,1.000538036075918,0.00033681863748615773
1326.2573398860561,1326.2573398860561,1.0004626674184165,0.0003368210820367555
1326.2642843110448,1326.2642843110448,0.9993569771810564,0.0003366406471617495
1326.2712287360741,1326.2712287360741,1.0001727175195871,0.00033669729386274605
1326.278173161132,1326.278173161132,0.9999400308751116,0.0003366741110191453
1326.285117586231,1326.285117586231,0.9992409670997409,0.00033655803825168544
1326.292062011371,1326.292062011371,0.9998307444358989,0.0003366482898416176
1326.2990064365576,1326.2990064365576,1.000347806708379,0.00033672517860085656
1326.305950861761,1326.305950861761,1.0005776402881967,0.00033677793437613887
1326.3128952870177,1326.3128952870177,1.000003425337824,0.00033668533175981464
1326.3198397123026,1326.3198397123026,0.9999019227267413,0.0003366967240350522
1326.3267841376169,1326.3267841376169,1.0004326005150168,0.0003367838022003686
1326.3337285629898,1326.3337285629898,0.9999527553509567,0.00033670899469102173
1326.3406729883857,1326.3406729883857,0.9999455989014272,0.0003367440592195597
1326.3487285218823,1326.3487285218823,0.9993931098564962,0.00033668825883370363
1326.3573396094694,1326.3573396094694,0.9997744123068862,0.00033675705711236337
1326.3642840349762,1326.3642840349762,1.0000630215341422,0.0003368241910369577
1326.3712284605292,1326.3712284605292,1.0005496225776525,0.00033689699217278755
1326.3781728861,1326.3781728861,1.0001768923194017,0.00033688896891117127
1326.3851173117052,1326.3851173117052,0.9993523277894305,0.0003368134982347773
1326.3920617373512,1326.3920617373512,1.000297011546631,0.00033694402110752924
1326.399006163027,1326.399006163027,0.9995735520408404,0.00033682061533960055
1326.405950588731,1326.405950588731,1.0001355389938342,0.00033692313189424676
1326.412895014465,1326.412895014465,1.0007081031263034,0.0003370290564357347
1326.4198394402272,1326.4198394402272,0.9997712407965024,0.0003369117771331526
1326.426783866031,1326.426783866031,1.000029498355319,0.00033699639038419784
1326.4337282918573,1326.4337282918573,0.9997538376888379,0.00033695996681356547
1326.4406727177131,1326.4406727177131,1.000325506605369,0.00033704554582726735
1326.447617143598,1326.447617143598,0.9999221717137232,0.00033701227623457485
1326.454561569506,1326.454561569506,0.9998210346317299,0.0003370148531895614
1326.4615059954608,1326.4615059954608,1.0000684971147087,0.00033709307420420805
1326.4684504214272,1326.4684504214272,0.9994633933009041,0.0003370207558006824
1326.4753948474283,1326.4753948474283,1.0001138177445748,0.0003371310140337678
1326.4823392734531,1326.4823392734531,1.0000789474648075,0.0003371244888512484
1326.4892836995123,1326.4892836995123,0.9997208550850176,0.00033710562442287894
1326.4962281255894,1326.4962281255894,1.0008954674330597,0.00033726312481761515
1326.503172551701,1326.503172551701,0.9999019087181246,0.0003371317846326771
1326.5101169778306,1326.5101169778306,0.9997957151350191,0.000337149292330274
1326.5170614039948,1326.5170614039948,0.9998185004060589,0.00033713679940501336
1326.5240058301881,1326.5240058301881,0.9995938266148945,0.0003371295019715415
1326.5309502563991,1326.5309502563991,1.0006825844517044,0.0003373326307523024
1326.5378946826272,1326.5378946826272,0.9998287220727595,0.00033720569666097195
1326.544839108885,1326.544839108885,0.9997404599323513,0.00033723937042460676
1326.5517835351711,1326.5517835351711,1.0000535460732813,0.00033728958667713125
1326.558727961481,1326.558727961481,1.0000319722891036,0.00033734698123464516
1326.565672387808,1326.565672387808,1.0003288107765846,0.0003373757193449411
1326.5726168141643,1326.5726168141643,0.9995498762138866,0.0003372730735975749
1326.57956124055,1326.57956124055,1.0003340709974373,0.000337368311112005
1326.5865056669527,1326.5865056669527,1.0001403484345954,0.00033738487382257846
1326.5934500933733,1326.5934500933733,0.9999887918868181,0.00033740106864573426
1326.6003945198229,1326.6003945198229,1.0004534627513297,0.0003374510132044753
1326.6073389462895,1326.6073389462895,0.9995602387805121,0.00033736563606837175
1326.6142833727918,1326.6142833727918,0.9999767391866294,0.00033747006355266
1326.6212277992931,1326.6212277992931,0.9998144496956897,0.00033746441772611357
1326.6281722258304,1326.6281722258304,0.9996495240877705,0.0003373996706973767
1326.6351166523843,1326.6351166523843,1.0002021973307547,0.0003375091440200879
1326.6420610789562,1326.6420610789562,1.0001714788280547,0.00033750236938764563
1326.649005505551,1326.649005505551,0.9996450431653336,0.0003374187649755296
1326.6559499321693,1326.6559499321693,1.000367370076146,0.0003374837325237017
1326.6628943587996,1326.6628943587996,0.9999292485358694,0.0003374059431522585
1326.669838785458,1326.669838785458,1.0002728958198333,0.00033739959625364785
1326.676783212135,1326.676783212135,0.999934832278407,0.00033734905576656755
1326.6837276388287,1326.6837276388287,0.9996476435026442,0.0003372562826026872
1326.692060950887,1326.692060950887,1.0001345068785898,0.00033731748618081843
1326.6990053776217,1326.6990053776217,0.9998381479297818,0.0003372354186506646
1326.7059498043736,1326.7059498043736,1.0001278369941031,0.00033720531855150184
1326.7137275623704,1326.7137275623704,1.000009432368198,0.0003372516998501071
1326.721227543307,1326.721227543307,0.9998913659830647,0.0003371701403288611
1326.7281719701054,1326.7281719701054,1.0003158250242417,0.0003372041489033312
1326.735116396933,1326.735116396933,0.9998352618490779,0.00033711795296674686
1326.7420608237785,1326.7420608237785,1.0002498066111136,0.0003370994799057124
1326.7490052506469,1326.7490052506469,1.000182752980289,0.00033711201006793843
1326.7559496775214,1326.7559496775214,0.9991503891906219,0.0003369555683148984
1326.762894104419,1326.762894104419,1.0002539484977422,0.00033708115608873117
1326.7698385313224,1326.7698385313224,0.9999732479479011,0.0003370280227779732
1326.7767829582608,1326.7767829582608,1.0000924941466984,0.0003370428242326008
1326.7837273851994,1326.7837273851994,1.000130984038066,0.0003370290007022386
1326.7906718121556,1326.7906718121556,0.9996337793385826,0.0003370174760475461
1326.7976162391228,1326.7976162391228,1.000340349070746,0.00033706113596944576
1326.804560666114,1326.804560666114,1.0002768743564385,0.0003370827020815179
1326.8115050931215,1326.8115050931215,1.0000331253298718,0.00033708662183246964
1326.8184495201358,1326.8184495201358,1.0000039151043123,0.00033708724164787393
1326.8253939471674,1326.8253939471674,0.9998564524328911,0.0003370618862994823
1326.8323383742168,1326.8323383742168,0.9996557517852969,0.0003370228034617668
1326.8392828012772,1326.8392828012772,1.0001424655310498,0.00033708296398782175
1326.8462272283437,1326.8462272283437,1.0000944965418896,0.0003371215759499416
1326.8531716554394,1326.8531716554394,1.0001489266271655,0.000337120563369751
1326.8601160825406,1326.8601160825406,0.9996045399540158,0.0003369995003650992
1326.8670605096597,1326.8670605096597,1.0004121368653758,0.0003370651060917218
1326.8740049367843,1326.8740049367843,0.9997910826853811,0.0003369739449720674
1326.8809493639264,1326.8809493639264,0.9993384883954066,0.0003368415966747003
1326.8878937910745,1326.8878937910745,1.0006346635997745,0.00033696653130217073
1326.8948382182452,1326.8948382182452,1.0003977476481976,0.0003368421127763177
1326.9017826454228,1326.9017826454228,0.9999217669472007,0.0003367058665497294
1326.9087270726113,1326.9087270726113,0.9994675874718769,0.0003366072981747342
1326.9156714998176,1326.9156714998176,1.0000244521257255,0.0003366258096380517
1326.9226159270238,1326.9226159270238,0.9998644015514836,0.00033651719064432264
1326.9295603542532,1326.9295603542532,1.0005079635162297,0.0003365177683529384
1326.9365047814827,1326.9365047814827,1.0000960930560283,0.0003364225044222913
1326.9434492087407,1326.9434492087407,0.9997435620393492,0.0003363156562359967
1326.950393635994,1326.950393635994,1.0005209157155472,0.0003363667743401188
1326.9573380632696,1326.9573380632696,0.9998779477010593,0.0003362314431821226
1326.9642824905463,1326.9642824905463,0.9994806519353044,0.000336109541590401
1326.9712269178394,1326.9712269178394,1.0000349263542145,0.00033616106839601376
1326.9781713451443,1326.9781713451443,0.9998727935569877,0.0003360720445964515
1326.98511577245,1326.98511577245,1.0001139825554015,0.00033606168124059217
1326.9920601997724,1326.9920601997724,0.9999282176277958,0.00033605165842992915
1326.9990046271007,1326.9990046271007,0.9999427457998225,0.0003359600493408894
1327.0059490544409,1327.0059490544409,1.0006496725464502,0.0003360922494149486
1327.0128934817926,1327.0128934817926,0.9997973888257004,0.00033595339931379774
1327.0198379091441,1327.0198379091441,0.9999334259228171,0.00033591996238745825
1327.0267823365134,1327.0267823365134,0.9997461804631882,0.000335915187621477
1327.0337267638884,1327.0337267638884,0.9996289013109532,0.0003358799426364246
1327.0406711912865,1327.0406711912865,1.0001349014236947,0.00033595302051423744
1327.0476156186733,1327.0476156186733,1.0001509546354348,0.0003359433024163851
1327.0545600460773,1327.0545600460773,1.0001617160458196,0.0003359416923883955
1327.0626155818732,1327.0626155818732,1.0003531067981104,0.0003360119081088762
