time,time,flux,flux_err
1325.3003130377228,1325.3003130377228,0.9999685016911818,0.0002955504210525047
1325.3086463860209,1325.3086463860209,0.9997928148689228,0.00029547466053471774
1325.3169797344942,1325.3169797344942,1.0003306908868146,0.0002956104698272217
1325.324618637424,1325.324618637424,0.999968992913271,0.0002698084493818182
1325.331563094764,1325.331563094764,1.0001055412765312,0.0002698782335634728
1325.338507552221,1325.338507552221,1.0003018448914063,0.0002699467649608612
1325.3454520098408,1325.3454520098408,1.0001515311011182,0.00026997495463649017
1325.352396467507,1325.352396467507,1.0003725548370501,0.0002700776147744002
1325.359340925336,1325.359340925336,1.000177314626149,0.00027011644154261425
1325.3662853832818,1325.3662853832818,0.9997434314808956,0.00027012719918246235
1325.3732298413438,1325.3732298413438,0.9998026924622998,0.00027020622830619556
1325.3801742994524,1325.3801742994524,0.9999319299055396,0.0002702968069201157
1325.3871187577938,1325.3871187577938,0.9998337801511885,0.00027036576449534616
1325.3940632161816,1325.3940632161816,0.999875397618203,0.00027045266163183484
1325.4010076747095,1325.4010076747095,1.0002830121157398,0.00027058085984702927
1325.4079521333304,1325.4079521333304,0.9999458520746838,0.00027059204603696265
1325.4148965920908,1325.4148965920908,1.0002333815534599,0.0002706931662439976
1325.4218410509213,1325.4218410509213,0.9997522444573,0.0002706856124009392
1325.4287855098678,1325.4287855098678,1.0000430535396887,0.00027078564762377
1325.4357299689543,1325.4357299689543,0.9999348203900643,0.00027083932082814025
1325.4426744281109,1325.4426744281109,0.9998704651961037,0.00027087515945445903
1325.4496188874068,1325.4496188874068,1.000212573563923,0.00027096244022157715
1325.4565633467962,1325.4565633467962,1.0003737795800616,0.00027104941010827805
1325.463507806255,1325.463507806255,0.9998276015018037,0.00027106204626361656
1325.4704522658537,1325.4704522658537,0.9999895559385079,0.00027112263791739957
1325.4773967255455,1325.4773967255455,0.9998570295767394,0.0002711649517589722
1325.4843411853537,1325.4843411853537,0.9999682939139507,0.00027125409494728876
1325.4912856452552,1325.4912856452552,0.9995939815711828,0.0002712799223449291
1325.4982301052266,1325.4982301052266,1.0001205878084065,0.0002714214882641372
1325.5051745653377,1325.5051745653377,1.0000015373343625,0.0002714781126281314
1325.5121190254954,1325.5121190254954,1.0001248893721055,0.0002715682922342107
1325.5190634857922,1325.5190634857922,1.0000212927992427,0.00027167044332987813
1325.5260079461827,1325.5260079461827,1.0004794747646493,0.00027176935391782034
1325.5329524066194,1325.5329524066194,1.0003057736682124,0.0002718305494361494
1325.539896867196,1325.539896867196,0.9997577581432988,0.00027182210386839263
1325.546841327866,1325.546841327866,0.9999635917953673,0.00027192265573040884
1325.5537857886052,1325.5537857886052,0.9994738083915726,0.0002719444916696702
1325.5607302494384,1325.5607302494384,0.999504432897482,0.0002719787388245639
1325.567674710364,1325.567674710364,1.0001761710434738,0.0002721362465111498
1325.5746191714063,1325.5746191714063,1.0000430364292108,0.00027218613759464786
1325.581563632449,1325.581563632449,1.0000713213882135,0.0002722379357907301
1325.5885080937,1325.5885080937,1.0002768128845663,0.0002723146250170141
1325.595452554952,1325.595452554952,1.0003036390507616,0.00027233949043731687
1325.6023970162971,1325.6023970162971,1.0001524373233752,0.0002723506239702528
1325.6093414777586,1325.6093414777586,0.9998608541922298,0.00027237134430755343
1325.6162859392666,1325.6162859392666,0.9998277494579948,0.00027238484921133713
1325.6232304008909,1325.6232304008909,1.0000221026025773,0.0002723899477082509
1325.6301748626083,1325.6301748626083,0.9999671836558429,0.0002723951653376161
1325.6371193243258,1325.6371193243258,0.9995895850734826,0.00027235856873242823
1325.6440637861829,1325.6440637861829,1.0000759675344921,0.0002724346326292826
1325.65100824811,1325.65100824811,1.000261752178155,0.0002724712071528475
1325.6579527100835,1325.6579527100835,1.0002086429059769,0.000272457457280342
1325.6648971721736,1325.6648971721736,0.9998700896374023,0.0002723969366891958
1325.6718416343333,1325.6718416343333,1.0001314942283788,0.0002724341203117757
1325.6787860965865,1325.6787860965865,0.9998285007154598,0.00027241537096825115
1325.685730558886,1325.685730558886,1.0000947959069335,0.0002724027650708463
1325.6926750212322,1325.6926750212322,0.9999280433666884,0.0002724210607588485
1325.6996194836715,1325.6996194836715,0.999813488328304,0.0002723879218343358
1325.7065639461807,1325.7065639461807,0.9997499279861003,0.00027237579237663354
1325.7135084087827,1325.7135084087827,1.0001050923233676,0.00027244564154620533
1325.7204528714549,1325.7204528714549,0.9995922686804667,0.0002724113025676546
1325.7273973341735,1325.7273973341735,1.0004393865472117,0.0002725387719029504
1325.734341796985,1325.734341796985,1.0000820165106739,0.000272508866398244
1325.7412862598671,1325.7412862598671,1.0000839871509042,0.00027250680594354383
1325.7482307227483,1325.7482307227483,1.000579717844897,0.00027261987966438136
1325.7551751857231,1325.7551751857231,0.9997805405308867,0.00027256401802539453
1325.7621196487912,1325.7621196487912,1.0002206006154197,0.00027261793398898485
1325.7690641119057,1325.7690641119057,0.9997133030004661,0.0002726328980219428
1325.776008575113,1325.776008575113,0.9999648961739792,0.00027271836535884997
1325.7829530383674,1325.7829530383674,0.9998967301007937,0.00027274778142286993
1325.7898975016683,1325.7898975016683,0.9999425901335265,0.00027278211896270704
1325.7968419650156,1325.7968419650156,0.9996430883051739,0.0002728024851509264
1325.8037864284793,1325.8037864284793,1.0000914723237462,0.0002728754879732425
1325.810730891943,1325.810730891943,1.0001914936391878,0.00027291673591619734
1325.8176753554997,1325.8176753554997,1.0002410518241451,0.0002728984660722558
1325.8246198191266,1325.8246198191266,0.9996569701643618,0.00027286236755537217
1325.8315642827763,1325.8315642827763,1.0001126414540913,0.0002729529475752951
1325.8385087465194,1325.8385087465194,1.000050350479132,0.0002729463308155033
1325.845453210286,1325.845453210286,1.0001638539736497,0.0002729229199977278
1325.8523976741217,1325.8523976741217,0.9997034446782177,0.00027285579023702243
1325.859342138005,1325.859342138005,0.9996590922245986,0.0002728243659401404
1325.8662866019574,1325.8662866019574,0.9998166306652714,0.00027283415814235317
1325.8732310659104,1325.8732310659104,1.0007513802123071,0.0002729196909488971
1325.880175529956,1325.880175529956,1.000045490576181,0.00027279602186417704
1325.8871199941182,1325.8871199941182,1.0002510687808184,0.0002727744571145227
1325.8940644582572,1325.8940644582572,0.9998798363952675,0.0002727154423565131
1325.9010089224428,1325.9010089224428,1.0000009054258603,0.0002726780638909552
1325.907953386698,1325.907953386698,0.9996736753364657,0.00027262277680483577
1325.9148978510232,1325.9148978510232,1.0005042724883941,0.00027271867690438885
1325.9218423153711,1325.9218423153711,0.9997372265058422,0.0002726005187919416
1325.928786779767,1325.928786779767,0.9994226368908781,0.0002725392753985278
1325.9357312442314,1325.9357312442314,0.999882706446023,0.0002725816626581644
1325.94267570872,1325.94267570872,0.9999432604584575,0.00027255158299904303
1325.9496201732545,1325.9496201732545,1.0004664787171942,0.00027260326246896893
1325.9565646378358,1325.9565646378358,1.0000350232493929,0.00027253642139930356
1325.9643424382193,1325.9643424382193,0.9997343370085214,0.000272445359992093
1325.9718424601335,1325.9718424601335,1.0001600003660516,0.00027249478242935945
1325.9787869248314,1325.9787869248314,1.0002285667706339,0.0002725060584598299
1325.985731389622,1325.985731389622,0.9999868943728802,0.00027247496181034646
1325.9926758544361,1325.9926758544361,0.9997956463120097,0.00027247743011627856
1325.99962031932,1325.99962031932,1.000324309048977,0.0002725532661510243
1326.0065647842273,1326.0065647842273,1.0002588091364442,0.0002725931012657516
1326.013509249158,1326.013509249158,1.0001387407683549,0.00027259711089464066
1326.020453714135,1326.020453714135,0.9999596581097198,0.00027261118766153943
1326.0273981791825,1326.0273981791825,0.9995240071388827,0.0002726360532692702
1326.0343426442291,1326.0343426442291,0.9999820157335142,0.0002726865235365623
1326.0412871093222,1326.0412871093222,0.9996701909938203,0.0002726214478271626
1326.0482315745094,1326.0482315745094,1.000260746259955,0.0002727189762509371
1326.055176039626,1326.055176039626,1.000451561035781,0.00027275306309389646
1326.0621205048824,1326.0621205048824,0.999749712933945,0.000272653488559722
1326.0690649701623,1326.0690649701623,0.9998527596612693,0.00027269838602860284
1326.0760094354416,1326.0760094354416,1.0002936974341314,0.0002727471328319878
1326.0829539007686,1326.0829539007686,1.000441575983203,0.0002727630511065717
1326.0898983661414,1326.0898983661414,0.999865165876207,0.00027269553555903044
1326.0968428315377,1326.0968428315377,0.9999070387633289,0.000272692754296426
1326.1037872970041,1326.1037872970041,0.9995977669729511,0.0002726575939165772
1326.1107317624464,1326.1107317624464,1.0000608479604531,0.00027270855360688373
1326.117676227959,1326.117676227959,0.9998867685617021,0.0002726894428548533
1326.124620693518,1326.124620693518,0.999859523450844,0.0002727112901965655
1326.1315651590778,1326.1315651590778,1.0003694197076454,0.00027276849186525247
1326.1385096246831,1326.1385096246831,1.0002598379231948,0.0002727474754075022
1326.1454540903126,1326.1454540903126,1.000194657132977,0.000272730001507381
1326.152398555988,1326.152398555988,1.0000924250259513,0.0002727009856261014
1326.15934302171,1326.15934302171,0.9997903334562036,0.0002726705839034572
1326.1662874874091,1326.1662874874091,0.9997211934603476,0.0002726609564464696
1326.1732319532007,1326.1732319532007,1.0000997756274181,0.0002726765164975328
1326.1801764189931,1326.1801764189931,0.9999501516402809,0.0002726461697392966
1326.1871208847851,1326.1871208847851,0.9997230405020284,0.0002726282203686981
1326.19406535067,1326.19406535067,0.9998529114276089,0.0002726344089960291
1326.2010098165324,1326.2010098165324,1.0003082156504595,0.0002727194841175329
1326.2079542824404,1326.2079542824404,0.9999743291994667,0.0002726402409399948
1326.2148987483727,1326.2148987483727,1.0004715945509408,0.0002726918241637132
1326.2218432143275,1326.2218432143275,0.9997585069041925,0.0002725857862974942
1326.2287876803289,1326.2287876803289,0.9999433326657897,0.00027259133639435896
1326.2357321463537,1326.2357321463537,1.0002565136218782,0.00027264520907561063
1326.242676612378,1326.242676612378,0.999605681848468,0.00027257048765428227
1326.24962107845,1326.24962107845,0.9999244758735543,0.00027258303711713544
1326.2565655445444,1326.2565655445444,1.0002972414285292,0.0002726195991691356
1326.263510010686,1326.263510010686,0.9994829500677895,0.0002725213515286432
1326.270454476804,1326.270454476804,1.0000890174060093,0.0002726020599345389
1326.2773989429916,1326.2773989429916,1.0002477863628665,0.00027258041760635837
1326.2843434091797,1326.2843434091797,1.0001736074745897,0.00027256417420713937
1326.291287875414,1326.291287875414,0.9996158336703616,0.00027250302616652294
1326.298232341625,1326.298232341625,1.0000538092053404,0.00027256546690347736
1326.305176807906,1326.305176807906,1.0002447420799585,0.00027254631129331976
1326.312121274164,1326.312121274164,1.0000032156931415,0.0002725320327468454
1326.3190657405146,1326.3190657405146,0.999949895248524,0.0002725491873257555
1326.3260102067952,1326.3260102067952,1.000294914975308,0.000272566274448771
1326.3329546731698,1326.3329546731698,0.99987022776753,0.0002725170538559349
1326.3398991395438,1326.3398991395438,0.9998589651346483,0.0002725283002768644
1326.347399163228,1326.347399163228,0.9997943364053729,0.00027260849058789423
1326.356565858958,1326.356565858958,1.000261029067179,0.0002726247878039738
1326.3635103253787,1326.3635103253787,0.9998869404832037,0.0002726163864433878
1326.3704547918228,1326.3704547918228,1.0002624018824136,0.0002726759179750184
1326.3773992583133,1326.3773992583133,0.9996911184133609,0.0002726316942509699
1326.3843437248267,1326.3843437248267,0.9999324485794299,0.00027267659800676446
1326.3912881913407,1326.3912881913407,1.0003307623179574,0.00027271119127549184
1326.3982326578778,1326.3982326578778,1.0000802060867973,0.00027271270216086975
1326.405177124438,1326.405177124438,0.9998378061124201,0.00027270459039409664
1326.4121215910222,1326.4121215910222,0.9998176480399262,0.00027270632944031753
1326.4190660576055,1326.4190660576055,1.0001616692827375,0.00027271844800977037
1326.426010524236,1326.426010524236,0.9997892380833129,0.0002726904916355264
1326.4329549908427,1326.4329549908427,0.9994563844898575,0.0002726725380576822
1326.4398994575192,1326.4398994575192,1.0003460759681782,0.00027278169004244456
1326.4468439241732,1326.4468439241732,1.000206727077737,0.0002727709983344901
1326.4537883908497,1326.4537883908497,1.0000899041646154,0.00027273513284598364
1326.4607328575264,1326.4607328575264,1.0002076153456154,0.00027282961002821906
1326.4676773242268,1326.4676773242268,1.0001165825145506,0.00027279346513611996
1326.474621790973,1326.474621790973,1.0001972563065102,0.00027281196838769997
1326.4815662576966,1326.4815662576966,0.999773439040719,0.0002727558583219474
1326.4885107244431,1326.4885107244431,0.9996724257953868,0.00027278502947971115
1326.4954551912365,1326.4954551912365,0.9999220669961764,0.0002728265047993217
1326.5023996580062,1326.5023996580062,0.9998565127282415,0.00027279240523504967
1326.509344124823,1326.509344124823,1.0000645849051903,0.0002728428887976532
1326.5162885916393,1326.5162885916393,1.0000380930401747,0.0002728807416330431
1326.5232330584324,1326.5232330584324,1.0001448307345118,0.0002729301234121491
1326.5301775252958,1326.5301775252958,1.0004185766845652,0.00027295774047862557
1326.537121992135,1326.537121992135,0.9996984258922099,0.0002728947072229835
1326.5440664589753,1326.5440664589753,1.0003407665062658,0.0002729724506380183
1326.5510109258848,1326.5510109258848,0.9994349701357699,0.0002729084947734993
1326.557955392771,1326.557955392771,1.0000705405402617,0.00027297426469301256
1326.5648998596575,1326.5648998596575,1.0001931435879774,0.0002729973344292373
1326.5718443265669,1326.5718443265669,0.9993760846177293,0.0002729125164100873
1326.5787887935232,1326.5787887935232,0.9999872529340197,0.000272974506327072
1326.5857332604792,1326.5857332604792,1.000597275780693,0.00027305411396407635
1326.5926777274358,1326.5926777274358,0.9998386976750633,0.000272982144712138
1326.5996221943915,1326.5996221943915,1.0000675884435917,0.00027298493046666757
1326.6065666613479,1326.6065666613479,1.0002242513795383,0.00027300244987594547
1326.6135111283043,1326.6135111283043,0.9997639385315699,0.0002729602734014123
1326.6204555952602,1326.6204555952602,1.0001490919766005,0.00027299047931923076
1326.6274000622632,1326.6274000622632,0.9996468838316487,0.0002729321622037685
1326.634344529289,1326.634344529289,1.0000741278021095,0.0002729762885251276
1326.641288996292,1326.641288996292,0.9999819151422409,0.000272960722562841
1326.6482334633179,1326.6482334633179,1.0001868646805414,0.0002730013372735855
1326.655177930367,1326.655177930367,1.0002278380509888,0.00027297755482062346
1326.6621223973932,1326.6621223973932,0.9999082708754372,0.0002729363349089172
1326.6690668644424,1326.6690668644424,1.0001425270696054,0.0002729812564936298
1326.6760113315152,1326.6760113315152,1.0002230272568866,0.00027297167848941596
1326.682955798588,1326.682955798588,0.9996559916321323,0.0002729034320738517
1326.6910113803965,1326.6910113803965,1.0000528644713678,0.0002729545968668826
1326.6982336261706,1326.6982336261706,0.9995671316026946,0.00027283838687797255
1326.7051780932666,1326.7051780932666,1.0002317120457267,0.00027291371703834933
1326.7126781177658,1326.7126781177658,0.999903366253944,0.0002728140568880986
1326.7204559208963,1326.7204559208963,0.9996931066658938,0.0002728203483194902
1326.7274003880154,1326.7274003880154,0.9997606696498458,0.0002727883846471618
1326.7343448551344,1326.7343448551344,1.0001702023972439,0.0002728467461297954
1326.741289322277,1326.741289322277,1.0004709992204668,0.0002728302335017991
1326.748233789396,1326.748233789396,1.000207289386441,0.00027275745173693854
1326.7551782565383,1326.7551782565383,1.0001807485780587,0.0002727795178618299
1326.762122723681,1326.762122723681,1.0001736324861727,0.0002727538712484192
1326.7690671908465,1326.7690671908465,0.9996782397290381,0.0002726685600201922
1326.7760116580123,1326.7760116580123,0.9999554342946277,0.0002726822369362036
1326.7829561251783,1326.7829561251783,0.9992249812231325,0.0002725940103010182
1326.7899005923439,1326.7899005923439,0.999831326168702,0.00027267353861042316
1326.7968450595097,1326.7968450595097,1.0004125172286358,0.00027276615228450307
1326.803789526699,1326.803789526699,1.000070302681322,0.0002727124461281539
1326.8107339938879,1326.8107339938879,1.0006948725620668,0.0002727996519359357
1326.8176784610764,1326.8176784610764,0.9998860097502593,0.0002726884614566101
1326.8246229282656,1326.8246229282656,0.9996790831511602,0.00027266438897877984
1326.8315673954546,1326.8315673954546,1.0002593186258666,0.0002727357433527801
1326.838511862667,1326.838511862667,0.999638681381831,0.00027267104424243723
1326.845456329856,1326.845456329856,1.0001927020663488,0.0002727043106054687
1326.8524007970914,1326.8524007970914,0.9999472796685934,0.00027267238861207476
1326.8593452642804,1326.8593452642804,0.9994668521138861,0.00027259488456709294
1326.8662897314932,1326.8662897314932,1.000143672113166,0.0002726952569942249
1326.8732341987288,1326.8732341987288,0.9997890011781905,0.0002726123551111687
1326.8801786659408,1326.8801786659408,1.00013045096605,0.00027261576619092
1326.8871231331534,1326.8871231331534,0.9996234152723403,0.0002725274024228559
1326.8940676004117,1326.8940676004117,1.000671993861052,0.0002725979205659505
1326.9010120676244,1326.9010120676244,0.9997075980754111,0.0002724232772816328
1326.9079565348366,1326.9079565348366,1.000386900937714,0.0002724757258668469
1326.9149010020956,1326.9149010020956,0.9996161188242274,0.0002723327391312616
1326.921845469331,1326.921845469331,0.9999744450700593,0.00027233892587758473
1326.92878993659,1326.92878993659,0.9995844947569148,0.00027223213521894636
1326.9357344038024,1326.9357344038024,1.0003137354024894,0.00027232215057345716
1326.9426788710143,1326.9426788710143,1.0003221234421553,0.00027226984017347604
1326.9496233382733,1326.9496233382733,1.0003199464624324,0.0002722363022127801
1326.956567805509,1326.956567805509,0.9997018290828693,0.0002721369347864021
1326.9635122727682,1326.9635122727682,0.9998690008006961,0.0002721135335559159
1326.9704567400036,1326.9704567400036,0.999630784760372,0.00027204580052945387
1326.977401207262,1326.977401207262,1.0004646851402739,0.00027208649306980335
1326.984345674498,1326.984345674498,0.9998371382447526,0.000271969171251845
1326.9912901417567,1326.9912901417567,1.000005428107022,0.0002720108994597604
1326.9982346089928,1326.9982346089928,0.9997467717746064,0.0002719211053242818
1327.0051790762514,1327.0051790762514,1.0000362664381395,0.00027199161088626607
1327.0121235434867,1327.0121235434867,1.0002686169767818,0.0002719797261813127
1327.0190680107455,1327.0190680107455,1.0002548158651554,0.00027195612016450444
1327.026012477981,1327.026012477981,0.9998378464412438,0.0002719081983677598
1327.0329569452401,1327.0329569452401,0.9997580730368343,0.00027191104100675757
1327.0399014124755,1327.0399014124755,1.0001052963807653,0.00027193525662359147
1327.0468458797347,1327.0468458797347,0.9999030758760018,0.00027195025960434656
1327.0537903469701,1327.0537903469701,1.00015873589734,0.0002719763289221307
1327.0615681502873,1327.0615681502873,1.0000684940198152,0.0002719535666586161
1327.0690681749256,1327.0690681749256,0.9997450906487881,0.0002719168535731861
