time,time,flux,flux_err
1569.7124861957643,1569.7124861957643,0.9993844650608205,0.001756855133484542
1569.720819696977,1569.720819696977,1.00117654087693,0.0017384034956208609
1569.7291531984222,1569.7291531984222,0.9990276452360726,0.0017199729141431155
1569.7374867002557,1569.7374867002557,0.9998575547716682,0.0017026300677517778
1569.745125743825,1569.745125743825,1.0043890112654785,0.0015406695013595625
1569.752070329144,1569.752070329144,0.9985456622087794,0.0015295393787433552
1569.7590149146029,1569.7590149146029,1.0007550269277974,0.0015161087840446566
1569.7659595003406,1569.7659595003406,0.9985458752233127,0.0015018115809855618
1569.7729040861734,1569.7729040861734,0.9988662201834362,0.001489333044906818
1569.779848672284,1569.779848672284,1.0005258698684734,0.0014767148839090608
1569.7867932585807,1569.7867932585807,0.9993788261660722,0.0014651780468931395
1569.7937378450638,1569.7937378450638,0.999259588424142,0.0014541256931552811
1569.8006824316872,1569.8006824316872,1.0001988146708536,0.0014438934317278654
1569.8076270185902,1569.8076270185902,0.9984587170775754,0.0014332249521250258
1569.8145716055856,1569.8145716055856,0.9993266250123961,0.0014217658884221245
1569.8215161928601,1569.8215161928601,0.9983150197486775,0.001411142262310003
1569.8284607802282,1569.8284607802282,1.00123554623103,0.001400477912958619
1569.83540536783,1569.83540536783,1.0023962050083253,0.0013902209978636881
1569.8423499555702,1569.8423499555702,1.0013586808130308,0.0013803303710676986
1569.8492945435903,1569.8492945435903,0.9990923776166227,0.0013695503343655894
1569.8562391317496,1569.8562391317496,1.001153268100854,0.0013576433574208244
1569.8631837199566,1569.8631837199566,1.000089474617372,0.001347039725837227
1569.8701283084424,1569.8701283084424,1.0000234645104897,0.0013358122962490876
1569.877072897114,1569.877072897114,0.9997706231055817,0.0013257287553676814
1569.884017485879,1569.884017485879,1.0011287992568974,0.0013162260178363016
1569.8909620748304,1569.8909620748304,1.000647298917002,0.001306461949072168
1569.8979066639688,1569.8979066639688,0.9990071309815324,0.0012963673515967798
1569.9048512532922,1569.9048512532922,1.0009564622377674,0.0012877408777179438
1569.9117958427091,1569.9117958427091,1.0017591125892156,0.0012787005321361665
1569.9187404323122,1569.9187404323122,0.9991547130295715,0.0012685075986000628
1569.9256850221493,1569.9256850221493,1.001237937967842,0.0012600224570139661
1569.9331851792242,1569.9331851792242,0.9997332292118333,0.0012503614876254198
1569.9409631201513,1569.9409631201513,0.9989433616949249,0.0012403312683622355
1569.9479077104065,1569.9479077104065,0.9995453859794422,0.0012321555121211844
1569.9556856517065,1569.9556856517065,0.999994978935459,0.0012224305678503187
1569.963185809481,1569.963185809481,1.0019181414997398,0.0012131352378563112
1569.9701304002479,1569.9701304002479,0.9984311422643296,0.0012051511079928814
1569.9779083420133,1569.9779083420133,1.0001555896348882,0.0011961199148365197
1569.9854085003462,1569.9854085003462,1.0010403920907305,0.0011878405669603943
1569.9926308752456,1569.9926308752456,1.0006813533977263,0.0011795654602741032
1570.0017977358075,1570.0017977358075,0.9992444452109168,0.0011696533874143856
1570.0090201109856,1570.0090201109856,1.0018239737508179,0.00116216883467353
1570.015964702638,1570.015964702638,0.9978767571379533,0.0011549900109545928
1570.0234648618093,1570.0234648618093,1.0006495931838661,0.0011478164113272239
1570.0312428047387,1570.0312428047387,1.0001106657984726,0.0011396935585103742
1570.0381873968097,1570.0381873968097,0.998765920634279,0.0011333401769321196
1570.0465209074912,1570.0465209074912,0.9989277676187045,0.0011255706063666962
1570.0562433367827,1570.0562433367827,1.0008678176515986,0.001117326591763434
1570.0631879293192,1570.0631879293192,1.0015711515876151,0.0011122576598233303
1570.070132522042,1570.070132522042,1.0007953920206998,0.001106131117502445
1570.0781882497092,1570.0781882497092,1.0007524523842641,0.0010991985457612422
1570.0854106262389,1570.0854106262389,0.9993133018158741,0.0010937390795492338
1570.0923552192412,1570.0923552192412,1.000027139118758,0.001088511727370525
1570.099855379855,1570.099855379855,1.0000241585679208,0.0010826650454524027
1570.107633324368,1570.107633324368,1.0002516944775266,0.0010771121376282598
1570.1145779177443,1570.1145779177443,0.9986017623750488,0.0010722497975788289
1570.1240225649985,1570.1240225649985,0.9991278376562246,0.001065938120673011
1570.1312449424117,1570.1312449424117,0.999642618437283,0.0010617809652758872
1570.1387451036778,1570.1387451036778,0.9995476123932534,0.0010568480174047705
1570.146523048844,1570.146523048844,1.0001444488969835,0.001052676125138327
1570.153467642824,1570.153467642824,0.9995115008002766,0.0010490477505638693
1570.1604122369904,1570.1604122369904,0.9993024108777124,0.001044586804112695
1570.167356831204,1570.167356831204,0.999420226404068,0.0010409847913262595
1570.174301425557,1570.174301425557,1.0011673950812217,0.0010376012802202118
1570.1812460199571,1570.1812460199571,1.0011616771759075,0.001034149071732529
1570.1906906685617,1570.1906906685617,0.998791742805615,0.0010292564103759048
1570.1993019659822,1570.1993019659822,1.0003190859937674,0.0010258472245504972
1570.2062465607082,1570.2062465607082,0.9998965041442445,0.0010219633079370917
1570.2137467231848,1570.2137467231848,0.9996278346440501,0.0010175300658987335
1570.221802453413,1570.221802453413,0.9994633213772719,0.0010149574174067098
1570.2298581835942,1570.2298581835942,1.0002875362708523,0.001011685409402564
1570.2368027788789,1570.2368027788789,1.0013712399153576,0.001009060008094422
1570.2493030504188,1570.2493030504188,1.0001671398424865,0.0010027228030752059
1570.2568032135473,1570.2568032135473,1.0010186904206912,0.0009992560158908462
1570.2645811605278,1570.2645811605278,0.9984728652177692,0.0009969666219827038
1570.2715257561392,1570.2715257561392,1.000041863567526,0.0009929374589373262
1570.2784703518896,1570.2784703518896,1.0006250001366879,0.0009898509094932006
1570.28708165066,1570.28708165066,0.9996742069836149,0.000985870313780606
1570.2951373819587,1570.2951373819587,1.0012865465281258,0.0009823427332770111
1570.3020819779417,1570.3020819779417,0.9994910628088565,0.000978508984853321
1570.3101377093813,1570.3101377093813,1.000659111237045,0.0009753795658819352
1570.3173600894022,1570.3173600894022,0.998574666703415,0.0009715529123456386
1570.3256936049727,1570.3256936049727,1.0000269298048676,0.0009679826391684633
1570.3326382012815,1570.3326382012815,0.9998940740169383,0.0009649032939297364
1570.3395827976376,1570.3395827976376,1.0002458964105796,0.0009622149391875017
1570.347638529635,1570.347638529635,0.9996767667135,0.0009587924706391133
1570.3548609100285,1570.3548609100285,1.0012616719232887,0.0009566067231899355
1570.3623610744612,1570.3623610744612,1.0010026148196225,0.0009535079269352464
1570.3701390227932,1570.3701390227932,1.001725709730667,0.0009507562328526485
1570.3781947550701,1570.3781947550701,0.9984088914074214,0.0009476084079599719
1570.3862504874864,1570.3862504874864,0.9997618473469615,0.0009446244707679537
1570.3937506521984,1570.3937506521984,0.9999632913247636,0.0009420059155010284
1570.4034730881026,1570.4034730881026,0.9990337326015333,0.0009390837345570953
1570.410417685203,1570.410417685203,0.9993043061038904,0.000937051532469982
1570.4173622824428,1570.4173622824428,1.0008537873821886,0.0009360068387875814
1570.4248624474806,1570.4248624474806,1.000184585682454,0.0009339787187085013
1570.4340293160053,1570.4340293160053,1.0012851736872577,0.0009326030363383128
1570.4443073202656,1570.4443073202656,1.0003035613265914,0.0009293004762445942
1570.452085269435,1570.452085269435,1.0005535811451847,0.0009287146191282716
1570.4590298669077,1570.4590298669077,0.9997923145315667,0.0009280246228336134
1570.4659744646137,1570.4659744646137,1.0008855270592343,0.0009265158955744217
1570.4729190622734,1570.4729190622734,0.9998722452163484,0.0009261531585445144
1570.4798636600724,1570.4798636600724,0.999934387254406,0.0009253478891224493
1570.4868082578244,1570.4868082578244,0.9981481599498064,0.000923551870286455
1570.493752855716,1570.493752855716,1.0028631606979868,0.0009237575552587177
1570.5006974536088,1570.5006974536088,0.9990185828057019,0.000921631013985693
1570.507642051594,1570.507642051594,1.0003373910015463,0.0009214511818801098
1570.514586649672,1570.514586649672,0.9997497438459501,0.0009210057650692761
1570.521809031649,1570.521809031649,0.9991638386341519,0.0009195821291563659
1570.5298647654624,1570.5298647654624,1.0000398377156687,0.0009190702366057583
1570.536809363635,1570.536809363635,1.0001931673293774,0.000917991764113903
1570.546254017269,1570.546254017269,1.0006519805590268,0.0009174571448570372
1570.553476399572,1570.553476399572,0.9997936764793319,0.0009167542798246997
1570.5604209979292,1570.5604209979292,1.0007653878115208,0.0009160867190746951
1570.5673655963342,1570.5673655963342,0.9999828346478082,0.000915851914555263
1570.5743101947853,1570.5743101947853,0.9984950160750594,0.0009157554380614982
1570.5812547933754,1570.5812547933754,0.9997831126352066,0.0009156603725398825
1570.5881993917797,1570.5881993917797,1.0007823505628992,0.0009148258955442596
1570.5951439904165,1570.5951439904165,1.0002559067500272,0.000913838825065604
1570.6020885890541,1570.6020885890541,0.9994897980462578,0.0009137826758673728
1570.610144323613,1570.610144323613,0.9996717895543356,0.0009127507094090576
1570.6173667062883,1570.6173667062883,1.0011942025510934,0.0009120226020071263
1570.6243113051119,1570.6243113051119,0.9999088824991837,0.0009112892058432834
1570.6323670397633,1570.6323670397633,0.9994547104337264,0.0009102785691042145
1570.6395894225798,1570.6395894225798,0.9991048885442417,0.0009102006441055622
1570.6465340214959,1570.6465340214959,1.000991127985674,0.0009094175789481421
1570.6534786204586,1570.6534786204586,1.000169081796306,0.0009086074036942282
1570.6604232194682,1570.6604232194682,1.000587525963883,0.000908394239241709
1570.6673678184782,1570.6673678184782,0.9998419151752012,0.0009070111287910897
1570.6743124175814,1570.6743124175814,0.9997427123342998,0.000906847329378324
1570.6812570167303,1570.6812570167303,1.0001880272629857,0.0009056123346744943
1570.688201615833,1570.688201615833,0.999629041249652,0.0009048209451104454
1570.6951462150287,1570.6951462150287,1.0001844768729131,0.0009047454329088576
1570.7020908142715,1570.7020908142715,0.9994878267557474,0.0009038213243221293
1570.709035413561,1570.709035413561,1.0002129125275,0.0009032348334330495
1570.7159800128497,1570.7159800128497,0.9998804485981763,0.0009009523870851489
1570.7229246121854,1570.7229246121854,0.9995261126846513,0.0009004761828079065
1570.7298692115667,1570.7298692115667,0.9998021816275638,0.000899149782626707
1570.7368138109962,1570.7368138109962,0.9995618140362484,0.0008979336949210728
1570.743758410425,1570.743758410425,1.0004219958521205,0.000897108691141068
1570.7507030098536,1570.7507030098536,0.9994606043432379,0.0008955971260351065
1570.7576476093752,1570.7576476093752,1.0018066988048424,0.0008951997376783682
1570.764592208897,1570.764592208897,1.0019180740125069,0.0008939733733220384
1570.7715368084657,1570.7715368084657,0.9990970533006992,0.0008922352252419316
1570.778481408081,1570.778481408081,0.9995256568038065,0.0008917830639501654
1570.7854260077424,1570.7854260077424,0.9997339179616533,0.0008905259671723937
1570.7923706073107,1570.7923706073107,0.999289973453034,0.0008899711928344618
1570.7993152070649,1570.7993152070649,0.9986945998507594,0.0008891708233485371
1570.8062598066804,1570.8062598066804,0.9986544441450738,0.0008880660748190978
1570.8132044064823,1570.8132044064823,1.0007240498024284,0.0008883015318102249
1570.820149006283,1570.820149006283,1.00130139773291,0.0008871020661573451
1570.8270936060844,1570.8270936060844,1.0011644275585696,0.0008870557683810989
1570.834038205885,1570.834038205885,1.0000882401260582,0.0008855642107998222
1570.840982805687,1570.840982805687,1.0009634256369924,0.0008858804840924276
1570.847927405582,1570.847927405582,0.9993178273212135,0.0008846865985226637
1570.854872005522,1570.854872005522,1.0004246495590874,0.0008838883638653721
1570.8618166054166,1570.8618166054166,0.998335816915333,0.0008834315465293093
1570.8687612053573,1570.8687612053573,0.9996247726486119,0.0008832698136897448
1570.8759835893368,1570.8759835893368,0.9994686903298684,0.00088314898715628
1570.88403932534,1570.88403932534,1.0011967689125023,0.000883851945349134
1570.8909839253733,1570.8909839253733,1.0003223840196018,0.0008826973062074984
1570.8979285254072,1570.8979285254072,0.998877743244724,0.0008815927526108153
1570.904873125441,1570.904873125441,0.9996418163945086,0.0008812590990495689
1570.9118177255689,1570.9118177255689,1.0010009027389002,0.0008811658964350535
1570.9187623256498,1570.9187623256498,1.0003704787551824,0.000881115346805858
1570.9257069258233,1570.9257069258233,1.0001508678656,0.0008794496478020883
1570.9326515259504,1570.9326515259504,1.0000502970220824,0.0008791135345775676
1570.9395961261241,1570.9395961261241,0.9999692391266486,0.0008782570126900783
1570.9465407262983,1570.9465407262983,1.0011232541828448,0.0008774465337647155
1570.953485326519,1570.953485326519,0.999037074622159,0.0008767798356617715
1570.9604299267858,1570.9604299267858,0.9988256186107559,0.0008762512581220975
1570.9673745270054,1570.9673745270054,0.9991387954601894,0.0008760449847942043
1570.9743191272723,1570.9743191272723,1.0008854719224236,0.0008762149032267217
1570.9812637275395,1570.9812637275395,1.0006016676800866,0.0008749012548396202
1570.9882083278535,1570.9882083278535,0.9996012054133446,0.0008742277072559937
1570.9951529282134,1570.9951529282134,1.0007526309779184,0.000873548535073871
1571.0020975285265,1571.0020975285265,0.9998897381100733,0.0008724521114973797
1571.0090421288398,1571.0090421288398,0.9989255026028996,0.0008719761108329085
1571.0159867292464,1571.0159867292464,0.9996021910221975,0.0008706667285944545
1571.0229313296072,1571.0229313296072,1.000075523876684,0.0008701796540747248
1571.0298759300138,1571.0298759300138,1.0008512878366396,0.000869607853852011
1571.0368205304198,1571.0368205304198,1.000460743520312,0.0008690551732320792
1571.0437651308732,1571.0437651308732,1.0006127556867561,0.0008683747071295707
1571.0507097312795,1571.0507097312795,1.0001814162612457,0.0008670342126487496
1571.0576543317798,1571.0576543317798,0.9988009663042945,0.0008658017385480688
1571.0645989322334,1571.0645989322334,0.9995652749207089,0.000865436211527456
1571.071543532686,1571.071543532686,1.0008699161722998,0.0008648303308555153
1571.0784881331856,1571.0784881331856,1.000069556232662,0.0008645399082291801
1571.0854327336851,1571.0854327336851,1.0003671161911183,0.0008630789247603482
1571.0923773342317,1571.0923773342317,0.9999987561943533,0.0008627492227399052
1571.099321934732,1571.099321934732,1.0001554854927508,0.0008618694706711164
1571.106266535278,1571.106266535278,0.9999833587811444,0.0008617299655301452
1571.1132111358238,1571.1132111358238,0.999427641751361,0.0008606313883361107
1571.1201557364166,1571.1201557364166,0.9998472505720054,0.0008601873048423317
1571.1271003369634,1571.1271003369634,0.9993234772237809,0.0008590951450547692
1571.1340449375566,1571.1340449375566,1.0006561695715215,0.0008599425394724815
1571.1409895381494,1571.1409895381494,1.0012433352982766,0.0008586231606557226
1571.1479341387421,1571.1479341387421,0.9990455249261171,0.0008580806925170203
1571.1548787393808,1571.1548787393808,1.0002467846309462,0.000857294690117436
1571.1618233399743,1571.1618233399743,0.9984926921209414,0.0008572291905550843
1571.1687679406143,1571.1687679406143,1.0009365722369226,0.0008566834779445371
1571.1757125412532,1571.1757125412532,1.0009610341101691,0.0008567529977705704
1571.1826571418928,1571.1826571418928,0.999735954132519,0.0008556323653899263
1571.189601742532,1571.189601742532,0.9990623150861146,0.0008551827259183168
1571.1965463431711,1571.1965463431711,1.0003062316238975,0.0008555641283871793
1571.2034909438582,1571.2034909438582,1.000488581185092,0.0008561181466538826
1571.210435544544,1571.210435544544,1.0005537773821724,0.0008547978910889104
1571.2173801452295,1571.2173801452295,0.9994384360267391,0.0008546557941474254
1571.2243247458687,1571.2243247458687,0.9997665296040527,0.0008546643787944801
1571.231269346601,1571.231269346601,1.0007033083141381,0.0008538218954730513
1571.238213947288,1571.238213947288,1.0001432877208685,0.0008534905225382154
1571.245158547974,1571.245158547974,1.0006325992818716,0.0008539899638794864
1571.2521031487063,1571.2521031487063,0.9996328417223961,0.0008528436804584158
1571.259047749392,1571.259047749392,1.0000330590587072,0.0008528958410549336
1571.2659923501242,1571.2659923501242,1.0000688254017973,0.0008525445476992544
1571.2729369508575,1571.2729369508575,1.000064176170806,0.0008522034446462716
1571.2798815515903,1571.2798815515903,0.9990637314138201,0.0008513001705616121
1571.286826152276,1571.286826152276,1.0001541047663967,0.0008514565409327952
1571.2937707530086,1571.2937707530086,1.0009983497943629,0.0008508305495186802
1571.3007153537408,1571.3007153537408,1.0001048027276762,0.0008506626274795293
1571.3076599545197,1571.3076599545197,0.9995807453061953,0.0008493849187909783
1571.3146045552533,1571.3146045552533,0.9990285088497336,0.0008494126612724636
1571.3215491559856,1571.3215491559856,1.0005194216527662,0.0008492595479003562
1571.328493756718,1571.328493756718,1.0015073473443028,0.0008486238491407841
1571.3354383574965,1571.3354383574965,0.9992932436743442,0.000847290663101833
1571.342382958229,1571.342382958229,1.0002718131753048,0.0008478273512494124
1571.3493275589622,1571.3493275589622,0.999325042269513,0.0008467296541483755
1571.3562721597416,1571.3562721597416,0.9995716220131776,0.0008463816111738438
1571.3632167604742,1571.3632167604742,1.000641911363163,0.0008459565893992281
1571.3701613612532,1571.3701613612532,0.9987328860389739,0.0008444589683471582
1571.3771059619853,1571.3771059619853,1.001529706456934,0.0008448693117274444
1571.3840505627643,1571.3840505627643,0.9996249353411176,0.0008449536849709234
1571.3909951634978,1571.3909951634978,0.9999422791396629,0.0008441997832577397
1571.3979397642302,1571.3979397642302,1.0002806272060996,0.0008434449236949106
1571.4048843650091,1571.4048843650091,0.9997354861160834,0.0008428923424731673
1571.4118289657413,1571.4118289657413,1.0003130343622568,0.0008422625419088247
1571.4187735665203,1571.4187735665203,1.00101123912509,0.000842334968111181
1571.4257181672533,1571.4257181672533,0.998978788421805,0.0008424092451006816
1571.4326627679861,1571.4326627679861,0.9992675939928242,0.0008424566902672232
1571.439607368765,1571.439607368765,1.0000584582700154,0.0008417162189059358
1571.4465519694975,1571.4465519694975,0.9992982816878934,0.0008413307029947366
1571.4534965702298,1571.4534965702298,1.0009031428413973,0.0008423627327102565
1571.460441170962,1571.460441170962,1.0006984619979913,0.0008416340450973246
1571.4673857717423,1571.4673857717423,0.999337317299257,0.0008415251490496361
1571.4743303724747,1571.4743303724747,1.00075605800752,0.0008419841855408577
1571.4812749732068,1571.4812749732068,1.0005762607600466,0.000840827624456403
1571.4882195739392,1571.4882195739392,1.000438715079567,0.0008411596106059873
1571.4951641746716,1571.4951641746716,0.9997117090266082,0.000841206791767889
1571.502108775358,1571.502108775358,1.000362747390522,0.0008413316220107813
1571.509053376091,1571.509053376091,0.9999074405203409,0.000841761564257699
1571.5159979768232,1571.5159979768232,0.999340186625111,0.0008414159524773011
1571.5229425775092,1571.5229425775092,1.0007404611776125,0.0008411855771350533
1571.5298871782416,1571.5298871782416,1.0000622065048974,0.0008403224943098386
1571.536831778927,1571.536831778927,0.9990930629403344,0.0008403594035294972
1571.5437763796606,1571.5437763796606,0.9992392788911335,0.0008403587393275069
