time,time,flux,flux_err
1354.117556158196,1354.117556158196,1.0001262113462943,0.00024121434388081744
1354.1256581334794,1354.1256581334794,1.0001830488454233,0.00022021094256135916
1354.132602683602,1354.132602683602,1.0000006787834415,0.00022017625764668831
1354.1395472336321,1354.1395472336321,0.9994126891950554,0.00022010665562561152
1354.1464917834758,1354.1464917834758,0.9998116209975667,0.0002201555900010705
1354.1534363334126,1354.1534363334126,0.9998724194857977,0.00022016279161815393
1354.160380883163,1354.160380883163,1.000504626418279,0.00022021081962159857
1354.1673254329137,1354.1673254329137,1.0000385086592032,0.00022015390765471737
1354.174269982524,1354.174269982524,1.0001914431307395,0.0002201656380267232
1354.181214532089,1354.181214532089,0.9999770318037651,0.0002201469578692497
1354.1881590815133,1354.1881590815133,1.0000941442085574,0.00022014812712550127
1354.1951036308915,1354.1951036308915,0.9998117770113362,0.00022011343073779526
1354.202048180176,1354.202048180176,1.0000924276146743,0.00022011663293237087
1354.2089927293678,1354.2089927293678,0.9996629512183988,0.00022007953897169546
1354.215937278513,1354.215937278513,1.0003029356801991,0.0002201283062248206
1354.2228818275184,1354.2228818275184,0.9996817725022733,0.0002200727614939098
1354.229826376477,1354.229826376477,1.0001211067212386,0.00022009184765420562
1354.2367709253897,1354.2367709253897,0.9999818105614023,0.00022006690285414514
1354.2437154740692,1354.2437154740692,1.0001423960496605,0.0002200779029627697
1354.2506600227487,1354.2506600227487,0.999940406135338,0.00022005901601577157
1354.257604571428,1354.257604571428,1.0001953494940412,0.0002200918335515797
1354.2645491200142,1354.2645491200142,0.9997958760361294,0.00022003649787931366
1354.271493668461,1354.271493668461,1.0000601151557555,0.00022005285316662043
1354.278438216861,1354.278438216861,1.0000792483980505,0.0002200452025463118
1354.285382765168,1354.285382765168,0.9998462506177589,0.00022002338195336988
1354.292327313382,1354.292327313382,0.999953159438574,0.00022000198277210433
1354.2992718615956,1354.2992718615956,1.0001643828897122,0.00022001788654930758
1354.3062164095766,1354.3062164095766,0.9997861584779623,0.0002199756784787981
1354.3131609576044,1354.3131609576044,0.9999834509126483,0.0002199547130177722
1354.320105505492,1354.320105505492,1.0000624857645346,0.00021998412592732944
1354.3270500532867,1354.3270500532867,1.0003071092864997,0.0002199784469091663
1354.3339946010815,1354.3339946010815,0.9996431058838631,0.0002199217056024471
1354.3409391487362,1354.3409391487362,0.9999969234101502,0.00021994523094938763
1354.3478836963452,1354.3478836963452,1.0000492820652327,0.00021992690130551496
1354.35482824386,1354.35482824386,1.0000709257986586,0.00021994680145207495
1354.3617727911894,1354.3617727911894,1.0002315038809766,0.00021996729791113096
1354.3687173385654,1354.3687173385654,1.0000392852138382,0.00021990758160407624
1354.3756618858474,1354.3756618858474,0.9999322213789561,0.00021987653127625759
1354.3826064330374,1354.3826064330374,0.9996507191112128,0.00021984711567519722
1354.3895509801332,1354.3895509801332,1.0000263918906829,0.00021988301680633368
1354.3964955271363,1354.3964955271363,1.0001347925376964,0.00021989479014677867
1354.403440074093,1354.403440074093,0.9999488925114137,0.0002198503025736113
1354.4103846210028,1354.4103846210028,0.9999651682742707,0.00021985730924434054
1354.417329167773,1354.417329167773,0.9998804201985138,0.00021984608260744456
1354.424273714497,1354.424273714497,1.000438936795285,0.00021986073429208498
1354.431218261127,1354.431218261127,0.9998382963616763,0.0002198279804357447
1354.4381628077579,1354.4381628077579,0.9997513725826528,0.00021978401680220497
1354.445107354202,1354.445107354202,1.0000350190289198,0.00021983069816935196
1354.4520519006933,1354.4520519006933,0.9997003757253345,0.00021977959821401532
1354.4589964470445,1354.4589964470445,1.0002339775955242,0.00021981703492262133
1354.4659409931628,1354.4659409931628,1.000269567404699,0.0002198142468935539
1354.4728855393741,1354.4728855393741,0.9995801010787554,0.00021973422812839356
1354.4798300854927,1354.4798300854927,1.000169777904012,0.00021976565015151256
1354.4867746315172,1354.4867746315172,1.0000151105907704,0.0002197747441769171
1354.4937191774966,1354.4937191774966,0.999683969605418,0.00021971992186589723
1354.5006637233355,1354.5006637233355,0.9997140944655806,0.00021970612360796557
1354.5076082691276,1354.5076082691276,1.00011619834085,0.00021974077037686533
1354.5145528148737,1354.5145528148737,1.0001388761513619,0.00021972001341682407
1354.5214973605264,1354.5214973605264,1.0003542856661944,0.00021974591988980162
1354.5284419060858,1354.5284419060858,1.0001939399110473,0.00021973540090102539
1354.5353864515987,1354.5353864515987,0.9999587487253512,0.0002197035545791481
1354.5423309970188,1354.5423309970188,0.9997497483822124,0.0002196642905666042
1354.5492755423923,1354.5492755423923,0.9997706517672418,0.00021965183918211756
1354.5562200875793,1354.5562200875793,0.9999759920202212,0.0002196706196898887
1354.5631646327658,1354.5631646327658,1.0002155690077426,0.00021968576893257154
1354.570109177953,1354.570109177953,1.0001214714306825,0.0002196455047769889
1354.577053723047,1354.577053723047,0.9998636012339821,0.00021962789893042374
1354.5839982680013,1354.5839982680013,0.9999593799469405,0.0002196355578637901
1354.590942812909,1354.590942812909,0.9997509085716153,0.00021961274125633802
1354.59788735777,1354.59788735777,1.0000848096898385,0.00021961134620624188
1354.6048319024915,1354.6048319024915,1.000172744992722,0.00021961108302629668
1354.611776447166,1354.611776447166,0.9999853289291825,0.00021959748153246563
1354.6187209917475,1354.6187209917475,1.0003004659855974,0.00021961936044498972
1354.6256655363293,1354.6256655363293,1.00003336392684,0.00021959716254789035
1354.6326100807714,1354.6326100807714,1.0001249546768167,0.00021957536396506207
1354.6395546251665,1354.6395546251665,0.9995666151861293,0.00021952991794708452
1354.6464991695157,1354.6464991695157,0.9996623305837635,0.00021951426121822365
1354.6534437137245,1354.6534437137245,0.9999755888036885,0.0002195216877879435
1354.660388257934,1354.660388257934,0.9998276718007519,0.000219506504245659
1354.667332801957,1354.667332801957,1.0003596838220843,0.00021954280598366705
1354.6742773459796,1354.6742773459796,1.0001638980327179,0.00021951256480974378
1354.6812218900027,1354.6812218900027,1.000426173233069,0.00021952398552078605
1354.6881664338857,1354.6881664338857,1.00001122335822,0.00021948331266096678
1354.6951109777224,1354.6951109777224,0.9997144823120427,0.0002194352020296653
1354.7020555214658,1354.7020555214658,0.9998362596075788,0.00021943921669099843
1354.7090000651629,1354.7090000651629,0.9998866809900221,0.00021941742166700206
1354.71594460872,1354.71594460872,0.9998565916665687,0.00021943782808869376
1354.7228891522773,1354.7228891522773,1.0000823579359797,0.00021944524357335473
1354.7298336957879,1354.7298336957879,1.0003858901924703,0.0002194712311335585
1354.7367782391125,1354.7367782391125,0.9999771487647591,0.00021943573240335132
1354.7437227824369,1354.7437227824369,1.000211679856551,0.000219458430615929
1354.7506673257144,1354.7506673257144,0.9997047938616366,0.0002193733804946994
1354.7576118688526,1354.7576118688526,0.9997225990411422,0.00021937709655358296
1354.7645564119907,1354.7645564119907,0.999834487325096,0.00021935434937021332
1354.771500955036,1354.771500955036,0.9998995862128257,0.0002193662263326165
1354.778445497941,1354.778445497941,1.000131021748574,0.0002193787023089003
1354.7853900407997,1354.7853900407997,1.0001999603037117,0.00021935886411005248
1354.7923345836584,1354.7923345836584,1.000126068161217,0.00021934331544093112
1354.7992791265171,1354.7992791265171,1.0002135309217202,0.0002193261843410175
1354.8062236691433,1354.8062236691433,1.0000927683253729,0.00021931322680709514
1354.8131682118153,1354.8131682118153,0.9999976998614262,0.000219299901300341
1354.8201127543016,1354.8201127543016,1.0000049743806816,0.00021928614467574015
1354.8270572968345,1354.8270572968345,0.999753360882767,0.0002192461954868159
1354.8340018392278,1354.8340018392278,0.9995995238206878,0.00021922389272464445
1354.8409463816206,1354.8409463816206,1.0001496294256316,0.00021926016302665873
1354.8478909238743,1354.8478909238743,0.9996991317666832,0.00021922494842352538
1354.8548354660809,1354.8548354660809,1.000551785303094,0.0002192741316148834
1354.8617800081945,1354.8617800081945,1.0003200329716506,0.00021925287805475984
1354.8687245503083,1354.8687245503083,1.0001316162076361,0.00021920456768552828
1354.8756690922824,1354.8756690922824,0.9997028756995414,0.00021917377764056655
1354.8826136342564,1354.8826136342564,0.9998746490317221,0.00021917983801617206
1354.8895581760905,1354.8895581760905,0.9994994041390264,0.0002191299719836831
1354.8965027179247,1354.8965027179247,0.9997159612634444,0.00021911058064840494
1354.9034472596197,1354.9034472596197,1.0000476952269728,0.00021917009132763478
1354.9103918013138,1354.9103918013138,1.000089057921858,0.00021914594419825402
1354.9173363429152,1354.9173363429152,1.0003479757115015,0.0002191823881230778
1354.9242808844701,1354.9242808844701,0.9998828125359888,0.000219112235869745
1354.9312254258853,1354.9312254258853,1.000021711536733,0.00021910046546919342
1354.939281093925,1354.939281093925,0.9998532860520299,0.00021910297291727289
1354.9465034168686,1354.9465034168686,1.0003612231161996,0.00021912806989992989
1354.953447958144,1354.953447958144,0.9997861779818884,0.00021905751612253912
1354.9603924993728,1354.9603924993728,0.9999933787652457,0.00021904583550085848
1354.967337040462,1354.967337040462,0.9999274985527121,0.00021903690263220285
1354.9742815815046,1354.9742815815046,0.999967603259023,0.00021904027151488365
1354.9812261225009,1354.9812261225009,0.9999617609137997,0.0002190203927297572
1354.9881706634042,1354.9881706634042,1.000057845488265,0.00021903889815885687
1354.9951152042602,1354.9951152042602,1.000213994488907,0.00021904420286697097
1355.00205974507,1355.00205974507,0.9999319412196929,0.00021900224714098063
1355.0090042857867,1355.0090042857867,0.9999107202465665,0.0002189901311666418
1355.0159488264571,1355.0159488264571,1.0000186974099257,0.0002189736616934224
1355.022893366987,1355.022893366987,0.999873684513292,0.00021894479466177028
1355.0298379075177,1355.0298379075177,1.000211658880868,0.00021894324175113252
1355.0367824480484,1355.0367824480484,1.0000575538172685,0.00021894284499601223
1355.0437269883923,1355.0437269883923,0.9997663686528458,0.00021890816045509656
1355.0506715287368,1355.0506715287368,0.9996013240493621,0.00021888543003055366
1355.0576160690339,1355.0576160690339,1.0002234093880773,0.00021893135999297917
1355.0645606092385,1355.0645606092385,1.0002924370199735,0.00021893403488511582
1355.0715051493503,1355.0715051493503,1.0000333577015457,0.0002188845407540446
1355.0784496894146,1355.0784496894146,1.000272801334741,0.000218904011321926
1355.0853942294327,1355.0853942294327,1.000199504748457,0.00021888464712574858
1355.0923387693579,1355.0923387693579,0.9997032981382322,0.0002188423501281956
1355.0992833092364,1355.0992833092364,0.9997266704776872,0.00021882875202029173
1355.1062278490683,1355.1062278490683,0.9998892734559824,0.00021882176769087773
1355.1131723888539,1355.1131723888539,0.9997244694384101,0.0002187730389921144
1355.1201169284993,1355.1201169284993,1.000328932802332,0.00021883355419149408
1355.127061468145,1355.127061468145,1.0000826928640087,0.00021882537846307985
1355.1340060076977,1355.1340060076977,0.9999398716196636,0.00021879020442100365
1355.140950547157,1355.140950547157,0.9998181922038984,0.00021876278303493385
1355.1478950865235,1355.1478950865235,1.0000787048004116,0.00021875970371112858
1355.15483962589,1355.15483962589,1.0002482400548383,0.00021878718106471722
1355.1617841652558,1355.1617841652558,1.0001682598859662,0.0002187735916629096
1355.1687287045293,1355.1687287045293,1.0000280861723607,0.00021876529594889652
1355.175673243709,1355.175673243709,0.9998729848093829,0.00021870930932075145
1355.182617782796,1355.182617782796,1.0000982533152032,0.00021875353064942455
1355.189562321883,1355.189562321883,0.9998974150552238,0.0002187098968090944
1355.1965068608301,1355.1965068608301,0.9998582701217194,0.00021869676058530055
1355.2034513997774,1355.2034513997774,0.9997630233088612,0.00021867882878695723
1355.2103959386313,1355.2103959386313,0.9998868388382812,0.00021867869086523417
1355.217340477439,1355.217340477439,1.0001567658262962,0.0002186839157742754
1355.2242850161533,1355.2242850161533,0.9999564683357841,0.00021865086004351904
1355.231229554821,1355.231229554821,1.0001764045973331,0.00021867018869369857
1355.238174093489,1355.238174093489,1.0000640090743236,0.00021864979870125223
1355.2451186319704,1355.2451186319704,1.0001124197905498,0.00021864801930336137
1355.2520631704515,1355.2520631704515,1.0000818230959476,0.00021862860028012957
1355.2590077088869,1355.2590077088869,0.999794743305616,0.00021859557078854762
1355.2659522472754,1355.2659522472754,1.0000923696584159,0.00021861154614135025
1355.2728967855703,1355.2728967855703,0.9998986542324971,0.00021859461738254164
1355.2798413237724,1355.2798413237724,1.0001819193893282,0.00021859693855533864
1355.2867858619745,1355.2867858619745,0.9999305849587378,0.0002185986784244734
1355.293730400084,1355.293730400084,1.0001039572726895,0.00021857326843038386
1355.3006749381461,1355.3006749381461,0.9996890642615999,0.00021853567452485454
1355.3076194761154,1355.3076194761154,0.9999563032712017,0.0002185669526233001
1355.3145640140383,1355.3145640140383,0.9997535270941343,0.00021852263589663355
1355.3215085519143,1355.3215085519143,1.000366367291797,0.00021857574522620885
1355.3284530896974,1355.3284530896974,0.9999385039463791,0.0002185261269484106
1355.3359531904437,1355.3359531904437,1.0002584110519646,0.0002185515320852893
1355.3437310726245,1355.3437310726245,0.9999237053289949,0.00021850364618442004
1355.3506756102215,1355.3506756102215,0.9999068021424069,0.00021849592723391576
1355.3576201478181,1355.3576201478181,1.0001584175082852,0.00021851180056793335
1355.3645646852751,1355.3645646852751,0.9997820954980842,0.00021844594816276464
1355.3715092227321,1355.3715092227321,0.9999856692342156,0.0002184691439966139
1355.3784537600964,1355.3784537600964,0.9999727169019275,0.00021843964804691614
1355.3853982973674,1355.3853982973674,1.0002050754928233,0.00021844670999090796
1355.3923428346377,1355.3923428346377,0.9999844571519894,0.0002184305162307416
1355.4001207162135,1355.4001207162135,0.9997964681488171,0.0002183971028973232
1355.407620816354,1355.407620816354,0.9998601289392969,0.00021840296980691799
1355.4145653534856,1355.4145653534856,1.0000794046689507,0.00021839362438738855
1355.4215098902903,1355.4215098902903,1.0000510971256713,0.0002183897031405156
1355.4284544273282,1355.4284544273282,1.0002089109079009,0.00021836198855472943
1355.4353989641336,1355.4353989641336,1.0000538853875542,0.00021836497651170198
1355.4423435009853,1355.4423435009853,1.000137415722603,0.00021837512607405482
1355.4492880376972,1355.4492880376972,0.9998453128863918,0.00021831894463799823
1355.4562325744093,1355.4562325744093,1.0001744322598678,0.00021832994825531175
1355.4631771110282,1355.4631771110282,0.9997667649466807,0.00021828781070229192
1355.4701216476005,1355.4701216476005,0.9998576603584693,0.00021832154053505522
1355.4770661840798,1355.4770661840798,1.0001234790107367,0.0002183174344319738
1355.4840107205591,1355.4840107205591,0.9997789557432695,0.00021826044305777391
1355.4909552568984,1355.4909552568984,0.9998203656132411,0.0002182615724680829
1355.4978997931914,1355.4978997931914,1.0003472487847573,0.00021828900860541584
1355.5048443294843,1355.5048443294843,1.0000547655593244,0.00021826539354233618
1355.5117888656837,1355.5117888656837,1.0000383166433306,0.00021825319930049146
1355.5187334018374,1355.5187334018374,0.9998805397502313,0.0002182315008885933
1355.5256779379438,1355.5256779379438,0.9998713673490816,0.00021821952172084049
1355.5326224739572,1355.5326224739572,1.0000930196056366,0.00021822451957233583
1355.5395670099247,1355.5395670099247,1.0002113079266306,0.0002182010736966521
1355.546511545798,1355.546511545798,1.0000185128235857,0.000218197348331792
1355.553456081672,1355.553456081672,0.9998185684329781,0.00021816915954641055
1355.5604006174995,1355.5604006174995,1.0001129081177293,0.000218215409423992
1355.5673451531868,1355.5673451531868,0.999929021245272,0.00021818388900169045
1355.5742896888746,1355.5742896888746,1.0000882415274832,0.0002181814886940323
1355.5812342244221,1355.5812342244221,1.0002160063521532,0.00021819797765344255
1355.588178760017,1355.588178760017,0.9995919442393418,0.00021811952166336888
1355.595123295518,1355.595123295518,0.9998413612453707,0.0002181485132404683
1355.6020678309262,1355.6020678309262,1.0000601185257842,0.0002181509493091532
1355.6090123662877,1355.6090123662877,1.0003834731082388,0.00021812496224994532
1355.6159569016495,1355.6159569016495,0.9997837828477018,0.0002181043377679688
1355.6229014368712,1355.6229014368712,0.999914399987297,0.00021807569500708696
1355.6298459720933,1355.6298459720933,0.9998685812760666,0.00021807775682797622
1355.6367905071754,1355.6367905071754,0.9998931037758148,0.00021806760525637435
1355.6437350423043,1355.6437350423043,1.000393877453926,0.00021810673689935152
1355.6506795772934,1355.6506795772934,1.000133326742729,0.00021807616453674013
1355.6576241122825,1355.6576241122825,1.0000798018031976,0.00021806687072181753
1355.664568647225,1355.664568647225,0.999890347261567,0.0002180401155009561
1355.6715131819813,1355.6715131819813,1.0000480709355408,0.00021804824067449724
1355.6784577168771,1355.6784577168771,0.9998400663152992,0.00021802491266699727
1355.6854022516334,1355.6854022516334,0.9998039891623304,0.00021801320304911748
1355.6923467862034,1355.6923467862034,0.9997468618647936,0.00021799281066483652
1355.69929132082,1355.69929132082,1.0001623795791426,0.0002180323244459118
1355.7062358553899,1355.7062358553899,1.0003034782080367,0.00021802443272835528
1355.713180389867,1355.713180389867,1.000012104001165,0.00021799711654458629
1355.7201249243437,1355.7201249243437,1.0001131069442795,0.00021798297684974508
1355.7270694587273,1355.7270694587273,0.9999235461674111,0.00021798680323184007
1355.7340139930643,1355.7340139930643,0.999788976246706,0.00021794284543483238
1355.7409585273085,1355.7409585273085,1.0002775003713407,0.00021798460596842833
1355.7490141869664,1355.7490141869664,0.9996917505684323,0.00021792441072461785
1355.7562365024592,1355.7562365024592,0.9999192803252814,0.00021791260230411905
1355.7631810365633,1355.7631810365633,1.0000295453764565,0.0002179300423199491
1355.7701255705747,1355.7701255705747,1.000073165065689,0.00021793649249501223
1355.7770701045392,1355.7770701045392,0.9999766768496331,0.0002179027065253354
1355.7840146384574,1355.7840146384574,1.0000854916829631,0.00021790631106658677
1355.7909591722823,1355.7909591722823,0.9998124168799298,0.00021786125991481333
1355.7979037060609,1355.7979037060609,1.0003309727406982,0.00021790893273858112
1355.8048482397924,1355.8048482397924,1.0002984201983778,0.00021790167365865154
1355.811792773524,1355.811792773524,0.9997040560580196,0.00021784945310751174
1355.8187373071164,1355.8187373071164,0.9999907871378207,0.00021786677482016464
1355.825681840662,1355.825681840662,0.9999176657348963,0.00021785034143399084
1355.8326263742074,1355.8326263742074,0.9998711051398784,0.00021785600625977815
1355.8395709076135,1355.8395709076135,1.0001637187307886,0.00021787352843095735
1355.846515441019,1355.846515441019,0.9999866034751987,0.00021783086547375307
1355.853459974332,1355.853459974332,0.9996793649536537,0.00021780304866726697
1355.860404507598,1355.860404507598,0.999988891738338,0.00021782575952017537
1355.8673490408642,1355.8673490408642,1.0001336120550544,0.0002177915733746031
