time,time,flux,flux_err
1491.6404534891856,1491.6404534891856,1.0000390875640985,0.00021592572951143694
1491.648787181797,1491.648787181797,1.000133651725472,0.0002158165009564257
1491.6564263999385,1491.6564263999385,0.9999013788356924,0.00019700173410645779
1491.663371143704,1491.663371143704,0.9995927737618435,0.00019707324884923023
1491.670315887469,1491.670315887469,0.999916915692514,0.0001968614407129769
1491.6772606312338,1491.6772606312338,1.0002186123589163,0.00019691105976809268
1491.684205374906,1491.684205374906,0.9999789943672859,0.00019684329110479054
1491.691150118671,1491.691150118671,1.0001013815302602,0.00019690122299774964
1491.69809486225,1491.69809486225,1.0003264603712003,0.00019673840328765635
1491.7050396058287,1491.7050396058287,0.999951695096146,0.00019704274707023754
1491.7119843494077,1491.7119843494077,1.0000969688804116,0.00019666807059128726
1491.7189290929866,1491.7189290929866,0.9997763603958145,0.00019681445618423716
1491.7258738364724,1491.7258738364724,0.9997935148806729,0.00019663362349754435
1491.732818579958,1491.732818579958,1.000208269855684,0.00019673680988329406
1491.7397633233509,1491.7397633233509,0.999863962188804,0.0001966446459043267
1491.7467080668362,1491.7467080668362,0.9999142084270751,0.0001965219435870427
1491.753652810136,1491.753652810136,1.0000613633860325,0.0001965311564590205
1491.7605975534354,1491.7605975534354,1.0002241614188305,0.0001965378599129512
1491.7675422967345,1491.7675422967345,1.0001042720610795,0.00019666825178361316
1491.7744870399408,1491.7744870399408,0.9997761877965802,0.00019643077591916728
1491.781431783054,1491.781431783054,0.999818512488161,0.0001964189577509195
1491.7883765262602,1491.7883765262602,0.9999338266513117,0.00019640567855689242
1491.7953212693735,1491.7953212693735,0.99993892970074,0.00019639894826624236
1491.8022660122076,1491.8022660122076,1.0002013288399891,0.00019635118457678844
1491.8092107552272,1491.8092107552272,1.0000315085160496,0.00019644215306031436
1491.816155498061,1491.816155498061,1.0000953762463458,0.00019636852120564954
1491.8231002409882,1491.8231002409882,1.0001447505651793,0.00019634200545864147
1491.8300449837286,1491.8300449837286,0.9999925967585807,0.00019616189683846992
1491.8369897264695,1491.8369897264695,1.0000243174185348,0.00019623853853630588
1491.8439344691167,1491.8439344691167,0.9998967605455633,0.0001962500760306916
1491.8508792116709,1491.8508792116709,1.0000746328771863,0.00019623848063213804
1491.8578239542258,1491.8578239542258,0.9997975081705208,0.00019613193163363387
1491.8647686966872,1491.8647686966872,0.999842661926204,0.00019607909767656748
1491.8717134390552,1491.8717134390552,1.0000454542745296,0.00019619518169931944
1491.8786581814234,1491.8786581814234,1.0000807351265966,0.00019616157971530886
1491.8856029236053,1491.8856029236053,0.999937467175747,0.0001961731969619671
1491.8925476658803,1491.8925476658803,1.0001553413674948,0.00019611978373370768
1491.8994924078756,1491.8994924078756,1.0001323349661035,0.00019607365388203432
1491.9064371501506,1491.9064371501506,1.0001789607683498,0.0001960852148209599
1491.9133818920536,1491.9133818920536,0.9999768516180788,0.00019604061992956517
1491.9203266339555,1491.9203266339555,0.999984994270956,0.00019605519642886693
1491.927271375858,1491.927271375858,1.0000323116857077,0.00019601553194622466
1491.9342161173881,1491.9342161173881,0.999924175481502,0.00019601998477650619
1491.941160859197,1491.941160859197,0.9999113581430166,0.00019601471551769335
1491.9481056007273,1491.9481056007273,0.9998004821111854,0.00019609776260577926
1491.9550503422574,1491.9550503422574,1.0002159556908317,0.00019600232569745812
1491.9619950836939,1491.9619950836939,1.000285236906572,0.00019610111391649983
1491.9689398251307,1491.9689398251307,1.000002014071928,0.0001959189913109186
1491.9758845663814,1491.9758845663814,0.9999095206509285,0.00019588895848930541
1491.9828293076316,1491.9828293076316,0.9999296139763153,0.0001958202986958605
1491.989774048696,1491.989774048696,0.9997693400629636,0.00019583905939682937
1491.9967187897605,1491.9967187897605,0.9996224876123293,0.00019601054144497055
1492.0036635307317,1492.0036635307317,0.9999448599102753,0.00019593489212248907
1492.0106082716097,1492.0106082716097,1.0002070063763244,0.0001959062341301598
1492.0175530123015,1492.0175530123015,1.0001802637861135,0.0001960482813638873
1492.0244977530863,1492.0244977530863,1.0000961600952127,0.00019604595454285976
1492.0314424936846,1492.0314424936846,0.9999241900499769,0.00019605686481568449
1492.0383872341904,1492.0383872341904,1.0000188076949308,0.00019593970138874185
1492.0453319746962,1492.0453319746962,0.9999054447052209,0.00019600137374052142
1492.0522767150148,1492.0522767150148,1.0000086292153119,0.00019607984909210283
1492.059221455334,1492.059221455334,1.0000623052776214,0.0001961612562792569
1492.0661661954673,1492.0661661954673,1.0000557725793506,0.00019589999410736194
1492.0731109356,1492.0731109356,0.9997494192582288,0.0001959213819182672
1492.0800556755469,1492.0800556755469,1.0001937315665859,0.00019592257173616287
1492.0870004154006,1492.0870004154006,1.0000478285520846,0.00019587086084428638
1492.0939451553468,1492.0939451553468,1.0002469476948517,0.0001960005430827516
1492.1008898950142,1492.1008898950142,0.9997196006012581,0.00019610011126881306
1492.1078346345885,1492.1078346345885,0.999823826750446,0.00019601843376571525
1492.1147793741625,1492.1147793741625,0.9998234720816402,0.00019597806267864144
1492.1217241137367,1492.1217241137367,1.0000787376242002,0.0001959361297975835
1492.1286688529385,1492.1286688529385,1.0003119859444138,0.00019591671138072356
1492.1356135922329,1492.1356135922329,0.9999830093567716,0.00019590585871577447
1492.1425583314349,1492.1425583314349,0.9998824587810446,0.00019600320695522099
1492.1495030704505,1492.1495030704505,0.9999937045633382,0.00019607306433282358
1492.1564478094656,1492.1564478094656,1.0000975230674694,0.0001959267159105192
1492.163392548388,1492.163392548388,0.999846520183459,0.00019594426331313313
1492.170337287124,1492.170337287124,1.0000168545024795,0.00019593456082336774
1492.177282025767,1492.177282025767,1.0000847158331347,0.0001958103221974399
1492.1842267644092,1492.1842267644092,0.9999989999282903,0.00019585728665890743
1492.191171502866,1492.191171502866,1.0000666026818803,0.00019583052566648937
1492.1981162412294,1492.1981162412294,1.0000739925880917,0.0001958922396912287
1492.2050609795929,1492.2050609795929,0.9998743625004535,0.00019586388702978323
1492.2120057177701,1492.2120057177701,1.0001135675083348,0.0001958010501190501
1492.2189504558542,1492.2189504558542,1.0002727457461982,0.0001959564874746526
1492.2258951938447,1492.2258951938447,1.0000908408911915,0.00019592181485339
1492.2328399317425,1492.2328399317425,0.9997688626223848,0.00019582916245929337
1492.2397846695476,1492.2397846695476,0.9999490660027481,0.0001960366630814185
1492.2467294072587,1492.2467294072587,0.9998589743147216,0.0001958673970861114
1492.253674144877,1492.253674144877,1.0000280478082115,0.00019588799915703603
1492.2606188824025,1492.2606188824025,1.0000074619420296,0.00019587176877672755
1492.2675636196477,1492.2675636196477,0.9998215626633623,0.00019582910292877093
1492.2745083568939,1492.2745083568939,1.0000233497917446,0.00019590204016373645
1492.28145309414,1492.28145309414,1.0003987694707106,0.00019584478142968838
1492.2883978313857,1492.2883978313857,1.000054532989092,0.0001959309215950104
1492.2953425683525,1492.2953425683525,0.9997325103614461,0.00019592965443319266
1492.302287305226,1492.302287305226,1.0003145637135893,0.00019589779474316705
1492.3092320420062,1492.3092320420062,0.9999309828791582,0.00019589839258137609
1492.3161767786928,1492.3161767786928,0.9999414004003182,0.0001959990439124219
1492.323121515287,1492.323121515287,1.0000922171054145,0.0001958624790877844
1492.3300662517877,1492.3300662517877,0.999729991072881,0.00019590200040416641
1492.337010988102,1492.337010988102,0.9999827513191974,0.00019608022950633438
1492.3439557243237,1492.3439557243237,1.0000956343623064,0.0001959485967797988
1492.3509004604518,1492.3509004604518,0.9998529310443114,0.00019592300612153107
1492.3578451964868,1492.3578451964868,1.0003072939658122,0.00019599664991096439
1492.364789932522,1492.364789932522,0.9999627995265851,0.00019585325515659633
1492.3717346683711,1492.3717346683711,1.0000211690359246,0.00019585082270280447
1492.3786794041264,1492.3786794041264,1.000068070478782,0.00019593238789912033
1492.3856241397891,1492.3856241397891,1.000279818393306,0.0001959325424521656
1492.3925688753588,1492.3925688753588,1.0000526727775618,0.0001959434809262138
1492.399513610742,1492.399513610742,1.0000640766649997,0.00019592486123536768
1492.4064583459387,1492.4064583459387,0.9998855502874029,0.00019581408764506866
1492.4134030813223,1492.4134030813223,1.0000047664396488,0.00019588631804294817
1492.4203478162394,1492.4203478162394,0.9997874267251857,0.00019586637614313029
1492.427292551157,1492.427292551157,0.9999241406812708,0.00019584913931101834
1492.4342372860747,1492.4342372860747,0.99985332051331,0.00019584292847593787
1492.4411820209923,1492.4411820209923,1.0004468528106707,0.0001958566352905305
1492.448126755724,1492.448126755724,1.0003810082511861,0.00019591282903894222
1492.455071490269,1492.455071490269,0.9998958962298307,0.00019579106800404696
1492.4620162247204,1492.4620162247204,1.0000045322738171,0.00019590436173444288
1492.4689609590791,1492.4689609590791,0.9999275605139365,0.00019598037677818965
1492.4759056933449,1492.4759056933449,0.9999872456166307,0.00019588956585811726
1492.4828504275172,1492.4828504275172,0.9999984150527397,0.0001959325399420174
1492.4897951615035,1492.4897951615035,0.9999510920803589,0.00019587111217340037
1492.4967398953968,1492.4967398953968,0.9999993809446905,0.00019590343292469787
1492.5036846292899,1492.5036846292899,1.0002336770524092,0.0001959576162667448
1492.5106293629033,1492.5106293629033,1.0000591417246152,0.00019593712599132269
1492.5175740965171,1492.5175740965171,1.0000233890110475,0.000196047050561901
1492.5245188300376,1492.5245188300376,1.000049652367473,0.00019604926575516164
1492.531463563465,1492.531463563465,1.0000622766455922,0.00019598953547440482
1492.538408296613,1492.538408296613,0.9998549608214106,0.00019584909613568627
1492.5453530298544,1492.5453530298544,0.9998425174533349,0.00019587431806416733
1492.552297762909,1492.552297762909,0.9997625875707756,0.0001959313502378566
1492.5592424958709,1492.5592424958709,1.0000068062802239,0.00019598220238789812
1492.5661872285534,1492.5661872285534,1.0000837575759367,0.00019583211777813477
1492.5731319614217,1492.5731319614217,1.000091755727783,0.0001958992647021755
1492.5800766941973,1492.5800766941973,0.99995339065268,0.00019580166112365005
1492.587021426321,1492.587021426321,1.0001356898223333,0.00019588683892552425
1492.5939661589096,1492.5939661589096,1.0000223502753918,0.00019577207287594842
1492.6009108911271,1492.6009108911271,0.9997686556615841,0.0001958657941791004
1492.6078556233438,1492.6078556233438,1.0000407658764807,0.0001960089166921765
1492.6148003554674,1492.6148003554674,0.9999761486155163,0.0001959220405488038
1492.6217450873114,1492.6217450873114,0.9999780208617736,0.00019582815456199162
1492.6286898192488,1492.6286898192488,1.0002248295865472,0.0001959852646534508
1492.6356345509066,1492.6356345509066,0.9996748327601734,0.00019579825218869352
1492.6425792824714,1492.6425792824714,1.0000274415250434,0.000195799166020111
1492.6495240141296,1492.6495240141296,1.0000922190634076,0.00019596373993049503
1492.6564687454145,1492.6564687454145,0.9998936892898819,0.00019581702271889348
1492.6634134767,1492.6634134767,0.9999635818546629,0.00019608141141141413
1492.6703582078921,1492.6703582078921,1.0001487721318778,0.00019601463857573049
1492.6773029389915,1492.6773029389915,0.9999326363132779,0.00019614177624864378
1492.6842476699042,1492.6842476699042,1.0000353345007877,0.00019588784634574975
1492.691192400817,1492.691192400817,1.000035655823416,0.00019583115464833398
1492.6981371314507,1492.6981371314507,0.9998432282531814,0.00019601107089368586
1492.705081862177,1492.705081862177,1.0000653265976824,0.00019595083599438143
1492.712026592531,1492.712026592531,1.0004680721186112,0.0001958217123330064
1492.7189713231649,1492.7189713231649,1.0001485812571298,0.0001960139991179492
1492.7259160534254,1492.7259160534254,0.999803488887822,0.00019594811667245825
1492.7328607835002,1492.7328607835002,0.9999340440201504,0.00019593838407489834
1492.739805513482,1492.739805513482,0.9999251988531228,0.00019594100103128496
1492.746750243463,1492.746750243463,0.9999010355247215,0.00019584713538622526
1492.7536949733517,1492.7536949733517,1.000227206728481,0.00019598058690824325
1492.760639703054,1492.760639703054,0.9998476320889826,0.00019595917704477413
1492.7675844326634,1492.7675844326634,1.0002328903885798,0.00019591091694226418
1492.7745291621789,1492.7745291621789,1.0002038060407947,0.0001959261965643107
1492.7814738915088,1492.7814738915088,0.999879364245157,0.00019588682325558034
1492.7884186207448,1492.7884186207448,0.9998894378623359,0.00019581830340405958
1492.795363349888,1492.795363349888,0.9998028993498892,0.0001959170008887986
1492.8023080789385,1492.8023080789385,0.9998895584477022,0.00019588561389589798
1492.8092528079885,1492.8092528079885,1.0000597316335909,0.0001958437360668374
1492.8161975367595,1492.8161975367595,1.0000962845374648,0.00019587290611802914
1492.8231422655304,1492.8231422655304,0.9999804366309035,0.00019590791413906885
1492.830086994115,1492.830086994115,1.0001957646286725,0.0001960657799695893
1492.837031722606,1492.837031722606,0.9999666320384272,0.0001958472599260712
1492.8439764510044,1492.8439764510044,0.9999194252244168,0.00019589782114967804
1492.8509211792166,1492.8509211792166,1.000218279006748,0.00019593017702845906
1492.8578659074285,1492.8578659074285,1.0000399715438029,0.0001959991906628214
1492.864810635361,1492.864810635361,0.9997722141618837,0.00019597252713059993
1492.8717553632937,1492.8717553632937,1.000000001349747,0.00019595254532319296
1492.878700091226,1492.878700091226,0.9999263707927717,0.00019596494171438212
1492.8856448187864,1492.8856448187864,0.9999220895553244,0.0001959150112995048
1492.8925895464397,1492.8925895464397,1.000199850538378,0.0001960186222307471
1492.8995342739065,1492.8995342739065,0.9998149908893185,0.00019587839191977633
1492.9064790012803,1492.9064790012803,1.0001083454558972,0.00019593055267549576
1492.9134237285612,1492.9134237285612,1.0001364090180709,0.00019590907024314685
1492.920368455655,1492.920368455655,0.9999710300468025,0.0001959554898535927
1492.927313182657,1492.927313182657,0.9999142384169485,0.000196060463522738
1492.9342579096585,1492.9342579096585,1.0000336653911466,0.0001958993205904844
1492.9412026364735,1492.9412026364735,0.999770820177905,0.0001960434352409483
1492.9481473631022,1492.9481473631022,1.0001704263121343,0.00019593851266749897
1492.955092089638,1492.955092089638,1.0000517740547434,0.00019596188556199882
1492.9620368161734,1492.9620368161734,1.0001659188818552,0.0001959873497464428
1492.9689815424294,1492.9689815424294,0.9997224221357527,0.00019589237751384863
1492.9759262686862,1492.9759262686862,1.0001595751083634,0.00019587311747786581
1492.9828709947556,1492.9828709947556,0.9999591823243865,0.00019583450005313942
1492.9898157208258,1492.9898157208258,1.0000145194554086,0.00019588414544027878
1492.996760446616,1492.996760446616,0.9999980316719258,0.00019592510208953982
1493.0037051725933,1493.0037051725933,0.9998308179104628,0.00019584897762991117
1493.0106498981972,1493.0106498981972,1.0000441918461647,0.00019591665410147928
1493.0175946238019,1493.0175946238019,1.0002544230347645,0.00019587865042797314
1493.0245393490336,1493.0245393490336,1.0000057590002078,0.00019584650480624025
1493.0314840744513,1493.0314840744513,0.9997813308040714,0.00019593245108610354
1493.0384287996833,1493.0384287996833,0.9997362396351755,0.00019586221927152953
1493.0453735247288,1493.0453735247288,1.0001376951434409,0.00019600751364097572
1493.0523182497743,1493.0523182497743,1.000172841149531,0.00019593826584266968
1493.0592629746336,1493.0592629746336,1.0002256528168805,0.0001959055420188234
1493.066207699307,1493.066207699307,1.0001354456171387,0.0001959660414729194
1493.0731524239795,1493.0731524239795,1.0001229460129824,0.0001958731103222417
1493.0800971485594,1493.0800971485594,1.0001386630311389,0.00019591989656349688
1493.0870418729533,1493.0870418729533,0.9998488318516454,0.0001958153110882638
1493.0939865972534,1493.0939865972534,0.9998473712101557,0.0001960413333170468
1493.100931321461,1493.100931321461,0.9999021039688625,0.00019585153484636352
1493.1078760454825,1493.1078760454825,0.9999076315407598,0.0001959565666105303
1493.114820769503,1493.114820769503,1.0003394902939668,0.00019606584672942563
1493.1217654933378,1493.1217654933378,1.0001289124394108,0.00019593897591244658
1493.1287102170795,1493.1287102170795,1.000003636097192,0.0001958937932480477
1493.135654940728,1493.135654940728,0.9999478777060233,0.00019593466179723923
1493.1425996641904,1493.1425996641904,1.0002122231552397,0.0001958323789968377
1493.1495443874664,1493.1495443874664,0.9998385529473532,0.00019588550762598663
1493.1564891107425,1493.1564891107425,0.9997552925331632,0.00019583851746049637
1493.1634338340182,1493.1634338340182,0.9998698446474273,0.00019590265819259336
1493.1703785571083,1493.1703785571083,1.000113261399789,0.00019614876369161602
1493.1773232800117,1493.1773232800117,1.0000923167887599,0.0001959264003880428
1493.184268002822,1493.184268002822,1.0001133707166252,0.000195941755563708
1493.1912127255391,1493.1912127255391,1.000031200638234,0.00019601052325176536
1493.1981574482566,1493.1981574482566,0.9997771035559619,0.00019602394394402915
1493.2051021706939,1493.2051021706939,1.0001989921170618,0.000195991555816682
1493.2120468930389,1493.2120468930389,1.000121330448946,0.00019597115973758874
1493.2189916151974,1493.2189916151974,0.9999002029584314,0.00019606593736581766
1493.2259363373555,1493.2259363373555,0.9998752862714811,0.00019588793315760122
1493.2328810594208,1493.2328810594208,1.000009892333428,0.0001959898103495497
1493.2398257813932,1493.2398257813932,0.9998016942485695,0.00019587962942835968
1493.2467705031786,1493.2467705031786,1.0001420431408206,0.0001959649496363454
1493.2537152247785,1493.2537152247785,1.0001631064355112,0.00019595174185714303
1493.2606599464714,1493.2606599464714,0.999745796036342,0.00019608075344197218
1493.2676046678844,1493.2676046678844,1.0000966181359807,0.00019601588893713957
1493.2745493892048,1493.2745493892048,1.0000081433219463,0.00019598564255655853
1493.2814941105255,1493.2814941105255,0.9999797015220027,0.00019585351884541884
1493.2884388315663,1493.2884388315663,1.0001456107561444,0.00019586702439015058
1493.2953835525138,1493.2953835525138,0.9998725110778025,0.0001960260703486049
1493.3023282734619,1493.3023282734619,1.0000147836127766,0.00019602057579884462
1493.3092729944092,1493.3092729944092,1.000197501263742,0.00019593865437501833
1493.3162177148913,1493.3162177148913,0.9999305914976352,0.0001958179855527377
1493.3231624354662,1493.3231624354662,1.0001631513732887,0.0001960227610463119
1493.3301071559486,1493.3301071559486,0.9998448340411912,0.00019593912309305044
1493.3370518762442,1493.3370518762442,1.0001156437546115,0.00019594792737001035
1493.3439965965401,1493.3439965965401,0.9997092599078415,0.0001959260737114205
1493.3509413165566,1493.3509413165566,0.9998491074277363,0.00019600283335847638
1493.3578860364794,1493.3578860364794,0.9999731992325623,0.00019593862138568116
1493.3648307564958,1493.3648307564958,1.0002244365663935,0.00019594374378658404
1493.3717754762329,1493.3717754762329,1.0000071059868314,0.0001958171420383406
1493.3787201958767,1493.3787201958767,0.9998493715630934,0.0001960513688334043
1493.3856649153345,1493.3856649153345,1.000220864852912,0.00019590312431923832
