time,time,flux,flux_err
1354.11907394563,1354.11907394563,1.0000401055722212,8.242583975540917e-05
1354.1278703842793,1354.1278703842793,1.0000240818914437,8.24296431723358e-05
1354.1355093965115,1354.1355093965115,1.0000135551583544,7.5249090808432e-05
1354.1424539528743,1354.1424539528743,0.9999433459167989,7.524348973790797e-05
1354.1493985088646,1354.1493985088646,0.9999068746633887,7.524712147569549e-05
1354.1563430647618,1354.1563430647618,0.9999439639706751,7.525115666958077e-05
1354.1632876204726,1354.1632876204726,1.0000858669454638,7.525481523023672e-05
1354.1702321758114,1354.1702321758114,0.9999855975069268,7.525353179372096e-05
1354.1771767310565,1354.1771767310565,0.9999991774766478,7.52521759404611e-05
1354.184121286116,1354.184121286116,1.0000038629203007,7.52498273995644e-05
1354.1910658408954,1354.1910658408954,0.999979218123211,7.525287038566495e-05
1354.198010395675,1354.198010395675,0.999912056343572,7.524762028115006e-05
1354.2049549498029,1354.2049549498029,1.0001117175911935,7.525505270815674e-05
1354.2118995040237,1354.2118995040237,1.000020101964734,7.525365239967155e-05
1354.218844058058,1354.218844058058,0.9999518308134124,7.525121776464497e-05
1354.2257886118136,1354.2257886118136,0.9999906524241773,7.525380144069252e-05
1354.2327331652891,1354.2327331652891,1.0000302608116387,7.525593288744051e-05
1354.239677718672,1354.239677718672,1.0001023366317496,7.52580084150861e-05
1354.246622271868,1354.246622271868,0.9999469659481706,7.525111549249453e-05
1354.2535668248784,1354.2535668248784,0.9999659832961921,7.524990166673142e-05
1354.2605113776087,1354.2605113776087,0.9999306795911771,7.525241709361978e-05
1354.2674559300606,1354.2674559300606,1.0000750668832346,7.525684018403468e-05
1354.2744004826047,1354.2744004826047,0.9999533817685566,7.524899523948049e-05
1354.281345034777,1354.281345034777,0.9999611083164656,7.524777043299491e-05
1354.2882895865762,1354.2882895865762,0.9999535613718027,7.524952756911625e-05
1354.2952341383757,1354.2952341383757,0.9999594159796003,7.524985160590505e-05
1354.3021786900817,1354.3021786900817,1.0001112113863952,7.525347229707589e-05
1354.3091232414154,1354.3091232414154,1.0001075741999543,7.525481718642081e-05
1354.3160677925632,1354.3160677925632,0.9999617898167974,7.52459010370254e-05
1354.3230123435244,1354.3230123435244,0.9999577829400922,7.524736203266512e-05
1354.3299568943924,1354.3299568943924,1.0000915279758378,7.525377355565622e-05
1354.336901444981,1354.336901444981,1.0000264199662563,7.525063618487695e-05
1354.3438459954766,1354.3438459954766,0.9998968953902485,7.524552740574469e-05
1354.3507905457861,1354.3507905457861,1.0000177289224768,7.525101318427531e-05
1354.357735095909,1354.357735095909,1.0000258121624976,7.525264222427417e-05
1354.3646796459388,1354.3646796459388,0.9999687265240782,7.525149153679997e-05
1354.3716241954103,1354.3716241954103,0.9998814260289557,7.52486222046506e-05
1354.3785687450672,1354.3785687450672,0.9999808519645693,7.524808095296559e-05
1354.3855132943522,1354.3855132943522,1.0001310123182237,7.525720528323387e-05
1354.3924578436372,1354.3924578436372,1.0001098370465218,7.525506422454462e-05
1354.3994023925493,1354.3994023925493,0.9999373193320966,7.525090056861015e-05
1354.4063469413686,1354.4063469413686,0.9999406583845655,7.525056747751738e-05
1354.4132914900947,1354.4132914900947,1.000086909140134,7.525508677927842e-05
1354.4202360384484,1354.4202360384484,0.9998761058445996,7.524800512658493e-05
1354.427180586802,1354.427180586802,0.999965435191869,7.524981283882047e-05
1354.4341251349688,1354.4341251349688,1.0001331333444288,7.525703182210887e-05
1354.4410696829498,1354.4410696829498,0.9998785020268389,7.524799073388484e-05
1354.4480142305583,1354.4480142305583,0.9999808032876067,7.525059752056448e-05
1354.4549587785393,1354.4549587785393,1.0001211520300184,7.525730746420106e-05
1354.4619033256824,1354.4619033256824,0.9999643505166492,7.524969229679374e-05
1354.4688478731046,1354.4688478731046,0.9999687146619818,7.524907363514575e-05
1354.4757924201538,1354.4757924201538,1.00003024774012,7.525015344250261e-05
1354.4827369671107,1354.4827369671107,0.9999943611350354,7.5251380088481e-05
1354.4896815139741,1354.4896815139741,0.9999272011534364,7.524285226314842e-05
1354.4966260605581,1354.4966260605581,0.9999600599538038,7.524794318834734e-05
1354.503570607049,1354.503570607049,1.0001000987644733,7.524953504617433e-05
1354.5105151533535,1354.5105151533535,1.0000924203338208,7.525136215869285e-05
1354.5174596994723,1354.5174596994723,0.9999791358371299,7.52473901219134e-05
1354.5244042454972,1354.5244042454972,1.0000175260816893,7.524836463048407e-05
1354.531348791243,1354.531348791243,1.000029865306261,7.525166532925778e-05
1354.538293336989,1354.538293336989,0.9998322633809973,7.524491540079477e-05
1354.5452378824552,1354.5452378824552,0.9999753799440473,7.524973413076971e-05
1354.5521824279217,1354.5521824279217,1.0000318685517322,7.525308477434367e-05
1354.559126973109,1354.559126973109,1.000180184093302,7.525599674837092e-05
1354.5660715181093,1354.5660715181093,0.9999464787679629,7.524980074368509e-05
1354.5730160630171,1354.5730160630171,0.9999401119775708,7.52485807597832e-05
1354.5799606076453,1354.5799606076453,0.9998413689351207,7.524526616515083e-05
1354.5869051522736,1354.5869051522736,1.0001600367593864,7.525908905811123e-05
1354.593849696716,1354.593849696716,0.999951403848143,7.524880839520379e-05
1354.6007942409713,1354.6007942409713,1.0000548553607973,7.525200317783761e-05
1354.607738785134,1354.607738785134,1.0000978002535321,7.525593629300576e-05
1354.61468332911,1354.61468332911,0.9998902877023459,7.524785303015161e-05
1354.621627872993,1354.621627872993,0.9999076114641638,7.524848115912099e-05
1354.6285724165969,1354.6285724165969,1.0000256339915246,7.525192173851688e-05
1354.6355169602011,1354.6355169602011,1.0001349840565452,7.525286756209874e-05
1354.6424615036183,1354.6424615036183,0.9999422129591737,7.524726803307376e-05
1354.64940604685,1354.64940604685,0.9999000796366163,7.52432297035525e-05
1354.6563505898944,1354.6563505898944,1.0000917890988767,7.525231531525887e-05
1354.6632951327533,1354.6632951327533,0.9999788741045084,7.524601320585979e-05
1354.6702396756125,1354.6702396756125,0.9999378147799705,7.524533019645071e-05
1354.6771842184708,1354.6771842184708,1.0000193248029723,7.524837574073996e-05
1354.6841287609573,1354.6841287609573,1.0000378157766796,7.525018730995193e-05
1354.69107330335,1354.69107330335,1.0000659756606445,7.525079778198277e-05
1354.69801784565,1354.69801784565,0.9999183233752411,7.524466817543451e-05
1354.7049623877638,1354.7049623877638,1.000040510662473,7.524947593748537e-05
1354.7119069297844,1354.7119069297844,0.999979148780441,7.524590683597666e-05
1354.7188514715253,1354.7188514715253,0.9999709580362788,7.524669130285887e-05
1354.725796013267,1354.725796013267,1.0000273369996209,7.524848324745752e-05
1354.7327405549145,1354.7327405549145,1.0000952688919882,7.524957252989693e-05
1354.7396850962837,1354.7396850962837,0.9999333438068898,7.524630516603146e-05
1354.7466296375587,1354.7466296375587,1.000004756961339,7.524720039429757e-05
1354.753574178834,1354.753574178834,0.9999668321444787,7.524934840608673e-05
1354.76051871983,1354.76051871983,1.0000575843723147,7.525063160179677e-05
1354.767463260733,1354.767463260733,0.9999232912458602,7.524475641124569e-05
1354.7744078015428,1354.7744078015428,0.9999596785924769,7.52456545757843e-05
1354.7813523422597,1354.7813523422597,1.000107313952716,7.525259712681482e-05
1354.78829688279,1354.78829688279,0.9999242193287048,7.52474934286733e-05
1354.795241423041,1354.795241423041,1.0000362094355821,7.525157325494041e-05
1354.8021859632922,1354.8021859632922,1.0000616525371484,7.52511273512862e-05
1354.80913050345,1354.80913050345,0.9999872188025444,7.524686896906068e-05
1354.8160750434217,1354.8160750434217,1.0000263374651868,7.524900650553187e-05
1354.8230195833003,1354.8230195833003,0.9998421091830197,7.524587515815656e-05
1354.8299641229924,1354.8299641229924,1.0000153448288025,7.524951659436537e-05
1354.836908662685,1354.836908662685,1.0000527315849252,7.525024938866865e-05
1354.8438532020045,1354.8438532020045,0.9999090823979417,7.524530544896765e-05
1354.8507977414174,1354.8507977414174,0.9999965781630358,7.524380859720209e-05
1354.8577422807368,1354.8577422807368,1.0000025508659403,7.524716178546275e-05
1354.864686819777,1354.864686819777,1.0000210301625072,7.524760405193146e-05
1354.8716313587247,1354.8716313587247,1.000144003328161,7.525169257425587e-05
1354.8785758976715,1354.8785758976715,1.0000757624064835,7.524997322328871e-05
1354.8855204364327,1354.8855204364327,1.000011897835211,7.524710065457798e-05
1354.8924649750072,1354.8924649750072,0.9999436571199787,7.524543621442804e-05
1354.8994095135818,1354.8994095135818,0.9998690127798586,7.524212726749537e-05
1354.9063540517843,1354.9063540517843,1.0000616854198299,7.525109921003197e-05
1354.913298589986,1354.913298589986,0.999947541870354,7.52481599777678e-05
1354.9202431281878,1354.9202431281878,1.0000568112819852,7.524965496030612e-05
1354.9271876663904,1354.9271876663904,0.9999199844264457,7.524837649803877e-05
1354.9341322042198,1354.9341322042198,1.0000316681797663,7.525210906088515e-05
1354.942465649597,1354.942465649597,1.000086789684924,7.524926879433802e-05
1354.9494101871471,1354.9494101871471,1.000005627682544,7.525097879175491e-05
1354.9563547246973,1354.9563547246973,0.999974579485307,7.525133953724447e-05
1354.9632992620611,1354.9632992620611,0.9999323831698304,7.524990747460441e-05
1354.9702437994251,1354.9702437994251,1.0001067724561008,7.525187671643867e-05
1354.9771883366025,1354.9771883366025,0.9998762862261902,7.52455853507677e-05
1354.9841328736875,1354.9841328736875,0.999898917166098,7.52470032484339e-05
1354.9910774104926,1354.9910774104926,0.9999465485482203,7.524579247391638e-05
1354.9980219473905,1354.9980219473905,1.000196882045043,7.525577441088012e-05
1355.0049664841958,1355.0049664841958,1.0000155597933944,7.525144554640339e-05
1355.0119110206283,1355.0119110206283,1.0000061996266247,7.524478887196534e-05
1355.0188555572472,1355.0188555572472,1.0000113501135797,7.525089995876068e-05
1355.025800093587,1355.025800093587,0.9999420233707663,7.524403341597713e-05
1355.0327446298331,1355.0327446298331,1.000125384721092,7.52510259443131e-05
1355.0396891659866,1355.0396891659866,0.9999246524781545,7.524425413295707e-05
1355.0466337020466,1355.0466337020466,0.999907926692017,7.524502595704562e-05
1355.0535782379204,1355.0535782379204,1.0000097873746427,7.52465607469829e-05
1355.0605227737942,1355.0605227737942,0.9999805781204772,7.5247019602151e-05
1355.0674673094818,1355.0674673094818,1.0001781528628575,7.525564666999834e-05
1355.0744118450762,1355.0744118450762,0.999958606394388,7.524636495997782e-05
1355.0813563804843,1355.0813563804843,0.99999699554403,7.524717736330275e-05
1355.0883009159854,1355.0883009159854,1.0000465325204306,7.524678414778627e-05
1355.0952454511141,1355.0952454511141,0.999797644712188,7.524125525796458e-05
1355.1021899864295,1355.1021899864295,1.0000984180160286,7.525059339319667e-05
1355.1091345213717,1355.1091345213717,1.0000441468758567,7.524687823865643e-05
1355.1160790563144,1355.1160790563144,1.0000109207227115,7.524687482495308e-05
1355.1230235911637,1355.1230235911637,0.9998684489775906,7.524121386088527e-05
1355.12996812592,1355.12996812592,1.0000812025482717,7.524843716635884e-05
1355.1369126605834,1355.1369126605834,0.9998800394692854,7.524140087141693e-05
1355.1438571950596,1355.1438571950596,1.0001647855789864,7.525158336476192e-05
1355.1508017294439,1355.1508017294439,1.0001160129997693,7.524995111037063e-05
1355.1577462637342,1355.1577462637342,1.0000668918921138,7.524872710435472e-05
1355.1646907980244,1355.1646907980244,0.9998395832317641,7.523865311194968e-05
1355.1716353321292,1355.1716353321292,1.0000043280159847,7.524343053181151e-05
1355.178579866047,1355.178579866047,0.9999944093159719,7.52429551394029e-05
1355.185524399965,1355.185524399965,0.9998849963699159,7.523896854989464e-05
1355.1924689337902,1355.1924689337902,1.0000864500286255,7.524333674761345e-05
1355.1994134675217,1355.1994134675217,1.0000865095394578,7.524584214047384e-05
1355.2063580010677,1355.2063580010677,0.999926378067752,7.523878252517735e-05
1355.2133025346127,1355.2133025346127,1.0002068349606048,7.52463624076835e-05
1355.220247067879,1355.220247067879,0.9998471551062103,7.523390141346974e-05
1355.2271916012385,1355.2271916012385,0.9999404454881065,7.52363139916815e-05
1355.2341361343183,1355.2341361343183,1.0000808914936505,7.524333948825585e-05
1355.2410806673984,1355.2410806673984,0.9999928119538319,7.524101461694297e-05
1355.2480252003847,1355.2480252003847,1.000035225110118,7.52404729966174e-05
1355.2549697332784,1355.2549697332784,1.0000133989590292,7.524084100892508e-05
1355.2619142659858,1355.2619142659858,0.9999698279411167,7.524139537301003e-05
1355.268858798693,1355.268858798693,0.9999916076371533,7.524174734676188e-05
1355.275803331307,1355.275803331307,0.9999609821946853,7.524058410364806e-05
1355.282747863642,1355.282747863642,1.0000899091230793,7.524595386548665e-05
1355.2896923960698,1355.2896923960698,0.9999167780023542,7.523919460242112e-05
1355.2966369284047,1355.2966369284047,0.9999492027742702,7.524080481278665e-05
1355.3035814605532,1355.3035814605532,0.9998564333317695,7.523693196949994e-05
1355.3105259926085,1355.3105259926085,0.9999963278255232,7.524133642332327e-05
1355.317470524571,1355.317470524571,1.000078241789113,7.524604932633602e-05
1355.3244150565333,1355.3244150565333,1.0000729957050598,7.524559263541919e-05
1355.3313595883092,1355.3313595883092,1.0000105981950593,7.524411284773544e-05
1355.339137463831,1355.339137463831,0.9999536135173462,7.524280398665447e-05
1355.3466375579185,1355.3466375579185,1.0000159148338823,7.524516286988052e-05
1355.353582089415,1355.353582089415,0.9997953564939316,7.523641823288669e-05
1355.3605266206323,1355.3605266206323,0.9999259197769783,7.524136339817403e-05
1355.3674711518495,1355.3674711518495,1.000162168002302,7.524950137683237e-05
1355.3744156830664,1355.3744156830664,1.0001462065814073,7.524613201826462e-05
1355.381360214284,1355.381360214284,1.00004301306963,7.524336588584111e-05
1355.388304745408,1355.388304745408,0.9998707354661388,7.523706853713217e-05
1355.3952492762528,1355.3952492762528,1.00005436160045,7.524438278694164e-05
1355.4033049320922,1355.4033049320922,1.0000617647919576,7.524475472755732e-05
1355.4105272439058,1355.4105272439058,0.9998633338158498,7.523794275645997e-05
1355.4174717745645,1355.4174717745645,0.999856693780513,7.523569049646255e-05
1355.4244163050366,1355.4244163050366,1.0000541242635825,7.524368952969792e-05
1355.4313608355087,1355.4313608355087,1.0001289208302786,7.524007631100126e-05
1355.4383053657948,1355.4383053657948,1.0000072242125742,7.524149361391668e-05
1355.4452498959874,1355.4452498959874,1.0001025030687007,7.524041436875596e-05
1355.4521944260869,1355.4521944260869,1.0000252861974521,7.524251858344525e-05
1355.4591389560937,1355.4591389560937,0.9998932182213658,7.523738427058752e-05
1355.4660834861934,1355.4660834861934,1.0000342861132223,7.524248677238554e-05
1355.4730280160136,1355.4730280160136,0.9999017910671716,7.523534110683064e-05
1355.4799725457408,1355.4799725457408,0.9999985098316891,7.524087503042608e-05
1355.4869170754675,1355.4869170754675,0.9998905856496594,7.523698789398088e-05
1355.4938616050088,1355.4938616050088,1.0000766788750162,7.524326886939021e-05
1355.5008061345493,1355.5008061345493,1.0000651250443575,7.524349366373929e-05
1355.5077506639968,1355.5077506639968,0.9999683853495165,7.523958953262868e-05
1355.5146951932584,1355.5146951932584,1.0000350716464532,7.52406919614965e-05
1355.5216397225201,1355.5216397225201,1.0000444770474117,7.524033280197563e-05
1355.5285842516878,1355.5285842516878,1.0000806806328026,7.523821677730523e-05
1355.5355287807631,1355.5355287807631,0.9999832631886303,7.52384981146554e-05
1355.5424733096525,1355.5424733096525,1.000102101104449,7.523781716429142e-05
1355.549417838541,1355.549417838541,0.9999299185526963,7.523299148147766e-05
1355.5563623674302,1355.5563623674302,0.9999874715205278,7.523982352221842e-05
1355.5633068959464,1355.5633068959464,1.000043725669966,7.523942542982227e-05
1355.570251424649,1355.570251424649,0.9998844279192225,7.523669468778361e-05
1355.5771959531655,1355.5771959531655,0.9999078761981244,7.523654858565676e-05
1355.5841404814955,1355.5841404814955,1.0001006243289836,7.524206925099403e-05
1355.5910850098257,1355.5910850098257,1.0001218917955499,7.524391890639284e-05
1355.598029538156,1355.598029538156,1.000020074874707,7.524002395130469e-05
1355.6049740662063,1355.6049740662063,1.000019062222146,7.524231030937772e-05
1355.6119185943503,1355.6119185943503,0.9999775885623269,7.524042164993562e-05
1355.618863122308,1355.618863122308,0.9999641412206038,7.523680326451135e-05
1355.6258076501722,1355.6258076501722,0.99987643676473,7.523633245969002e-05
1355.63275217813,1355.63275217813,1.00003332015516,7.523792834289095e-05
1355.6396967058085,1355.6396967058085,0.9999349599310662,7.523714709592101e-05
1355.6466412333932,1355.6466412333932,1.0000426532453992,7.523998126067606e-05
1355.6535857609783,1355.6535857609783,1.0000268697404853,7.523963243025251e-05
1355.6605302883775,1355.6605302883775,0.9998505850484382,7.523235311932092e-05
1355.667474815869,1355.667474815869,1.000115140714438,7.523676058038984e-05
1355.6744193430818,1355.6744193430818,1.000058851996671,7.524004552300119e-05
1355.681363870294,1355.681363870294,1.0000362020799338,7.523864573011013e-05
1355.6883083974135,1355.6883083974135,1.0000286567473067,7.523804588030032e-05
1355.69525292444,1355.69525292444,1.0000857434961479,7.523955215788004e-05
1355.702197451373,1355.702197451373,0.999913469979789,7.523429624197077e-05
1355.709141978306,1355.709141978306,0.9999414591842435,7.523175193344049e-05
1355.7160865048668,1355.7160865048668,0.9999572297355289,7.523184684233195e-05
1355.723031031893,1355.723031031893,1.0001262357951524,7.52387544106885e-05
1355.7299755584538,1355.7299755584538,0.9998885574866743,7.523152289433723e-05
1355.7369200850142,1355.7369200850142,0.9999348681124556,7.523183445492959e-05
1355.7438646112025,1355.7438646112025,0.9999482303020886,7.523364284654787e-05
1355.7521980429817,1355.7521980429817,1.0000666579045074,7.523572170691731e-05
1355.7591425690769,1355.7591425690769,1.0000442954478292,7.523420195623481e-05
1355.7660870953582,1355.7660870953582,1.000094014623087,7.523833307938852e-05
1355.7730316214531,1355.7730316214531,0.9999929909079508,7.523537240712718e-05
1355.7799761474544,1355.7799761474544,1.0000303965809152,7.523591282118642e-05
1355.7869206732707,1355.7869206732707,0.9999839428160391,7.523490846472667e-05
1355.7938651992722,1355.7938651992722,1.0001457629459556,7.523838770073758e-05
1355.8008097249017,1355.8008097249017,1.0000101799296703,7.523539645451984e-05
1355.807754250624,1355.807754250624,0.9998253069122987,7.522835834725022e-05
1355.81469877616,1355.81469877616,0.9999758849729277,7.523397576669477e-05
1355.8216433016964,1355.8216433016964,1.0000381209613307,7.523235985277441e-05
1355.8285878271395,1355.8285878271395,1.0000138637133287,7.523563855470509e-05
1355.835532352489,1355.835532352489,1.0000291573981914,7.523435206428429e-05
1355.8424768777463,1355.8424768777463,1.0000324952117183,7.523681135530927e-05
1355.8494214029095,1355.8494214029095,0.9999150540818347,7.523112624686847e-05
1355.8563659280733,1355.8563659280733,1.0001018960406005,7.523653615664203e-05
1355.8633104530504,1355.8633104530504,1.000079770858337,7.52354512602352e-05
1355.8702549779348,1355.8702549779348,1.0000253539197357,7.523414243155635e-05
1355.8771995028194,1355.8771995028194,0.9999074871339992,7.523172510904328e-05
1355.8841440275173,1355.8841440275173,0.9999174052118238,7.522960519519754e-05
1355.891088552308,1355.891088552308,0.9999071546591951,7.52274038546787e-05
