time,time,flux,flux_err
1354.1140843243284,1354.1140843243284,1.0002792138986734,0.0002035557492683442
1354.122880611028,1354.122880611028,0.999728374279777,0.00020352401940824708
1354.130519491795,1354.130519491795,0.999985390033115,0.00018580496489198302
1354.137463929027,1354.137463929027,1.0003068274846854,0.00018582254534733962
1354.1444083664157,1354.1444083664157,0.9995832692160137,0.0001857601761198515
1354.1513528039618,1354.1513528039618,0.9996127426878575,0.00018576834202959337
1354.1582972416636,1354.1582972416636,0.9999883746201883,0.00018578355605333371
1354.1652416795196,1354.1652416795196,1.0001713235484364,0.0001857939051815897
1354.1721861175265,1354.1721861175265,1.0001547321673956,0.00018579346883165678
1354.1791305556867,1354.1791305556867,1.0004861400172225,0.0001858142281495875
1354.1860749939956,1354.1860749939956,1.000134675257124,0.00018577149163069904
1354.1930194324523,1354.1930194324523,0.9997960795718986,0.0001857375356757952
1354.1999638710574,1354.1999638710574,1.0000009058496946,0.00018575332683243553
1354.2069083098072,1354.2069083098072,0.9997087086139189,0.0001857313049892731
1354.2138527487004,1354.2138527487004,1.0000520294425252,0.00018576630243795104
1354.2207971877367,1354.2207971877367,1.0000030182249895,0.0001857658184133523
1354.2277416269158,1354.2277416269158,0.9998683596854887,0.00018576470248408665
1354.2346860662335,1354.2346860662335,1.0001328080435474,0.00018577796699082588
1354.2416305056913,1354.2416305056913,0.999844049775408,0.00018575029514122717
1354.2485749452842,1354.2485749452842,1.0004735730108827,0.00018581139897887262
1354.255519385015,1354.255519385015,0.9999940139916843,0.00018576723557600416
1354.262463824879,1354.262463824879,0.9997188930375517,0.0001857490876162917
1354.2694082648775,1354.2694082648775,0.9999501836476572,0.00018576207977003377
1354.2763527050079,1354.2763527050079,1.0001223762260611,0.00018578736224267585
1354.2832971452679,1354.2832971452679,1.0001400125556223,0.00018578515496460278
1354.2902415856588,1354.2902415856588,0.999912531460048,0.00018576610438270219
1354.297186026175,1354.297186026175,0.9999967091819075,0.00018576459745754374
1354.3041304668209,1354.3041304668209,0.9995978430476715,0.00018573386681486378
1354.31107490759,1354.31107490759,0.999860452532757,0.0001857474097767129
1354.3180193484845,1354.3180193484845,1.0001736261614051,0.00018578385053088137
1354.324963789501,1354.324963789501,1.0000417392440637,0.00018576748364293772
1354.3319082306398,1354.3319082306398,1.0001339905465554,0.00018576775481771515
1354.3388526718984,1354.3388526718984,1.000119204746079,0.00018576739069616033
1354.3457971132766,1354.3457971132766,1.0001100980345468,0.00018576004791476085
1354.3527415547708,1354.3527415547708,1.0000403475993869,0.00018574990031295095
1354.3596859963823,1354.3596859963823,0.9997694879754402,0.00018572984346787777
1354.3666304381109,1354.3666304381109,0.9999639736000369,0.0001857458520413127
1354.3735748799504,1354.3735748799504,0.9999916766301743,0.00018575819584980724
1354.3805193219064,1354.3805193219064,0.9999088237987717,0.00018575169380928162
1354.387463763972,1354.387463763972,1.0001059336045093,0.0001857656501937976
1354.3944082061473,1354.3944082061473,1.0002850068396383,0.00018579073575648964
1354.4013526484337,1354.4013526484337,1.000054308108809,0.00018577080064312353
1354.4082970908273,1354.4082970908273,0.9999142616187526,0.00018574948110711386
1354.4152415333285,1354.4152415333285,0.9999082061323123,0.000185755504250589
1354.4221859759357,1354.4221859759357,0.9997367823882953,0.00018574170119026043
1354.4291304186456,1354.4291304186456,0.9996794285116612,0.00018573969403732927
1354.4360748614602,1354.4360748614602,1.0001931101821835,0.00018577794637395848
1354.4430193043784,1354.4430193043784,1.0004033018817227,0.00018580632984912333
1354.449963747396,1354.449963747396,1.000138525963342,0.0001858013242467133
1354.4569081905167,1354.4569081905167,1.0000921460324042,0.00018577401122467574
1354.463852633733,1354.463852633733,1.000083463363234,0.0001857725833879369
1354.4707970770485,1354.4707970770485,0.9999020525902559,0.00018574376982733218
1354.4777415204621,1354.4777415204621,0.9995036312189425,0.00018572415079792364
1354.4846859639702,1354.4846859639702,0.9999327435854785,0.00018574164328066334
1354.491630407574,1354.491630407574,0.9997827359957652,0.00018574293212759893
1354.4985748512718,1354.4985748512718,1.0000565574893885,0.00018575338126039753
1354.5055192950615,1354.5055192950615,1.000301607449093,0.0001857780593443322
1354.5124637389445,1354.5124637389445,1.000139350392406,0.00018576693153114055
1354.5194081829163,1354.5194081829163,0.9999739059263248,0.00018575622044039947
1354.5263526269787,1354.5263526269787,1.0001144761275387,0.00018576629373800042
1354.5332970711297,1354.5332970711297,0.9999926197635889,0.0001857375837274834
1354.5402415153687,1354.5402415153687,0.9999697819616372,0.0001857345907512666
1354.5471859596933,1354.5471859596933,0.9999769573740735,0.00018575418961370627
1354.5541304041067,1354.5541304041067,1.0001062041426283,0.00018576238261360526
1354.561074848602,1354.561074848602,0.9998537384178224,0.00018574431879975266
1354.5680192931823,1354.5680192931823,1.00009704021696,0.00018575904013539376
1354.5749637378453,1354.5749637378453,0.9999376249041487,0.00018573329644796594
1354.5819081825907,1354.5819081825907,0.9999136992516915,0.00018575411114359975
1354.588852627417,1354.588852627417,0.999851136085845,0.00018574348830457694
1354.5957970723239,1354.5957970723239,1.0000635655627401,0.000185763420765667
1354.6027415173091,1354.6027415173091,0.9996692577019708,0.00018574073770275773
1354.609685962374,1354.609685962374,1.0004804285845947,0.0001857994507182748
1354.616630407515,1354.616630407515,0.9999714718460909,0.00018575442000885454
1354.6235748527329,1354.6235748527329,1.0001512948207556,0.00018575731371203385
1354.6305192980283,1354.6305192980283,0.9998085349276981,0.0001857555525840213
1354.6374637433967,1354.6374637433967,1.0002341309627554,0.00018576724334379725
1354.6444081888408,1354.6444081888408,0.9998214467951281,0.00018573613988329216
1354.6513526343558,1354.6513526343558,0.9999477867778157,0.0001857482116675073
1354.6582970799454,1354.6582970799454,0.9998845450516602,0.0001857460981903102
1354.6652415256056,1354.6652415256056,1.0001584300604212,0.0001857703694066295
1354.6721859713357,1354.6721859713357,0.9999234202208065,0.00018575274656768576
1354.6791304171384,1354.6791304171384,1.0000294673633643,0.00018576309851283299
1354.6860748630083,1354.6860748630083,1.000186092512107,0.0001857675185018039
1354.693019308946,1354.693019308946,0.9998416798087426,0.0001857464862287395
1354.6999637549536,1354.6999637549536,1.0001280408808473,0.00018575280980925028
1354.7069082010275,1354.7069082010275,1.0000801838467446,0.00018578112658234217
1354.7138526471658,1354.7138526471658,0.9999494777481439,0.00018576325811342376
1354.7207970933705,1354.7207970933705,0.9998073017917726,0.00018574273426297434
1354.72774153964,1354.72774153964,1.0002041790866159,0.00018576909173987824
1354.734685985973,1354.734685985973,0.9997523561931491,0.0001857308180839317
1354.7416304323701,1354.7416304323701,0.9999302024830653,0.00018574893852014334
1354.7485748788279,1354.7485748788279,0.9998767632719364,0.00018573580206884198
1354.755519325348,1354.755519325348,1.000117714405518,0.00018576786817800327
1354.7624637719296,1354.7624637719296,1.0001688052571742,0.00018577271006936443
1354.7694082185703,1354.7694082185703,1.0000926592723633,0.000185760138264445
1354.7763526652716,1354.7763526652716,0.9998663229661947,0.00018573305114021407
1354.7832971120322,1354.7832971120322,1.0002373549647605,0.00018578339136160254
1354.7902415588492,1354.7902415588492,1.0000413281060758,0.0001857465479156466
1354.7971860057255,1354.7971860057255,1.000042961088085,0.000185760699546785
1354.8041304526582,1354.8041304526582,0.9996022171540032,0.00018570984178902796
1354.8110748996476,1354.8110748996476,0.999939526843451,0.00018574384422332112
1354.8180193466908,1354.8180193466908,1.0001094105926516,0.00018577202535484673
1354.8249637937902,1354.8249637937902,0.9999498140955589,0.00018575589071082992
1354.8319082409448,1354.8319082409448,0.9999203328757436,0.00018575556938635869
1354.8388526881504,1354.8388526881504,1.0002844223603096,0.00018577670422992664
1354.8457971354126,1354.8457971354126,0.9999973160439769,0.00018574847886647646
1354.8527415827245,1354.8527415827245,0.9999245036760062,0.00018574333649924463
1354.859686030089,1354.859686030089,1.0000557539889805,0.00018576395093987936
1354.8666304775052,1354.8666304775052,0.9998294010764122,0.00018574065746484306
1354.8735749249715,1354.8735749249715,1.0000790106172786,0.00018575530941897358
1354.8805193724884,1354.8805193724884,1.0000541440027937,0.00018576856990297323
1354.8874638200546,1354.8874638200546,0.9998511330686931,0.00018575225952876707
1354.8944082676694,1354.8944082676694,1.0000603909669454,0.00018576591242807942
1354.9013527153327,1354.9013527153327,0.9999096716800897,0.0001857448744345449
1354.9082971630419,1354.9082971630419,1.0001177694087224,0.0001857552189450209
1354.9152416108018,1354.9152416108018,0.9998870396207575,0.00018573385704677886
1354.9221860586063,1354.9221860586063,0.9998446185473849,0.00018573548424744848
1354.9291305064576,1354.9291305064576,1.0000998753220423,0.00018575493293017154
1354.9374638439385,1354.9374638439385,1.000233735134964,0.00018576034119569256
1354.9444082918885,1354.9444082918885,1.0000284662146401,0.0001857473044574663
1354.9513527398833,1354.9513527398833,1.0001196856801324,0.00018576373204138804
1354.9582971879215,1354.9582971879215,1.000289418408245,0.00018577048504678337
1354.9652416360045,1354.9652416360045,0.9998010669261209,0.00018572643186603706
1354.9721860841291,1354.9721860841291,0.9997431174376705,0.00018572751346301235
1354.979130532297,1354.979130532297,0.9997342120314501,0.00018573436431395065
1354.9860749805055,1354.9860749805055,0.9999594568890299,0.00018576435544608285
1354.993019428757,1354.993019428757,1.00010026840216,0.00018578719146309074
1354.9999638770478,1354.9999638770478,1.0001999411873328,0.00018578690450488352
1355.0069083253804,1355.0069083253804,1.0000791312070496,0.0001857540037584793
1355.0138527737506,1355.0138527737506,1.0000862476594612,0.00018577625159673665
1355.0207972221615,1355.0207972221615,0.9998347342075039,0.0001857407478125886
1355.0277416706117,1355.0277416706117,0.9997698536585105,0.00018574471670528312
1355.0346861191015,1355.0346861191015,0.9999248905235654,0.00018573733817243212
1355.0416305676272,1355.0416305676272,1.000151008507479,0.00018576195223498894
1355.048575016193,1355.048575016193,1.0003884982989937,0.00018578664384537522
1355.0555194647927,1355.0555194647927,0.9999720690735504,0.00018574950975869126
1355.0624639134317,1355.0624639134317,0.9997593093857919,0.00018576253981708848
1355.0694083621052,1355.0694083621052,0.9999293532318813,0.00018576270302105542
1355.0763528108166,1355.0763528108166,0.9997692573926603,0.00018574777178658315
1355.0832972595613,1355.0832972595613,1.000612261625409,0.00018582222383635837
1355.0902417083423,1355.0902417083423,1.0000570435856715,0.00018576566396005795
1355.0971861571566,1355.0971861571566,0.9997116223186182,0.00018573790436159877
1355.1041306060056,1355.1041306060056,0.9999111243712775,0.00018576209273751446
1355.1110750548883,1355.1110750548883,0.9997982185572598,0.0001857417026867588
1355.1180195038057,1355.1180195038057,0.9998655155339584,0.00018574054988835514
1355.1249639527537,1355.1249639527537,1.000222854334569,0.0001857741016322462
1355.1319084017368,1355.1319084017368,0.9998856521045564,0.00018576257212744775
1355.138852850751,1355.138852850751,1.0001795346571136,0.00018576902564348816
1355.1457972997957,1355.1457972997957,1.0003156096191597,0.00018579578288269473
1355.152741748873,1355.152741748873,1.0000543268166053,0.00018578819679225932
1355.159686197981,1355.159686197981,0.9998670200701769,0.0001857473164376092
1355.16663064712,1355.16663064712,0.9999552628909305,0.00018576085016172426
1355.173575096288,1355.173575096288,0.9999422530482477,0.0001857597993903973
1355.1805195454872,1355.1805195454872,0.9996377413067575,0.0001857457788680009
1355.1874639947162,1355.1874639947162,1.0001633749808323,0.00018578107855660896
1355.1944084439733,1355.1944084439733,1.000020875888497,0.00018577456622839838
1355.2013528932598,1355.2013528932598,0.9999321151944587,0.00018576991007861313
1355.208297342574,1355.208297342574,1.000169139691486,0.00018579267859602282
1355.2152417919162,1355.2152417919162,1.000244870936233,0.0001857980255157411
1355.2221862412866,1355.2221862412866,0.9999930030460262,0.0001857576568989609
1355.2291306906845,1355.2291306906845,0.9998610232797207,0.00018577356345483967
1355.2360751401086,1355.2360751401086,1.000091312782463,0.00018578624793637424
1355.2430195895606,1355.2430195895606,0.9996002369366522,0.0001857431054984691
1355.2499640390383,1355.2499640390383,1.0000607210005275,0.00018578197280429888
1355.2569084885438,1355.2569084885438,1.000015081767081,0.000185786921651367
1355.263852938072,1355.263852938072,1.0002680793319958,0.0001858005244864799
1355.2707973876277,1355.2707973876277,0.9997733648280782,0.00018574087659876942
1355.2777418372066,1355.2777418372066,1.000058313449814,0.00018577512818522535
1355.2846862868123,1355.2846862868123,1.000211661256722,0.0001857927598728763
1355.2916307364412,1355.2916307364412,0.9998535879384913,0.00018575455959636062
1355.2985751860947,1355.2985751860947,0.9999773598344144,0.0001857538629040152
1355.3055196357716,1355.3055196357716,0.9999963525611373,0.00018576429156571162
1355.3124640854742,1355.3124640854742,0.999927700376157,0.00018576805509222535
1355.3194085351965,1355.3194085351965,0.9999715683374524,0.0001857726179375385
1355.3263529849442,1355.3263529849442,0.9998170105195829,0.00018573700508930571
1355.334130768688,1355.334130768688,1.0004332689842415,0.00018580166514893347
1355.3416307744653,1355.3416307744653,0.9999484212969717,0.00018575519992181322
1355.3485752242843,1355.3485752242843,1.0002764113206812,0.00018578080519785097
1355.3555196741236,1355.3555196741236,1.000205209938289,0.0001857819124671822
1355.3624641239853,1355.3624641239853,0.9996747324761819,0.00018573646946380712
1355.3694085738682,1355.3694085738682,1.0003185894845028,0.00018576966030854386
1355.3763530237725,1355.3763530237725,0.9998682490342269,0.00018574839861645965
1355.383297473697,1355.383297473697,0.9998525273976376,0.00018574536031476377
1355.3902419236415,1355.3902419236415,0.99998890244526,0.00018575588915714102
1355.3982974856021,1355.3982974856021,0.9998182186522205,0.0001857454389280549
1355.405519713589,1355.405519713589,1.000083526380863,0.00018576478056804978
1355.4124641635974,1355.4124641635974,1.0000762658260365,0.00018577103909822191
1355.4194086136235,1355.4194086136235,0.9999631075421167,0.00018576046648261283
1355.426353063669,1355.426353063669,1.0001351645477343,0.00018576105011365273
1355.433297513734,1355.433297513734,0.9998067428414383,0.00018573135201064244
1355.440241963817,1355.440241963817,1.0000485044388563,0.00018576269850541596
1355.4471864139182,1355.4471864139182,0.9996238989179691,0.0001857269741154568
1355.4541308640387,1355.4541308640387,1.000072440354209,0.00018576750861842492
1355.4610753141756,1355.4610753141756,1.0002034078334976,0.00018578663996020499
1355.4680197643306,1355.4680197643306,1.0002911487614599,0.00018578042185496028
1355.4749642145023,1355.4749642145023,0.9997020951504559,0.0001857473519301733
1355.4819086646914,1355.4819086646914,0.99993395488591,0.0001857582294124535
1355.4888531148968,1355.4888531148968,1.0000150367623022,0.00018576583205487645
1355.4957975651187,1355.4957975651187,0.9999332492288501,0.0001857717865807415
1355.5027420153579,1355.5027420153579,0.9997784937653857,0.0001857576796966654
1355.5096864656127,1355.5096864656127,1.000371701458056,0.00018579741644911204
1355.516630915883,1355.516630915883,1.0001551126924453,0.0001857773717945656
1355.5235753661696,1355.5235753661696,0.9999873133776118,0.00018576925012413306
1355.5305198164706,1355.5305198164706,0.9994706061723357,0.00018572646943854537
1355.5374642667875,1355.5374642667875,0.9999716755028187,0.00018575873125415446
1355.5444087171184,1355.5444087171184,1.0000210877777242,0.0001857559798054636
1355.5513531674649,1355.5513531674649,1.000028118845631,0.0001857647033474505
1355.5582976178268,1355.5582976178268,1.0005244126109305,0.00018580361718270285
1355.565242068203,1355.565242068203,0.9998584908112658,0.0001857611304635905
1355.5721865185924,1355.5721865185924,0.9999614590224883,0.00018576997595814515
1355.5791309689946,1355.5791309689946,0.9999514688191313,0.00018575960126963848
1355.586075419412,1355.586075419412,1.0000344862121249,0.0001857706148571464
1355.5930198698425,1355.5930198698425,0.9998139884677485,0.00018574755574198048
1355.5999643202877,1355.5999643202877,0.9999667523070803,0.00018576359236975435
1355.606908770744,1355.606908770744,0.9999759211090262,0.00018576033976284463
1355.6138532212149,1355.6138532212149,1.0001088443231676,0.0001857661493788118
1355.6207976716971,1355.6207976716971,1.0001687816155487,0.0001857845222357349
1355.6277421221928,1355.6277421221928,0.999699331032369,0.00018572761115189562
1355.6346865727012,1355.6346865727012,1.00011877098999,0.00018575014956459597
1355.6416310232194,1355.6416310232194,1.0002066377221281,0.00018576998286846746
1355.6485754737519,1355.6485754737519,1.0000136733359466,0.00018574665001983243
1355.6555199242962,1355.6555199242962,0.9996445541648236,0.00018573093610006953
1355.662464374851,1355.662464374851,1.0002095197386383,0.0001857589819882918
1355.6694088254176,1355.6694088254176,0.9998804029741979,0.00018574110000331776
1355.6763532759958,1355.6763532759958,1.0000007991225286,0.0001857518602661436
1355.6832977265847,1355.6832977265847,1.000199703842409,0.0001857661756658559
1355.6902421771842,1355.6902421771842,1.0000365216030145,0.0001857577783632278
1355.6971866277945,1355.6971866277945,1.0000744382231608,0.00018577396822583937
1355.7041310784155,1355.7041310784155,0.9999428694483271,0.00018574698245257554
1355.711075529047,1355.711075529047,0.9999449297538969,0.00018575825346262318
1355.7180199796887,1355.7180199796887,0.9996908714788969,0.00018571902005211412
1355.7249644303402,1355.7249644303402,1.0002072964107336,0.00018577543236017712
1355.7319088810013,1355.7319088810013,1.000029798938081,0.000185756055841237
1355.738853331673,1355.738853331673,0.999765780649162,0.00018573931113618347
1355.747186672491,1355.747186672491,1.0003097443447095,0.0001857762898033715
1355.754131123182,1355.754131123182,1.0000571217370784,0.00018577149161645972
1355.7610755738838,1355.7610755738838,0.9998826039612704,0.00018575141370658072
1355.7680200245932,1355.7680200245932,0.999881746007981,0.00018574335113579992
1355.7749644753117,1355.7749644753117,1.0001186511949296,0.00018577266219345224
1355.7819089260397,1355.7819089260397,0.9999592560619875,0.0001857600031244828
1355.7888533767762,1355.7888533767762,1.0000952818003919,0.00018577204149745067
1355.7957978275215,1355.7957978275215,1.0001303643837116,0.00018576790931457818
1355.802742278273,1355.802742278273,0.9998560832190428,0.0001857528811590597
1355.8096867290333,1355.8096867290333,1.0000220414715189,0.00018577170823547132
1355.8166311798027,1355.8166311798027,0.9998225913726845,0.00018575380352362303
1355.823575630579,1355.823575630579,0.9999386915011309,0.00018576642863818256
1355.8305200813643,1355.8305200813643,1.0000172360959174,0.00018576706960644562
1355.837464532156,1355.837464532156,1.0001220444200174,0.0001857690317679139
1355.8444089829547,1355.8444089829547,1.000245844373945,0.00018577806581745717
1355.851353433761,1355.851353433761,0.9997230842186611,0.00018573854219684928
1355.8582978845725,1355.8582978845725,0.9998669224861307,0.00018575161852616277
1355.8652423353933,1355.8652423353933,1.0001427566882177,0.00018578086681688097
