time,time,flux,flux_err
1325.299748550354,1325.299748550354,0.9995892480106842,0.0006560678739211354
1325.308082040417,1325.308082040417,1.0006239930439764,0.0006567000122830048
1325.3157210731056,1325.3157210731056,1.0001013232076006,0.0005997350587434969
1325.3226656484212,1325.3226656484212,1.0003126484874176,0.0006000720280892995
1325.3296102238296,1325.3296102238296,1.000091645716801,0.0006005666824418171
1325.3365547993549,1325.3365547993549,0.9993224916100433,0.0006007418757392537
1325.3434993749966,1325.3434993749966,0.9995741854402491,0.0006013596927783738
1325.3504439507194,1325.3504439507194,1.0002651283431108,0.0006021809626329537
1325.3573885265705,1325.3573885265705,1.0005590570670928,0.0006027533391097957
1325.3643331025264,1325.3643331025264,0.999751803329761,0.0006033385386248067
1325.3712776785756,1325.3712776785756,0.9995212067748257,0.0006039686474515511
1325.3782222547172,1325.3782222547172,0.9998761893840344,0.0006048964546266744
1325.3851668309762,1325.3851668309762,0.999986619630455,0.00060548709864365
1325.392111407351,1325.392111407351,1.0002765425485918,0.0006064332573990954
1325.399055983784,1325.399055983784,1.0005598655595442,0.0006072116295213639
1325.4060005603221,1325.4060005603221,0.9996155872739807,0.0006077827244388782
1325.412945136976,1325.412945136976,1.0003159683953817,0.0006087487432569784
1325.4198897137005,1325.4198897137005,1.0000968362175158,0.0006094863794746579
1325.4268342905293,1325.4268342905293,0.999395699785607,0.0006101977684552442
1325.433778867428,1325.433778867428,0.9996466665141547,0.0006112311673764411
1325.4407234444552,1325.4407234444552,0.9999986565039911,0.0006121122846835549
1325.4476680215516,1325.4476680215516,1.000362209822327,0.0006129777049784955
1325.4546125987297,1325.4546125987297,1.0001265174096894,0.0006139469337854565
1325.461557176001,1325.461557176001,1.000262486863146,0.0006148522226256993
1325.4685017533538,1325.4685017533538,0.9993811727041371,0.0006156700433373872
1325.4754463307884,1325.4754463307884,1.0005387099221918,0.0006169335792143293
1325.4823909082922,1325.4823909082922,0.9995322810580998,0.0006177798979310311
1325.4893354859132,1325.4893354859132,1.0001844539011053,0.0006193684030551697
1325.496280063592,1325.496280063592,1.0004302123501054,0.0006204190206177735
1325.5032246413518,1325.5032246413518,1.000198682775065,0.0006215457825336601
1325.510169219194,1325.510169219194,0.9995254789283887,0.0006228288517430294
1325.517113797117,1325.517113797117,0.9994901743345622,0.000623959023204663
1325.5240583750988,1325.5240583750988,1.0006782343790133,0.0006255038335562823
1325.5310029531847,1325.5310029531847,1.0008301584082868,0.00062667312994799
1325.5379475313177,1325.5379475313177,0.9989445143622111,0.0006275165366566427
1325.5448921095087,1325.5448921095087,0.999535099904492,0.0006286723333777881
1325.5518366877927,1325.5518366877927,0.9996624757145053,0.0006296443182415682
1325.5587812661468,1325.5587812661468,1.0010986728215445,0.0006310362677445135
1325.5657258445706,1325.5657258445706,0.9995810860327836,0.0006316812730985175
1325.5726704230642,1325.5726704230642,1.000126014733893,0.0006327443262363573
1325.5796150016165,1325.5796150016165,0.9997655885597053,0.0006334946546333728
1325.5865595802495,1325.5865595802495,0.999566086758721,0.0006341253287318346
1325.5935041589412,1325.5935041589412,1.0001576458805812,0.0006349387463973702
1325.6004487376792,1325.6004487376792,1.0008582675790663,0.0006356092400075269
1325.607393316499,1325.607393316499,0.9996666048787457,0.0006358335076692177
1325.614337895377,1325.614337895377,0.9998385440351167,0.0006360222325613298
1325.6212824743245,1325.6212824743245,0.9995810675089605,0.0006364625121702957
1325.6282270533306,1325.6282270533306,0.9995910430011172,0.0006365769972470059
1325.635171632371,1325.635171632371,1.0001060759205826,0.0006366901957471814
1325.6421162115055,1325.6421162115055,1.000932802822629,0.0006368348022650215
1325.6490607906624,1325.6490607906624,0.9987988710255878,0.0006362318407628589
1325.6560053699013,1325.6560053699013,0.999169365013177,0.0006362028896346821
1325.6629499491748,1325.6629499491748,1.000166651449457,0.0006362775886429978
1325.669894528542,1325.669894528542,1.0008035350399804,0.0006363567814530653
1325.6768391079318,1325.6768391079318,1.0003466357729367,0.0006361734540435092
1325.6837836873806,1325.6837836873806,0.9992434148862952,0.0006359577536366594
1325.690728266875,1325.690728266875,1.001371851441989,0.0006364585927443236
1325.6976728464165,1325.6976728464165,1.0001477079473198,0.0006363550181273649
1325.7046174260279,1325.7046174260279,0.999735758437193,0.0006363592144268095
1325.7115620056857,1325.7115620056857,1.0003313025419112,0.0006366453341722174
1325.7185065854017,1325.7185065854017,0.9990743602935854,0.0006365752677683354
1325.725451165141,1325.725451165141,1.000142952632561,0.0006372602341061178
1325.7323957449385,1325.7323957449385,0.9995552173859508,0.0006372917636109828
1325.7393403247595,1325.7393403247595,0.9998772756514367,0.0006377198119948927
1325.7462849046617,1325.7462849046617,0.9997140589492499,0.0006381502683977257
1325.7532294845987,1325.7532294845987,0.9997939924050419,0.0006384612164599954
1325.760174064571,1325.760174064571,1.0007618433608245,0.0006392748851543572
1325.7671186446012,1325.7671186446012,0.9997965042192412,0.0006394472564098364
1325.7740632246553,1325.7740632246553,1.0001795485822171,0.0006399463379657813
1325.7810078047667,1325.7810078047667,1.000815485793194,0.0006404496780657618
1325.7879523849024,1325.7879523849024,1.0007365135458308,0.00064094117987066
1325.7948969651072,1325.7948969651072,0.9987278657491938,0.0006408355178036167
1325.8018415453353,1325.8018415453353,0.9997349418251507,0.0006413634842601382
1325.8087861255988,1325.8087861255988,1.0005031308040662,0.0006417260650652117
1325.8157307059198,1325.8157307059198,0.9993220502806887,0.0006417367907802639
1325.8226752862533,1325.8226752862533,0.9998203884776352,0.0006419986602281633
1325.8296198666326,1325.8296198666326,1.0007219057497967,0.0006423331846892655
1325.8365644470355,1325.8365644470355,1.0000813402670958,0.0006424159955163868
1325.8435090274852,1325.8435090274852,1.0004217839385432,0.0006423173468507873
1325.8504536079924,1325.8504536079924,1.000371009019625,0.0006421653712272447
1325.8573981885118,1325.8573981885118,0.9992066811434729,0.0006417433828694744
1325.8643427690663,1325.8643427690663,0.99963935136599,0.0006414420151168705
1325.8712873496672,1325.8712873496672,1.0003494477054875,0.00064094398139544
1325.8782319302798,1325.8782319302798,1.0009037481094303,0.0006405421652588858
1325.8851765109384,1325.8851765109384,0.9997626538545157,0.000639753561783424
1325.8921210916328,1325.8921210916328,1.000818993974294,0.0006394694859607917
1325.899065672338,1325.899065672338,0.9995191591848338,0.0006387519203390282
1325.90601025309,1325.90601025309,0.9998152780910615,0.0006384559934884536
1325.9129548338656,1325.9129548338656,0.9999563604110848,0.0006380553287011831
1325.919899414676,1325.919899414676,0.9994453817631188,0.0006374981624644378
1325.9268439955215,1325.9268439955215,1.0001455295138393,0.0006374488826472675
1325.933788576378,1325.933788576378,0.9996546174535934,0.0006370625191928808
1325.9407331572704,1325.9407331572704,0.999167653852575,0.0006366872298928112
1325.9476777381853,1325.9476777381853,1.0003446721482576,0.0006366629811954151
1325.954622319135,1325.954622319135,1.0010480216681226,0.0006366641469663533
1325.9621224665923,1325.9621224665923,1.0005414561747077,0.0006364196566001602
1325.9699003973024,1325.9699003973024,1.0000383610174295,0.000636197436826623
1325.976844978334,1325.976844978334,1.0001345724503814,0.0006361417561057848
1325.9837895593769,1325.9837895593769,1.0003693619238119,0.0006361308637801461
1325.9907341404664,1325.9907341404664,0.9990833002912882,0.0006360799820636138
1325.9976787215564,1325.9976787215564,0.9998837726299478,0.0006362691490894372
1326.0046233026812,1326.0046233026812,1.0000631794028187,0.0006364634959667544
1326.011567883829,1326.011567883829,0.9997899398215025,0.0006367190392569057
1326.0185124649888,1326.0185124649888,0.9993015755668374,0.0006369608555861235
1326.0254570461832,1326.0254570461832,1.0000416092733198,0.000637512865402237
1326.0324016274014,1326.0324016274014,0.9999881093425435,0.0006377918077813957
1326.0393462086304,1326.0393462086304,1.0000533872726356,0.0006375909945099341
1326.0462907898836,1326.0462907898836,1.0005944552572372,0.0006374005050755213
1326.0532353711474,1326.0532353711474,1.0002792346213072,0.0006374449131381723
1326.0601799524352,1326.0601799524352,1.0005130154850297,0.0006374509387215149
1326.0671245337578,1326.0671245337578,1.0009162841948727,0.0006376261905156594
1326.0740691150918,1326.0740691150918,0.9992099169327492,0.0006374916531479433
1326.0810136964267,1326.0810136964267,0.9990668790137385,0.0006374413993551862
1326.0879582777839,1326.0879582777839,0.9996821580933879,0.0006374938486496812
1326.094902859165,1326.094902859165,0.9995382161294473,0.0006375066744526341
1326.101847440569,1326.101847440569,1.0002607934867114,0.0006375634638102021
1326.108792021973,1326.108792021973,0.999641726739744,0.0006373476219415715
1326.1157366034117,1326.1157366034117,1.0005289735502676,0.0006376350788825115
1326.1226811848505,1326.1226811848505,1.0004475891021463,0.000637570773869167
1326.1296257663016,1326.1296257663016,0.9995073556989331,0.0006372775099998777
1326.136570347787,1326.136570347787,1.000339474780752,0.0006372670609812245
1326.1435149292843,1326.1435149292843,1.0010726778822947,0.0006373797395130183
1326.1504595107817,1326.1504595107817,1.0002232540416263,0.0006370710468607187
1326.1574040923017,1326.1574040923017,0.9992947860131958,0.0006368134119613896
1326.1643486738346,1326.1643486738346,0.9995908281850536,0.000636738579049741
1326.1712932553778,1326.1712932553778,0.9995939748977596,0.0006365723159823366
1326.1782378369448,1326.1782378369448,0.9995653612802323,0.0006364992140255634
1326.1851824185119,1326.1851824185119,0.9997986764680604,0.0006364894118029643
1326.1921270001021,1326.1921270001021,1.0005115734568313,0.0006364937626011986
1326.1990715816814,1326.1990715816814,0.9999022696348652,0.0006363484651849903
1326.2060161632944,1326.2060161632944,1.000858469529263,0.0006363452289158419
1326.2129607449203,1326.2129607449203,1.0003834803760658,0.0006359877711835501
1326.2199053265451,1326.2199053265451,0.9996157712382618,0.0006357974445690666
1326.2268499081704,1326.2268499081704,1.0002846331775248,0.0006358003673816447
1326.2337944898306,1326.2337944898306,1.000325085264674,0.0006358140979721846
1326.240739071479,1326.240739071479,0.9989542279342227,0.0006352606061899904
1326.2476836531628,1326.2476836531628,1.000107107335417,0.0006354373320932897
1326.2546282348344,1326.2546282348344,1.0003011608820123,0.0006354852407849517
1326.2615728165183,1326.2615728165183,0.9993544285544431,0.0006352784698736402
1326.268517398225,1326.268517398225,1.0002149687523954,0.0006352551565453694
1326.2754619799196,1326.2754619799196,1.0000860955867632,0.000635066848859111
1326.2824065616387,1326.2824065616387,0.9994318001020941,0.0006347980321964401
1326.2893511433567,1326.2893511433567,0.999719810499375,0.0006345847830115084
1326.2962957250868,1326.2962957250868,1.0014396380006132,0.0006349291277781464
1326.3032403068166,1326.3032403068166,0.9995297000831449,0.0006343726361843082
1326.3101848885585,1326.3101848885585,0.9999231408931195,0.000634500379021422
1326.3171294703002,1326.3171294703002,1.0006827411495987,0.0006346925251280003
1326.3240740520532,1326.3240740520532,1.000345643062797,0.0006346893091348508
1326.331018633819,1326.331018633819,0.9995207663756475,0.0006345174539691604
1326.3379632155834,1326.3379632155834,0.9997073254764015,0.0006346141751981409
1326.34490779736,1326.34490779736,0.9998167279216936,0.0006346709998471111
1326.3546302118452,1326.3546302118452,0.9998085815691049,0.0006345888259649383
1326.361574793633,1326.361574793633,0.9995735515410494,0.0006348514328571105
1326.3685193754216,1326.3685193754216,0.9998986133849105,0.0006349732029452014
1326.375463957221,1326.375463957221,1.0003794106397834,0.0006350505140012381
1326.3824085390213,1326.3824085390213,1.0007812727054068,0.000635396954623329
1326.389353120821,1326.389353120821,0.9996603515672706,0.0006351693279303134
1326.396297702621,1326.396297702621,1.0003432171311786,0.0006352689724682206
1326.4032422844443,1326.4032422844443,0.9996519098669948,0.0006351914238955409
1326.4101868662442,1326.4101868662442,0.9991615177830802,0.0006351314931694259
1326.417131448056,1326.417131448056,1.0007051983821533,0.0006355037815191343
1326.4240760298787,1326.4240760298787,0.9993003474745311,0.0006353748681123428
1326.431020611702,1326.431020611702,1.0005508095852353,0.0006358076067553119
1326.4379651935365,1326.4379651935365,1.0004140847910172,0.0006358408548146761
1326.44490977536,1326.44490977536,1.0006566821357805,0.0006360075546753932
1326.4518543571835,1326.4518543571835,0.9991113884380534,0.0006357528340475033
1326.458798939018,1326.458798939018,1.0010155679732855,0.0006361995557155136
1326.465743520853,1326.465743520853,1.0011748251514845,0.0006363231438448524
1326.4726881026877,1326.4726881026877,0.9989090209026127,0.0006359355841611532
1326.4796326845226,1326.4796326845226,0.9996116534527267,0.0006362012665492137
1326.4865772663572,1326.4865772663572,0.9983347860169681,0.0006361060600332115
1326.4935218481921,1326.4935218481921,0.9996021844838033,0.0006363497925879341
1326.5004664300388,1326.5004664300388,1.0015695411792214,0.0006368473978897406
1326.507411011873,1326.507411011873,0.9997750731403883,0.0006364705956858647
1326.5143555937082,1326.5143555937082,0.9996918654319961,0.0006365368306567473
1326.5213001755546,1326.5213001755546,0.9998182983018742,0.0006366776527621992
1326.5282447573895,1326.5282447573895,1.0006876285024644,0.0006370659268316824
1326.5351893392244,1326.5351893392244,1.0011972035354588,0.0006372783952757455
1326.542133921071,1326.542133921071,0.9996530688925939,0.000637015735343024
1326.5490785028937,1326.5490785028937,0.9990355593678777,0.0006371715315675009
1326.5560230847404,1326.5560230847404,0.9999830341697512,0.0006375139878829997
1326.5629676665753,1326.5629676665753,0.9998682207728578,0.0006374295455864087
1326.56991224841,1326.56991224841,0.9995754010101023,0.0006373532552319784
1326.576856830245,1326.576856830245,1.0000256621310724,0.000637354931600332
1326.583801412068,1326.583801412068,1.0005854664833782,0.0006376118131947197
1326.590745993903,1326.590745993903,1.0000107589219018,0.0006376421516085105
1326.5976905757261,1326.5976905757261,1.0001960623781303,0.0006376583402066274
1326.6046351575494,1326.6046351575494,1.0008334635349427,0.0006378729653681224
1326.6115797393727,1326.6115797393727,0.9998646520145067,0.000637669673728205
1326.6185243212071,1326.6185243212071,0.9990670867504553,0.0006376548430200537
1326.6254689030188,1326.6254689030188,1.0007853681583065,0.0006379790208191148
1326.6324134848303,1326.6324134848303,0.9994013774771056,0.0006376671227766538
1326.639358066642,1326.639358066642,0.9995803725104995,0.0006376000775705468
1326.6463026484532,1326.6463026484532,0.9998603338260666,0.000637569352293927
1326.653247230265,1326.653247230265,1.0011472776454213,0.0006378361040054976
1326.6601918120652,1326.6601918120652,0.9999880181055186,0.0006372825756339221
1326.6671363938647,1326.6671363938647,0.9995771152224734,0.000637129934796608
1326.674080975665,1326.674080975665,1.0000286674623866,0.0006369145375649459
1326.681025557453,1326.681025557453,1.0007345687075406,0.0006366619629334983
1326.6888034890594,1326.6888034890594,1.0001287734202484,0.0006363628698772357
1326.6963036373777,1326.6963036373777,1.000037628612596,0.0006362573375830927
1326.7032482191776,1326.7032482191776,1.000035312575288,0.0006359355522636888
1326.7104705842194,1326.7104705842194,1.0000853915492165,0.0006357068674291693
1326.7185262990674,1326.7185262990674,0.9997229637260364,0.0006352787629558522
1326.7254708808443,1326.7254708808443,1.001036849349688,0.000635445003449589
1326.7324154625862,1326.7324154625862,1.0001747745602008,0.000635069632801334
1326.739360044351,1326.739360044351,0.9993549889618704,0.000634764197733708
1326.7463046260928,1326.7463046260928,0.9995704486157557,0.0006345566020779061
1326.7532492078456,1326.7532492078456,1.000154853293676,0.0006344848792904631
1326.7601937895877,1326.7601937895877,1.0000582259920912,0.0006342296079691078
1326.7671383713173,1326.7671383713173,1.0003229069028046,0.0006340788955332587
1326.7740829530478,1326.7740829530478,0.9997821335433554,0.0006337989668691676
1326.781027534766,1326.781027534766,0.9992964613995866,0.0006337533978601773
1326.7879721164961,1326.7879721164961,1.0004298377814647,0.0006340016270459231
1326.7949166981914,1326.7949166981914,1.0009849096444468,0.0006339781086607278
1326.8018612799099,1326.8018612799099,1.0006986419041324,0.0006338835600853534
1326.8088058616047,1326.8088058616047,0.9986553821863566,0.0006336239851965646
1326.8157504432997,1326.8157504432997,1.0007886964553179,0.0006339168789779527
1326.8226950249834,1326.8226950249834,1.0001125249774616,0.0006337558238195762
1326.8296396066667,1326.8296396066667,0.9994823887258054,0.0006335012499183949
1326.8365841883387,1326.8365841883387,0.9988073730075607,0.0006333109078264355
1326.843528769999,1326.843528769999,1.0002069639900015,0.0006335437299773324
1326.8504733516825,1326.8504733516825,0.9999333101839916,0.0006335361447421326
1326.8574179333077,1326.8574179333077,1.0002276927465013,0.0006333371747701998
1326.8643625149914,1326.8643625149914,1.0000549674247288,0.0006330721631143272
1326.8713070966164,1326.8713070966164,1.000483176098769,0.0006329029775471872
1326.8782516782417,1326.8782516782417,1.0010355154038266,0.0006326552476861388
1326.885196259867,1326.885196259867,0.9997359950654883,0.0006321129585843927
1326.8921408414924,1326.8921408414924,1.0000179813240613,0.0006316482318532848
1326.899085423106,1326.899085423106,0.9996479017454467,0.0006313564061838793
1326.9060300046847,1326.9060300046847,0.9998998404603853,0.0006310145729950735
1326.912974586298,1326.912974586298,0.999019855268485,0.0006302911179111117
1326.9199191678772,1326.9199191678772,1.0011448518453445,0.0006305108120678829
1326.9268637494556,1326.9268637494556,0.999673525397786,0.0006296435486687329
1326.933808331023,1326.933808331023,1.0002258821787446,0.0006293775650837943
1326.9407529125897,1326.9407529125897,0.999600655491885,0.0006287368862726679
1326.9476974941451,1326.9476974941451,0.9992021772029414,0.0006280381728742348
1326.9546420756892,1326.9546420756892,1.0005776164913622,0.0006279540807231532
1326.9615866572215,1326.9615866572215,0.9989949530290254,0.0006273717362612769
1326.9685312387537,1326.9685312387537,0.9998022236339545,0.0006269740719306148
1326.975475820274,1326.975475820274,1.0009872955763752,0.0006268006185992306
1326.9824204017946,1326.9824204017946,0.999326054402737,0.0006262865214261725
1326.9893649832916,1326.9893649832916,1.0001820920412299,0.0006261958739751946
1326.9963095647777,1326.9963095647777,1.000067307795248,0.0006259844387786751
1327.0032541462629,1327.0032541462629,1.0002633675276957,0.0006259510947170975
1327.010198727737,1327.010198727737,1.0004975512181151,0.0006257984531984254
1327.0171433092105,1327.0171433092105,0.9996508085932918,0.0006255302741822235
1327.024087890673,1327.024087890673,1.0005615743032368,0.0006256926414730322
1327.0310324721122,1327.0310324721122,1.0001226297454793,0.0006255737878317625
1327.0379770535508,1327.0379770535508,0.997945499776729,0.0006251276197806995
1327.0449216349784,1327.0449216349784,1.0002998852225053,0.0006257329845446158
1327.051866216406,1327.051866216406,0.9990228483880375,0.0006253971463687598
1327.059366364328,1327.059366364328,1.000757422918689,0.000625682593999076
1327.0671442954927,1327.0671442954927,0.9999501474341421,0.0006256414200473111
1327.0740888768735,1327.0740888768735,1.0011731995668325,0.0006259300586278381
