time,time,flux,flux_err
1325.2989225633053,1325.2989225633053,0.9999120258417213,0.0003441933383182949
1325.3072557367964,1325.3072557367964,1.0000783834228193,0.00034427770279309573
1325.3148944794564,1325.3148944794564,1.000006656499151,0.0003142990300018684
1325.3218387912193,1325.3218387912193,1.0004367636518754,0.00031438116828902743
1325.3287831031973,1325.3287831031973,0.9999085109343173,0.0003143285085804257
1325.3357274154087,1325.3357274154087,1.0001623990225508,0.00031447176972851035
1325.3426717278348,1325.3426717278348,0.9996583390367366,0.00031444288393703745
1325.3496160404886,1325.3496160404886,0.9999181600950011,0.0003145680477923852
1325.3565603533632,1325.3565603533632,0.999618007234314,0.0003146012412880287
1325.363504666459,1325.363504666459,0.9994138453668141,0.00031466561017871007
1325.370448979776,1325.370448979776,1.000254019863041,0.0003149135188268356
1325.3773932933025,1325.3773932933025,1.0002748373240749,0.00031500028875179956
1325.384337607039,1325.384337607039,1.000703878932981,0.0003151562695760633
1325.3912819209963,1325.3912819209963,0.9998037470052505,0.0003151785865456567
1325.3982262351628,1325.3982262351628,0.9996380846960135,0.00031524747261523167
1325.40517054954,1325.40517054954,1.000390247744071,0.00031540759308160626
1325.4121148641193,1325.4121148641193,1.000070453000359,0.0003154929334924218
1325.4190591789036,1325.4190591789036,0.9995585692667686,0.00031552295564152814
1325.4260034938911,1325.4260034938911,0.9998898293535239,0.0003156973921175397
1325.432947809088,1325.432947809088,0.999810776992315,0.00031575773262294024
1325.4398921244779,1325.4398921244779,1.0001265117825535,0.00031588058485921856
1325.4468364400589,1325.4468364400589,1.0003976239461063,0.0003160228058470709
1325.4537807558554,1325.4537807558554,1.0002320240431524,0.000316074235186186
1325.4607250718268,1325.4607250718268,1.000035402226287,0.00031615660568361074
1325.4676693880015,1325.4676693880015,0.9994062633469131,0.000316169086728421
1325.4746137043633,1325.4746137043633,0.9999076642832806,0.0003163298368775404
1325.4815580209224,1325.4815580209224,0.999973474931485,0.0003164747655225807
1325.488502337668,1325.488502337668,0.9996716502689033,0.00031651270850763675
1325.4954466545937,1325.4954466545937,1.0003213405277815,0.0003167412917219633
1325.5023909717115,1325.5023909717115,1.0005710507022008,0.0003168777757576357
1325.5093352890165,1325.5093352890165,1.0000452685408938,0.00031692284932326534
1325.5162796064892,1325.5162796064892,0.99967267987461,0.00031702224666308625
1325.5232239241543,1325.5232239241543,1.0000247716299846,0.00031714814597649956
1325.5301682419822,1325.5301682419822,1.0002192680423543,0.0003172774690596605
1325.5371125599968,1325.5371125599968,0.9998837024229086,0.00031733252885775525
1325.544056878192,1325.544056878192,0.9998961189246452,0.00031747624181575776
1325.5510011965553,1325.5510011965553,0.9997458389218717,0.000317551677420605
1325.557945515082,1325.557945515082,0.9997011105975633,0.00031765625734300545
1325.5648898337836,1325.5648898337836,1.000123118953994,0.0003178334880353348
1325.571834152659,1325.571834152659,0.9994936820523975,0.00031785972224425754
1325.5787784716981,1325.5787784716981,1.000650823427312,0.00031807891111861335
1325.5857227908998,1325.5857227908998,1.0000900179806624,0.000318115398017142
1325.5926671102702,1325.5926671102702,0.9997099955088455,0.000318141545445513
1325.5996114297982,1325.5996114297982,0.9999542140118152,0.0003182485766717698
1325.606555749489,1325.606555749489,1.0003530840021142,0.00031835610402597696
1325.6135000693428,1325.6135000693428,1.0000209063996284,0.00031832422658244127
1325.620444389348,1325.620444389348,0.9999708632217097,0.00031840435229477706
1325.6273887095103,1325.6273887095103,1.0001377339979176,0.00031843602218612247
1325.6343330298355,1325.6343330298355,0.99916368711031,0.00031829824756258616
1325.6412773503066,1325.6412773503066,1.000005924966588,0.0003184767569143465
1325.6482216709283,1325.6482216709283,0.9996726511967747,0.00031839747444139426
1325.6551659917018,1325.6551659917018,1.000382150791232,0.0003184962279648336
1325.6621103126379,1325.6621103126379,1.000199132965062,0.0003184755840440642
1325.6690546336972,1325.6690546336972,0.9999819520664446,0.000318463546109721
1325.6759989549244,1325.6759989549244,1.0005671197175978,0.0003185769242166775
1325.6829432762802,1325.6829432762802,0.9997904368091216,0.00031848179428033553
1325.6898875977868,1325.6898875977868,1.0002268556252405,0.0003185505262707096
1325.696831919445,1325.696831919445,0.9998530118762108,0.00031855009592807626
1325.7037762412313,1325.7037762412313,1.0000908016680552,0.0003185821866282882
1325.7107205631514,1325.7107205631514,0.9995670272209061,0.0003185886887003211
1325.7176648852171,1325.7176648852171,0.9999621248462734,0.00031872159013667293
1325.7246092074165,1325.7246092074165,0.9996701732400958,0.00031873571943509093
1325.731553529756,1325.731553529756,1.0005200322628955,0.00031890450783012936
1325.738497852229,1325.738497852229,0.9999629662283102,0.00031890208109841756
1325.7454421748357,1325.7454421748357,1.0001884571480713,0.0003190183927424624
1325.7523864975708,1325.7523864975708,0.9998024991469656,0.0003190034171683434
1325.7593308204457,1325.7593308204457,1.000304651345941,0.00031915332834114775
1325.766275143425,1325.766275143425,0.9999068934557119,0.0003191681168010828
1325.7732194665502,1325.7732194665502,0.9995866292882788,0.0003192145091349429
1325.780163789803,1325.780163789803,0.9999733319862842,0.0003193311705456685
1325.7871081131789,1325.7871081131789,1.0001780810382712,0.00031940543731409285
1325.7940524366763,1325.7940524366763,1.0001029721389991,0.0003194929112193535
1325.8009967602961,1325.8009967602961,0.9998759443842482,0.0003195032046756825
1325.8079410840442,1325.8079410840442,1.0002071006291482,0.000319596441269277
1325.8148854079138,1325.8148854079138,1.000233061470602,0.0003196520058310922
1325.821829731889,1325.821829731889,0.999648346368085,0.00031960905477936247
1325.828774055986,1325.828774055986,0.9999228607139902,0.0003196723648508648
1325.8357183802054,1325.8357183802054,0.9999109722675918,0.0003197255507334283
1325.8426627045415,1325.8426627045415,0.9999967530058207,0.0003197716279206461
1325.8496070289873,1325.8496070289873,0.9999158303250951,0.000319761544811806
1325.8565513535618,1325.8565513535618,1.00009510494203,0.00031976919709394313
1325.8634956782294,1325.8634956782294,1.0003730349908893,0.00031977081198947613
1325.8704400030192,1325.8704400030192,0.9999666867009728,0.0003196964799133099
1325.8773843279198,1325.8773843279198,1.0003878336052074,0.00031966061294057214
1325.8843286529307,1325.8843286529307,0.9993606904688551,0.00031946012498870784
1325.891272978041,1325.891272978041,0.9993515902003395,0.00031943471672767374
1325.8982173032668,1325.8982173032668,1.0003455342275203,0.00031952558529623566
1325.9051616285922,1325.9051616285922,1.0002290067929294,0.00031947386562883643
1325.9121059540223,1325.9121059540223,0.9999057883682598,0.000319359077391588
1325.9190502795686,1325.9190502795686,0.9999974233134733,0.0003193559639146157
1325.9259946052027,1325.9259946052027,1.0003297611432778,0.0003193780135624589
1325.9329389309582,1325.9329389309582,1.000168595902271,0.00031936074512543746
1325.9398832568017,1325.9398832568017,0.9998345395385957,0.00031929052414196156
1325.9468275827442,1325.9468275827442,0.9988637400338248,0.0003191126657205163
1325.9537719087912,1325.9537719087912,1.0000131427991046,0.0003192628633809977
1325.9612717810369,1325.9612717810369,1.0007112821750854,0.00031937351466571333
1325.969049426436,1325.969049426436,0.9999939932363029,0.0003192812214564987
1325.9759937527974,1325.9759937527974,1.0000226086632802,0.00031933822935368905
1325.9829380792457,1325.9829380792457,1.0003192298737162,0.00031937930017886826
1325.9898824057937,1325.9898824057937,0.9996447116484785,0.00031931385941747685
1325.9968267324462,1325.9968267324462,0.9999904766274854,0.0003193801044166423
1326.0037710591682,1326.0037710591682,0.9998935417711999,0.00031941797255629896
1326.0107153860013,1326.0107153860013,0.9998534846629766,0.000319472998528954
1326.0176597129098,1326.0176597129098,0.999846528743347,0.00031956765495766784
1326.024604039929,1326.024604039929,0.9997234023577726,0.00031963310018367976
1326.0315483670238,1326.0315483670238,1.0005141931666497,0.0003197965807530601
1326.0384926942056,1326.0384926942056,0.9999897929492734,0.00031968551442747333
1326.045437021487,1326.045437021487,0.9999921626813411,0.0003196597304412771
1326.0523813488492,1326.0523813488492,1.0001596027641189,0.00031972727845593616
1326.0593256762936,1326.0593256762936,0.99999424209893,0.0003196949831113557
1326.066270003819,1326.066270003819,0.9999852185280454,0.00031976390677552406
1326.073214331443,1326.073214331443,0.9996336627891977,0.000319737107959816
1326.0801586591383,1326.0801586591383,1.000163078632799,0.0003198156664072541
1326.0871029869195,1326.0871029869195,0.9999540050502091,0.00031978460501410195
1326.094047314789,1326.094047314789,1.0002266282565917,0.00031984610993852317
1326.100991642739,1326.100991642739,0.9998868327177652,0.0003198097723329776
1326.1079359707594,1326.1079359707594,0.9999099782450493,0.000319847122062953
1326.1148802988612,1326.1148802988612,1.0002808173823414,0.0003198928462645371
1326.121824627056,1326.121824627056,0.9996108728264403,0.0003198238483032363
1326.1287689553208,1326.1287689553208,0.9998119367754625,0.0003198666127821364
1326.1357132836613,1326.1357132836613,1.0008274545851186,0.0003199911439978421
1326.1426576120834,1326.1426576120834,0.999862763250035,0.0003198633701514865
1326.1496019405695,1326.1496019405695,0.9997555573931614,0.0003199115669328117
1326.1565462691424,1326.1565462691424,0.9999431133599718,0.00031989943240268555
1326.163490597792,1326.163490597792,0.9998230205146734,0.00031991548022485233
1326.17043492651,1326.17043492651,1.000235736452664,0.0003199496666628335
1326.1773792553047,1326.1773792553047,1.000064506228253,0.0003199374230090237
1326.184323584169,1326.184323584169,0.9996483545003843,0.00031986060868048567
1326.1912679131087,1326.1912679131087,1.0000352341698013,0.00031991837260753584
1326.198212242119,1326.198212242119,1.000201309181301,0.0003199630227985775
1326.2051565711984,1326.2051565711984,0.9998822518451244,0.00031993384877420245
1326.2121009003483,1326.2121009003483,0.9998273272641127,0.00031992322720292467
1326.2190452295677,1326.2190452295677,1.0001300650593634,0.000319974962206031
1326.2259895588566,1326.2259895588566,0.9999163594753906,0.00031989924199067176
1326.232933888216,1326.232933888216,1.0008546506562983,0.0003200414731045247
1326.2398782176388,1326.2398782176388,1.0002587775847043,0.00031994813627248995
1326.2468225471318,1326.2468225471318,0.9995852741973754,0.00031989865334986487
1326.2537668766947,1326.2537668766947,0.9998504873399062,0.0003199716309622901
1326.2607112063158,1326.2607112063158,0.9999351326648979,0.0003199630196384649
1326.2676555360124,1326.2676555360124,1.0000080327061758,0.0003200111686218256
1326.2745998657613,1326.2745998657613,1.0003116371264893,0.00032000344681256114
1326.2815441955806,1326.2815441955806,1.0003714238541797,0.0003199895256434131
1326.2884885254575,1326.2884885254575,0.999900812540545,0.0003199648220323139
1326.2954328554101,1326.2954328554101,0.99964604979121,0.0003199318095377426
1326.3023771854093,1326.3023771854093,0.999829911041515,0.0003199804674380306
1326.309321515485,1326.309321515485,0.9999539776471039,0.0003199732914152979
1326.316265845618,1326.316265845618,1.0003951268416216,0.00032007528666128245
1326.3232101758035,1326.3232101758035,1.0001984843585239,0.00032005986530028036
1326.3301545060538,1326.3301545060538,1.0001698835875128,0.0003200846625002284
1326.337098836361,1326.337098836361,1.00021993481088,0.0003201049879257557
1326.3440431667389,1326.3440431667389,0.9999510687669628,0.00032014155684865483
1326.3537652293471,1326.3537652293471,1.0004677276220453,0.00032027505058583453
1326.3607095598584,1326.3607095598584,0.9995584360705237,0.00032015407547101443
1326.3676538904342,1326.3676538904342,0.9997009860912023,0.00032021788998128824
1326.37459822105,1326.37459822105,0.9998864032263682,0.0003202628967300513
1326.381542551731,1326.381542551731,1.0000264860591672,0.0003203306766533521
1326.3884868824578,1326.3884868824578,0.9997378665350283,0.0003203365458004957
1326.3954312132544,1326.3954312132544,1.0003845085354588,0.00032047543507139327
1326.4023755440983,1326.4023755440983,1.0000448093941947,0.00032046750799606124
1326.409319875,1326.409319875,1.0001128139601037,0.00032052268865533345
1326.416264205954,1326.416264205954,1.0001189247862425,0.0003204999926459036
1326.42320853696,1326.42320853696,1.0000018512037687,0.0003205647238217121
1326.4301528680187,1326.4301528680187,0.9998314768021931,0.0003205649287071548
1326.4370971991298,1326.4370971991298,0.9996651921061417,0.00032062270251674
1326.444041530288,1326.444041530288,1.0002507226680364,0.0003207150662171022
1326.4509858615152,1326.4509858615152,0.9999792626344753,0.00032069548424497243
1326.4579301927834,1326.4579301927834,1.0002162374694312,0.0003207771071791657
1326.4648745240925,1326.4648745240925,1.0002746784174907,0.0003208063292472798
1326.4718188554657,1326.4718188554657,0.9996851242466969,0.00032080132265706546
1326.4787631868794,1326.4787631868794,0.999524961299565,0.0003207829032525973
1326.4857075183459,1326.4857075183459,1.0003849694368634,0.00032092597419831225
1326.4926518498642,1326.4926518498642,0.9997110939306001,0.0003208563146561195
1326.4995961814238,1326.4995961814238,1.000125984907284,0.0003209651747305431
1326.506540513035,1326.506540513035,0.999772280580039,0.00032092924250123943
1326.5134848446994,1326.5134848446994,1.0002802190151938,0.0003210618061216101
1326.5204291764044,1326.5204291764044,0.9998127540011865,0.00032104469677210273
1326.5273735081678,1326.5273735081678,1.0003752719096561,0.00032114418842190627
1326.5343178399594,1326.5343178399594,1.0000799707599903,0.0003211626308487492
1326.541262171804,1326.541262171804,0.9995827969058876,0.0003211558013227986
1326.5482065037068,1326.5482065037068,0.9999952383471594,0.0003213198733094832
1326.555150835633,1326.555150835633,1.0001136127608459,0.000321322128633368
1326.5620951676171,1326.5620951676171,1.000195547729057,0.00032137897670046116
1326.5690394996423,1326.5690394996423,0.9998800765660698,0.0003213723668076902
1326.575983831714,1326.575983831714,1.0002822577864836,0.00032145895283184993
1326.5829281638257,1326.5829281638257,1.000339717749861,0.0003214610168657695
1326.5898724959848,1326.5898724959848,0.9996260906698667,0.0003214283014783394
1326.5968168281847,1326.5968168281847,0.9997530324612247,0.00032148383507473057
1326.6037611604252,1326.6037611604252,0.9995591554070984,0.00032146503408477716
1326.610705492712,1326.610705492712,1.0001094676791507,0.00032157551557403035
1326.6176498250338,1326.6176498250338,1.0003035073760842,0.0003216165932037571
1326.624594157402,1326.624594157402,1.0000916721716764,0.00032163004167967354
1326.631538489817,1326.631538489817,0.9998974948430857,0.0003216038021039822
1326.6384828222613,1326.6384828222613,1.0007302156394486,0.00032170406460882157
1326.6454271547577,1326.6454271547577,0.9998757521842272,0.0003215897197464591
1326.6523714872835,1326.6523714872835,1.0001199412559676,0.00032161101636518863
1326.65931581985,1326.65931581985,0.9998008450374967,0.0003215270998981251
1326.6662601524565,1326.6662601524565,1.0002439888662253,0.00032155554288672045
1326.6732044851105,1326.6732044851105,0.999838165559223,0.0003214810342190641
1326.6801488177991,1326.6801488177991,0.9996163385913942,0.0003214060774935442
1326.6879264704571,1326.6879264704571,1.0001829690357202,0.00032144532133791045
1326.6954263498385,1326.6954263498385,0.9999471230472976,0.00032139765319242345
1326.7023706826608,1326.7023706826608,1.0002535100315666,0.0003214100400534057
1326.709592788818,1326.709592788818,1.0002044921970508,0.00032134434445779843
1326.717648214968,1326.717648214968,1.000146063741097,0.000321336121276925
1326.7245925478953,1326.7245925478953,0.9999874524358168,0.0003212479411703707
1326.7315368808574,1326.7315368808574,0.9997943293425029,0.00032119475247506204
1326.7384812138603,1326.7384812138603,0.9998193958108696,0.0003211856033632692
1326.7454255468986,1326.7454255468986,0.9999682114515498,0.00032114716088921415
1326.7523698799762,1326.7523698799762,1.000296631696606,0.0003211989595524772
1326.759314213073,1326.759314213073,0.9997582854616441,0.00032112638705462124
1326.766258546215,1326.766258546215,0.9996196648257902,0.00032108223431109016
1326.773202879393,1326.773202879393,0.9997402634972868,0.00032109478859833443
1326.7801472126112,1326.7801472126112,1.0006260906963003,0.00032116474017212203
1326.7870915458468,1326.7870915458468,1.0000347666974125,0.00032110499409837275
1326.7940358791234,1326.7940358791234,1.0000767694809045,0.00032114118175492344
1326.8009802124404,1326.8009802124404,1.0001012324879908,0.00032112759267484674
1326.8079245457752,1326.8079245457752,1.0001077058928378,0.000321129300018402
1326.8148688791562,1326.8148688791562,1.0000796806484384,0.00032119124494733837
1326.821813212567,1326.821813212567,0.9997354566750962,0.0003211205077452801
1326.828757546012,1326.828757546012,0.999774080806979,0.0003211036565494673
1326.8357018794864,1326.8357018794864,1.0002950266397712,0.0003211973228666038
1326.842646212996,1326.842646212996,1.0000083567329132,0.00032115932423334894
1326.8495905465284,1326.8495905465284,0.9998349410093026,0.00032113613464561814
1326.8565348801073,1326.8565348801073,1.000205750255377,0.0003211609551599882
1326.8634792136986,1326.8634792136986,0.9994959438641313,0.0003210434263121234
1326.8704235473301,1326.8704235473301,0.9997327989119975,0.0003209810717348814
1326.8773678809962,1326.8773678809962,0.9998322063099163,0.00032096617241213443
1326.884312214686,1326.884312214686,1.001030729403258,0.0003210383240816018
1326.8912565484106,1326.8912565484106,0.9997607067683244,0.0003208507475810024
1326.8982008821645,1326.8982008821645,0.9998276954868588,0.00032072853952141956
1326.9051452159415,1326.9051452159415,1.0002272677564668,0.0003207485298257132
1326.9120895497533,1326.9120895497533,0.9998088426352671,0.0003205157399169422
1326.9190338835947,1326.9190338835947,1.0001463927165029,0.00032049341903547443
1326.9259782174706,1326.9259782174706,0.9999380559021805,0.00032035542515417036
1326.9329225513586,1326.9329225513586,1.0001542444454175,0.0003203234206558672
1326.9398668852925,1326.9398668852925,0.9997903083386699,0.00032017551857804695
1326.9468112192442,1326.9468112192442,1.000020200332866,0.0003201220182085416
1326.953755553225,1326.953755553225,0.9998025294621808,0.0003200387316927996
1326.960699887229,1326.960699887229,0.9998733606423459,0.00031992907910401245
1326.9676442212622,1326.9676442212622,1.0002015543438703,0.0003199100395284948
1326.97458855533,1326.97458855533,1.0004651897565542,0.0003198971763249521
1326.981532889416,1326.981532889416,0.9996006481254087,0.0003197210804121169
1326.988477223542,1326.988477223542,1.0004129214452164,0.0003197512800202968
1326.995421557686,1326.995421557686,0.9996215674424246,0.0003196081801633774
1327.002365891853,1327.002365891853,0.999822531652776,0.00031965716753874784
1327.0093102260491,1327.0093102260491,1.0001269621160953,0.00031963858463465126
1327.0162545602743,1327.0162545602743,1.0002203687886175,0.00031965255892732876
1327.0231988945172,1327.0231988945172,0.9996881694113012,0.00031956435708889436
1327.030143228795,1327.030143228795,1.0001348297114554,0.0003196428327729358
1327.0370875630956,1327.0370875630956,1.0002339091593924,0.0003196244236723104
1327.0440318974202,1327.0440318974202,1.0001405966583263,0.0003196549070145457
1327.0509762317674,1327.0509762317674,0.9996098922853145,0.00031957799471787483
1327.0584761128894,1327.0584761128894,1.0000598896925106,0.00031964913605422765
1327.0662537674216,1327.0662537674216,0.99999910329698,0.00031962408955034155
