time,time,flux,flux_err
1544.0093371565665,1544.0093371565665,0.9998752646532045,0.0002708962073146938
1544.0169761442583,1544.0169761442583,1.000189328299766,0.00024703002746227467
1544.0239206786096,1544.0239206786096,1.000172824032352,0.0002469265426647598
1544.0308652129606,1544.0308652129606,0.9997272089010322,0.00024679893549389367
1544.0378097473586,1544.0378097473586,0.9999036555676998,0.0002465346852250795
1544.04475428185,1544.04475428185,0.9999995115394871,0.00024645068842855396
1544.051698816341,1544.051698816341,1.0003949362808746,0.00024634252059927656
1544.0586433509247,1544.0586433509247,0.9995336711561842,0.00024609103384120765
1544.0655878854625,1544.0655878854625,0.9998846952800573,0.00024593824067507206
1544.0725324201862,1544.0725324201862,1.0003732274497394,0.00024581130879108
1544.0794769547235,1544.0794769547235,0.9998480710548854,0.0002457846349791696
1544.0864214894013,1544.0864214894013,0.9998195206644862,0.0002455262357392375
1544.0933660242179,1544.0933660242179,0.9996608888345027,0.00024539163240818216
1544.1003105590817,1544.1003105590817,1.0001086799564103,0.0002453985726129043
1544.1072550938052,1544.1072550938052,0.9996022077081979,0.00024514244364642337
1544.1141996287156,1544.1141996287156,1.0004586019139992,0.0002451433012631997
1544.121144163532,1544.121144163532,1.0003095105584006,0.00024500360285927074
1544.1280886984428,1544.1280886984428,1.0003862113232813,0.0002448528393944656
1544.1350332333989,1544.1350332333989,0.9993799449549139,0.00024471066257775084
1544.1419777684023,1544.1419777684023,1.0007230420050406,0.0002447674060445426
1544.1489223034055,1544.1489223034055,0.9998628419316369,0.0002445877349755565
1544.1572557453997,1544.1572557453997,0.99975661755402,0.00024444822970454973
1544.164200280496,1544.164200280496,0.9996738254597476,0.0002444172874179617
1544.1711448154997,1544.1711448154997,1.0001085600169595,0.00024440021655278973
1544.1780893506423,1544.1780893506423,1.0000688402855105,0.0002442213200694987
1544.1850338857855,1544.1850338857855,1.000071154878474,0.0002441448088221081
1544.1919784209283,1544.1919784209283,1.0004540267941562,0.0002441495313539639
1544.1989229561177,1544.1989229561177,1.0000118767623374,0.00024415147888585227
1544.2058674913071,1544.2058674913071,0.9996440530263275,0.00024393455513911853
1544.2128120264965,1544.2128120264965,1.0002269565200508,0.00024399094071046604
1544.2197565617328,1544.2197565617328,1.0000689173287869,0.00024389191061584574
1544.2267010969686,1544.2267010969686,0.9998567200303278,0.00024388768174427245
1544.2336456322514,1544.2336456322514,1.0000251409544116,0.00024380656159036742
1544.2405901675338,1544.2405901675338,1.0001276833972956,0.0002438581960637036
1544.2475347028628,1544.2475347028628,1.000172594025685,0.00024381844552874435
1544.2544792381454,1544.2544792381454,0.9998036373534541,0.0002438469180479661
1544.2614237734747,1544.2614237734747,1.0002335782002525,0.00024372227423609226
1544.268368308757,1544.268368308757,0.9998368962755496,0.00024366823399423962
1544.2753128440866,1544.2753128440866,0.9999550205995702,0.0002436088242690544
1544.2822573795086,1544.2822573795086,1.0001533216418337,0.00024358340600017246
1544.2892019148383,1544.2892019148383,0.9999657872655241,0.00024361778033240151
1544.2961464502137,1544.2961464502137,0.9999112850414151,0.00024355853805432215
1544.3030909855895,1544.3030909855895,0.9999945038155647,0.00024346582978996143
1544.3100355209651,1544.3100355209651,1.0000385767490672,0.00024344665217805413
1544.3169800563874,1544.3169800563874,1.0001837591249298,0.00024343749866070018
1544.3239245918098,1544.3239245918098,0.9995822338840638,0.00024330890353039153
1544.3308691272318,1544.3308691272318,1.0000063885273818,0.00024326205482205808
1544.3378136626077,1544.3378136626077,0.9999626388151418,0.00024328620493863394
1544.34475819803,1544.34475819803,1.0002205444921028,0.00024322028958208628
1544.3517027334524,1544.3517027334524,1.0001588866585847,0.0002431852819845318
1544.3586472688744,1544.3586472688744,0.9997789461120051,0.00024305745818545553
1544.3655918043435,1544.3655918043435,1.0001158595909814,0.00024299999032204364
1544.3725363397657,1544.3725363397657,0.9997437562669,0.00024295055508210956
1544.3794808751877,1544.3794808751877,1.000616421365718,0.00024296373512834672
1544.3864254106102,1544.3864254106102,1.0001478304295657,0.00024286548763958695
1544.393369946079,1544.393369946079,0.9999855915980881,0.0002427326144798688
1544.4003144815013,1544.4003144815013,0.9999120355086628,0.00024270040926355874
1544.407259016924,1544.407259016924,0.9996612684044146,0.00024268037043839296
1544.414203552346,1544.414203552346,1.0000817802512671,0.0002426634234689199
1544.4211480877682,1544.4211480877682,0.9997166364369026,0.00024252409954411482
1544.4280926231907,1544.4280926231907,1.00012962338413,0.00024251571996868653
1544.4350371586129,1544.4350371586129,1.000117558637387,0.0002424655708540996
1544.4419816940353,1544.4419816940353,1.0004515081110046,0.00024249180033064985
1544.448926229411,1544.448926229411,1.00015329277967,0.00024239224719852724
1544.4558707648332,1544.4558707648332,0.9994208199965895,0.0002423193130136877
1544.4628153002554,1544.4628153002554,1.0001378302751778,0.00024225685138560708
1544.4697598356313,1544.4697598356313,0.9999423462604862,0.00024225225192603655
1544.4767043709603,1544.4767043709603,0.9999697046412848,0.00024224800323618647
1544.4836489063825,1544.4836489063825,0.9995884010694823,0.0002422338041560418
1544.4905934417118,1544.4905934417118,1.0002730288903616,0.0002422986578797663
1544.4975379771342,1544.4975379771342,1.0000966846723838,0.00024216755596066975
1544.5044825124166,1544.5044825124166,1.0000616702679426,0.0002421961429917564
1544.5114270477457,1544.5114270477457,0.9997632121888944,0.00024209542066047163
1544.5183715830751,1544.5183715830751,1.00016894286316,0.00024222496286877238
1544.5253161184505,1544.5253161184505,1.0002601369128084,0.0002421497350018946
1544.5322606537798,1544.5322606537798,1.0001372398562836,0.0002422033109043641
1544.5392051889694,1544.5392051889694,0.9997036728199948,0.00024211830234237763
1544.5461497242518,1544.5461497242518,1.0001789051682068,0.00024217720309418377
1544.553094259581,1544.553094259581,1.0000351349352967,0.00024208426790045976
1544.5600387948173,1544.5600387948173,1.000395547891976,0.00024216333392861164
1544.566983330053,1544.566983330053,0.9996042095024797,0.00024206950208824173
1544.5739278652425,1544.5739278652425,1.0000627497047114,0.00024208679144133087
1544.5808724004785,1544.5808724004785,1.0001181365461338,0.00024207980511492582
1544.5878169356677,1544.5878169356677,1.0000957909626995,0.00024209947155330662
1544.5947614708577,1544.5947614708577,1.0002416479303282,0.00024205137996780547
1544.601706006047,1544.601706006047,1.0003481300162644,0.0002420644955985431
1544.608650541143,1544.608650541143,0.9997959632509392,0.00024200057427191472
1544.6155950763327,1544.6155950763327,0.9999244357165298,0.00024210136793565082
1544.6225396114291,1544.6225396114291,0.9996121586016556,0.0002421077588238796
1544.6294841464787,1544.6294841464787,0.9999142714814644,0.00024197947892961772
1544.6367064629642,1544.6367064629642,1.0000717322602466,0.00024200317910693368
1544.6447621236625,1544.6447621236625,1.0003055295048988,0.00024207250493900816
1544.6517066586662,1544.6517066586662,0.9999243946554686,0.00024190270962349105
1544.658651193669,1544.658651193669,1.0001745981406671,0.00024199674653791262
1544.665595728719,1544.665595728719,1.00025045411604,0.00024199503469497482
1544.6725402636755,1544.6725402636755,0.999906631860983,0.0002419282812670958
1544.6794847986318,1544.6794847986318,1.0001004590015554,0.00024197197384966652
1544.6864293335423,1544.6864293335423,0.9998883492786174,0.00024187959839178991
1544.6933738684986,1544.6933738684986,0.9996018291324644,0.00024191167008060844
1544.7003184033624,1544.7003184033624,1.0001681789777028,0.00024192026883424573
1544.707262938179,1544.707262938179,1.000214912967575,0.0002419944438181787
1544.7142074731357,1544.7142074731357,0.9999131482743258,0.00024190271068909314
1544.7211520078592,1544.7211520078592,0.9996410569983103,0.00024188259064451554
1544.7280965426767,1544.7280965426767,0.9999698119578101,0.00024182287597985489
1544.7350410775402,1544.7350410775402,0.9998705570038181,0.0002418419395149226
1544.7419856122638,1544.7419856122638,1.0001931768576287,0.00024185056888929342
1544.7489301469875,1544.7489301469875,1.0001674752388403,0.00024186355304141663
1544.7558746817115,1544.7558746817115,0.9999169179884468,0.0002418816104519189
1544.7628192163886,1544.7628192163886,0.999928972973635,0.00024184410822953518
1544.7697637509261,1544.7697637509261,0.9998554471393877,0.0002418402920254964
1544.7767082856496,1544.7767082856496,0.9999991336529087,0.00024183798379868128
1544.7836528201874,1544.7836528201874,1.0001766459474468,0.00024198829981010713
1544.790597354818,1544.790597354818,1.0000577029722797,0.00024181430471769614
1544.797541889356,1544.797541889356,0.9998617391905757,0.00024178414579823572
1544.8044864238464,1544.8044864238464,0.9996292096654249,0.00024172774763903015
1544.8114309583839,1544.8114309583839,1.0002654072624062,0.00024182150856622456
1544.8183754928284,1544.8183754928284,0.9997447040671092,0.00024183249874949728
1544.8253200272725,1544.8253200272725,0.9997156390891057,0.0002417995678128745
1544.8322645616706,1544.8322645616706,1.000471131802279,0.00024190906755023537
1544.8392090960683,1544.8392090960683,1.0007273895495548,0.0002418827460241721
1544.8461536304196,1544.8461536304196,0.9997598484574028,0.0002418417639875455
1544.8530981647245,1544.8530981647245,1.0002265414392808,0.00024183971649256803
1544.8600426990756,1544.8600426990756,0.9995230885206755,0.00024172924604774613
1544.8669872333337,1544.8669872333337,0.9998693111119842,0.0002417844603184134
1544.8739317675454,1544.8739317675454,0.999935137970336,0.00024175512835807348
1544.8808763018033,1544.8808763018033,0.9997364923186097,0.00024179388090184221
1544.887820835922,1544.887820835922,0.9997929688731053,0.00024178609554016705
1544.894765370087,1544.894765370087,1.0001121969815618,0.00024179030424679193
1544.9017099042053,1544.9017099042053,1.0002090130299852,0.00024177044661047106
1544.9086544382772,1544.9086544382772,1.0001753541921072,0.00024174305212634745
1544.915598972349,1544.915598972349,0.9999686471234559,0.00024178755300724124
1544.922543506374,1544.922543506374,1.0001703897181808,0.00024165833162747554
1544.929488040353,1544.929488040353,1.000201288632225,0.00024170187831913824
1544.936432574285,1544.936432574285,1.0000130056551666,0.00024164844672910712
1544.9433771082172,1544.9433771082172,0.9998178834542761,0.0002415742819705631
1544.9503216421497,1544.9503216421497,0.9999184048119943,0.00024164114146778645
1544.9572661759885,1544.9572661759885,1.0000420456809012,0.0002415741267921997
1544.9642107098275,1544.9642107098275,0.9999636036697803,0.00024163228701536542
1544.9711552436202,1544.9711552436202,0.9996294515182772,0.00024158398020932077
1544.9780997773657,1544.9780997773657,1.000182542858042,0.0002416588704668998
1544.985044311065,1544.985044311065,0.9999073348192166,0.00024162183803706072
1544.9919888448107,1544.9919888448107,1.0003339652523993,0.00024160438524372876
1544.998933378417,1544.998933378417,0.9998083223599001,0.00024156563018530448
1545.005877911977,1545.005877911977,1.0000213170454717,0.00024157976502099454
1545.012822445676,1545.012822445676,0.9999660817445009,0.00024156659532834418
1545.0197669791428,1545.0197669791428,0.9998730172056398,0.00024156864403523378
1545.0267115126555,1545.0267115126555,1.0001919219011366,0.00024157912451727102
1545.0336560462156,1545.0336560462156,0.9999301325947192,0.00024155501754450831
1545.040600579635,1545.040600579635,1.0000695010429657,0.00024151753219841778
1545.047545113102,1545.047545113102,1.0000290537996745,0.0002415343543050966
1545.0544896464285,1545.0544896464285,0.9999920620603936,0.00024147274688264992
1545.061434179755,1545.061434179755,0.9998429236452893,0.00024147477241147426
1545.0683787130356,1545.0683787130356,0.9999055761166838,0.00024154279113319118
1545.075323246316,1545.075323246316,1.0004848121740455,0.00024155453525733097
1545.0822677795961,1545.0822677795961,0.9999662285882771,0.00024150498103188428
1545.0892123127367,1545.0892123127367,0.9998013841904374,0.00024150240948315262
1545.0961568459236,1545.0961568459236,0.9998837323631182,0.00024145310314047525
1545.1031013790177,1545.1031013790177,0.9997625246358479,0.00024139219209797744
1545.1100459121114,1545.1100459121114,1.0003336112624734,0.00024146266725580395
1545.1169904451588,1545.1169904451588,1.0002151540897628,0.00024150260469905254
1545.123934978113,1545.123934978113,1.000152129776041,0.000241403501103333
1545.1308795111138,1545.1308795111138,0.9995446288563408,0.00024140877280364693
1545.1378240440217,1545.1378240440217,1.000003817061165,0.00024144310433223473
1545.1447685769294,1545.1447685769294,1.000142560367057,0.0002414229917448327
1545.151713109744,1545.151713109744,1.0001466147894458,0.00024142828027890942
1545.1586576426052,1545.1586576426052,0.9996668708851951,0.00024138863644402258
1545.1656021753265,1545.1656021753265,0.9999245553338116,0.00024141181753758743
1545.1725467080475,1545.1725467080475,1.0002629439757402,0.00024141169596385883
1545.1794912407693,1545.1794912407693,0.9997588100646476,0.00024137556238219547
1545.1864357733975,1545.1864357733975,1.0002832185977835,0.00024143461919488526
1545.193380306026,1545.193380306026,0.9999924762011447,0.00024130315917244395
1545.2003248386075,1545.2003248386075,0.9999151261560855,0.0002412537140022361
1545.207269371143,1545.207269371143,0.9997578632355747,0.00024123921732675937
1545.2142139036316,1545.2142139036316,1.0004029933352776,0.00024132424666130792
1545.221158436027,1545.221158436027,0.9999762241900669,0.00024133693572020784
1545.2281029684223,1545.2281029684223,1.0000286241336318,0.0002412711489651887
1545.235047500818,1545.235047500818,0.9999956377210275,0.00024135937368435748
1545.2419920332131,1545.2419920332131,0.9997555225343289,0.00024131742627458893
1545.2489365653757,1545.2489365653757,0.9998791771995752,0.00024131930806264046
1545.2558810976782,1545.2558810976782,1.0002090103616896,0.00024136754963834223
1545.2628256298872,1545.2628256298872,1.000136222566292,0.00024132842682743987
1545.2697701620502,1545.2697701620502,0.9999632491892374,0.00024135165564666007
1545.276714694166,1545.276714694166,0.9999423779426475,0.00024143795804728975
1545.2836592262356,1545.2836592262356,0.9997602006277037,0.0002413154372115237
1545.2906037582586,1545.2906037582586,1.000419303316828,0.00024142460323228195
1545.2975482902348,1545.2975482902348,1.0002854295509174,0.00024140781081861376
1545.3044928222116,1545.3044928222116,0.9997022864988688,0.00024132724726265951
1545.3114373540946,1545.3114373540946,1.0004510503539366,0.00024135277564560153
1545.3183818859777,1545.3183818859777,0.9998282916772832,0.0002413819049583435
1545.3253264178143,1545.3253264178143,0.9999500652603102,0.0002413409680809732
1545.3322709495112,1545.3322709495112,0.9999958186590641,0.00024134774853981986
1545.3392154813014,1545.3392154813014,1.0000585267678823,0.00024128148495376227
1545.3461600129517,1545.3461600129517,1.0000865012833808,0.00024131876921474146
1545.3531045446489,1545.3531045446489,1.0001446399700415,0.00024128920059843074
1545.360049076206,1545.360049076206,1.0000469331686448,0.0002413329086357339
1545.36699360781,1545.36699360781,1.0000416632964815,0.0002412542220710014
1545.373938139274,1545.373938139274,1.0001447904820828,0.00024124029055231635
1545.3808826707382,1545.3808826707382,1.000098466824158,0.00024124881031565532
1545.387827202156,1545.387827202156,0.9996431903587479,0.00024124493498885923
1545.394771733573,1545.394771733573,1.0002169332353787,0.00024130587903765135
1545.4017162648513,1545.4017162648513,0.9996430999745465,0.0002412554120566421
1545.4086607962688,1545.4086607962688,0.9999874926378534,0.0002412390373925774
1545.4156053275,1545.4156053275,1.0000705583262217,0.00024131499745454627
1545.4225498586852,1545.4225498586852,1.0000066206045204,0.00024126014569707125
1545.4294943897298,1545.4294943897298,1.0002023753998746,0.0002412803216709752
1545.4364389209147,1545.4364389209147,1.0002910506758034,0.00024125657870479044
1545.4433834519596,1545.4433834519596,1.0002513656722145,0.00024129399275442452
1545.450327982958,1545.450327982958,1.0006866360577304,0.0002412778890790158
1545.45727251391,1545.45727251391,0.9995784790981371,0.00024123479424211316
1545.4642170448617,1545.4642170448617,0.9999194549678491,0.00024120298852872536
1545.4711615757205,1545.4711615757205,1.0001975112010446,0.00024126007910869958
1545.4781061065796,1545.4781061065796,1.00009694255334,0.00024115544802734063
1545.4850506373919,1545.4850506373919,0.99945539437396,0.00024112714589305775
1545.4919951681106,1545.4919951681106,0.9999628973858371,0.00024126186857235973
1545.4989396988299,1545.4989396988299,0.9997619931306015,0.00024119884754211963
1545.505884229502,1545.505884229502,1.0000896710609086,0.0002411998047631081
1545.512828760082,1545.512828760082,1.0004579678751093,0.00024129797872345722
1545.5197732906142,1545.5197732906142,0.9999041592700515,0.00024121953525488003
1545.5267178211475,1545.5267178211475,1.0000326865977058,0.00024123298120699673
1545.533662351587,1545.533662351587,0.9997796138690436,0.00024119599873754396
1545.540606882027,1545.540606882027,1.0001520702479045,0.0002413242656963902
1545.547551412373,1545.547551412373,1.0001166385046514,0.000241261792573905
1545.5544959427198,1545.5544959427198,0.9999809758257543,0.0002411910606174674
1545.5614404729731,1545.5614404729731,1.000052285092938,0.00024116845517175735
1545.56838500318,1545.56838500318,0.9998036903827098,0.0002412528524245496
1545.5753295333866,1545.5753295333866,0.9999044350683988,0.00024120373651009206
1545.5822740635472,1545.5822740635472,1.000179238365566,0.00024125467584304545
1545.5892185936143,1545.5892185936143,0.9999885895580718,0.00024128715620785768
1545.5961631236814,1545.5961631236814,0.9998398366761359,0.0002411499714759631
1545.6031076535623,1545.6031076535623,1.0002723245794958,0.00024132673702723434
1545.6100521835829,1545.6100521835829,0.9996020120333075,0.00024125429949654127
1545.6169967134172,1545.6169967134172,0.9999664315628305,0.0002411644570645307
1545.6239412432976,1545.6239412432976,0.9998228297000985,0.00024125113565686007
1545.6308857730394,1545.6308857730394,1.000121589522486,0.0002412564939358867
1545.6378303028268,1545.6378303028268,1.0003546089132695,0.00024126610563225673
1545.6447748325218,1545.6447748325218,0.9997143036802585,0.00024117472506718476
1545.6517193621696,1545.6517193621696,0.9999858691695309,0.00024126718875949198
1545.6586638917713,1545.6586638917713,1.0001432464323052,0.0002412719271537606
1545.6656084212796,1545.6656084212796,0.9999736821247792,0.00024119761855536298
1545.6725529507416,1545.6725529507416,0.9997003357517009,0.00024121113210476747
1545.6794974802494,1545.6794974802494,1.0001724104296235,0.000241236596366034
1545.686442009665,1545.686442009665,1.0000933298028367,0.00024127292066720112
1545.6933865390333,1545.6933865390333,0.9995853413703116,0.000241257830361715
1545.700331068309,1545.700331068309,0.9997790060899414,0.00024122957155571343
1545.7072755975846,1545.7072755975846,0.999959520437619,0.00024121216178558345
1545.7142201267666,1545.7142201267666,0.9996689606507768,0.000241264632028487
1545.721164655903,1545.721164655903,1.0004397064021942,0.0002413020699827488
1545.7281091849918,1545.7281091849918,1.0003261844713538,0.00024124948469850032
1545.735053714081,1545.735053714081,0.9997984213458618,0.00024125753795770885
1545.7419982430308,1545.7419982430308,0.9997899379695989,0.00024126351184240103
1545.74894277212,1545.74894277212,0.9999170091338578,0.00024125003053077228
1545.755887301023,1545.755887301023,1.000563535842945,0.00024127979165059323
