time,time,flux,flux_err
1517.366503947063,1517.366503947063,0.9997187353688183,0.00041479456059875016
1517.3751151035478,1517.3751151035478,1.0003987786583866,0.000394131331952002
1517.3823373640894,1517.3823373640894,1.000181374015351,0.0003835679035638554
1517.3892818457591,1517.3892818457591,1.000057133390396,0.00037511490137568553
1517.3962263277085,1517.3962263277085,1.000316753432828,0.00036780329382804153
1517.4045597064385,1517.4045597064385,1.000167963701258,0.0003595422792230439
1517.4115041890395,1517.4115041890395,0.9996984586700532,0.0003534038652530761
1517.4184486719205,1517.4184486719205,1.0003485321680474,0.0003477557170885355
1517.425393155173,1517.425393155173,0.9999185156553858,0.0003424429809297749
1517.4323376386124,1517.4323376386124,0.9994699258299817,0.0003377310269182667
1517.4392821220517,1517.4392821220517,0.9999849677051345,0.00033334055093640056
1517.4462266060498,1517.4462266060498,0.9999817144473402,0.00032943127039436536
1517.453171090141,1517.453171090141,0.9997426675478207,0.0003259492542453699
1517.4601155745117,1517.4601155745117,1.0000762931544194,0.00032269317759558395
1517.4670600589754,1517.4670600589754,1.00040895901213,0.00031970565981153244
1517.4740045438116,1517.4740045438116,1.0000563062062144,0.0003169917790514246
1517.4809490288344,1517.4809490288344,0.9995868270791295,0.00031443051245897715
1517.48789351395,1517.48789351395,0.999637159384805,0.0003118970944213683
1517.4948379993452,1517.4948379993452,1.0008372416893838,0.0003095038775980687
1517.5017824851125,1517.5017824851125,1.000231579330755,0.00030716741805582673
1517.5087269707874,1517.5087269707874,0.9999399703407785,0.00030493767667996187
1517.5156714566479,1517.5156714566479,1.0002184324845476,0.0003029264268651204
1517.522615942695,1517.522615942695,0.999873162156106,0.00030084538010491607
1517.5295604289283,1517.5295604289283,0.9999918426321347,0.00029903603380624613
1517.5365049153475,1517.5365049153475,1.000079604370749,0.0002971472965153581
1517.5434494018602,1517.5434494018602,1.0003403233468817,0.0002954748798054804
1517.550393888559,1517.550393888559,0.9998691254783557,0.0002939707978743593
1517.5573383753515,1517.5573383753515,0.9999520033339024,0.0002923572829259809
1517.56428286233,1517.56428286233,0.9996925728013493,0.00029092113199889703
1517.5712273494944,1517.5712273494944,0.9998563855367933,0.00028960258729970775
1517.5781718366586,1517.5781718366586,1.0004484211763462,0.00028829504183156565
1517.58511632401,1517.58511632401,1.0005458108861904,0.0002870566823079374
1517.592060811547,1517.592060811547,1.0000823867439605,0.0002857571138049028
1517.599005299084,1517.599005299084,0.9999565761683945,0.0002846299573081596
1517.6059497868077,1517.6059497868077,1.0002847089580258,0.0002835121567172891
1517.6128942746236,1517.6128942746236,1.0001904422178107,0.00028244669445699115
1517.6198387623476,1517.6198387623476,0.999595420889331,0.00028153473970750836
1517.6267832503504,1517.6267832503504,0.9998907372235,0.00028047722297229824
1517.633727738446,1517.633727738446,1.0004566222807634,0.0002796277635509564
1517.640672226542,1517.640672226542,0.9998863911609563,0.0002786535486034449
1517.6476167149171,1517.6476167149171,1.000135928625759,0.00027780187832099525
1517.6545612031996,1517.6545612031996,0.999514484094324,0.00027703753078324716
1517.6615056915748,1517.6615056915748,0.9997756790244681,0.00027620565229825384
1517.6684501800432,1517.6684501800432,1.0000585644609796,0.0002754614871233136
1517.6753946686047,1517.6753946686047,1.000441571407072,0.00027478390385675383
1517.6823391571666,1517.6823391571666,1.000764572921518,0.0002740098820185044
1517.689283645821,1517.689283645821,0.9998518294903608,0.0002733014044067992
1517.696228134476,1517.696228134476,1.0002175851036277,0.0002725815327626218
1517.7031726233167,1517.7031726233167,1.0004746483511435,0.00027195457348166334
1517.7101171120644,1517.7101171120644,0.9998269162227089,0.00027110965164620874
1517.7170616009055,1517.7170616009055,0.9998726522368854,0.00027041871781029235
1517.7240060898396,1517.7240060898396,0.999381996733361,0.00026968469640140135
1517.730950578774,1517.730950578774,0.9998393917373782,0.0002691647119057564
1517.737895067801,1517.737895067801,0.999942321325696,0.00026839481259792876
1517.7448395567349,1517.7448395567349,1.000061860276386,0.0002676941866762924
1517.7517840457622,1517.7517840457622,1.000155004541956,0.0002670716432949727
1517.7587285348827,1517.7587285348827,1.0006245364207749,0.0002664690660634158
1517.7656730240028,1517.7656730240028,1.000581302002017,0.0002658682012772448
1517.7726175131236,1517.7726175131236,1.0001191983642355,0.0002652502051142474
1517.779562002337,1517.779562002337,0.9998516390086027,0.0002646651147039036
1517.7865064914574,1517.7865064914574,1.0001875923003443,0.0002640281873473321
1517.7934509805777,1517.7934509805777,0.9997178921594324,0.0002634206077695747
1517.8003954698843,1517.8003954698843,0.9997681639258106,0.0002628926918758274
1517.8073399590976,1517.8073399590976,0.9998021249505754,0.0002623854869985876
1517.8142844484046,1517.8142844484046,1.000109669193061,0.0002618597761449843
1517.821228937432,1517.821228937432,1.0000613778635892,0.00026142205807304093
1517.8281734266452,1517.8281734266452,1.0000937060119768,0.0002609442622783106
1517.8351179159517,1517.8351179159517,1.000099402705415,0.0002607478794883239
1517.8420624051655,1517.8420624051655,0.9999922923630642,0.00026020191539229847
1517.8490068944718,1517.8490068944718,1.0000397534790015,0.000259894719716905
1517.8559513836854,1517.8559513836854,0.9998025071065101,0.00025944300682932155
1517.862895872992,1517.862895872992,1.0002275999039476,0.00025909039959573423
1517.8698403622054,1517.8698403622054,0.9999505067378754,0.0002587215655464629
1517.8767848515124,1517.8767848515124,1.0001595179076421,0.0002585184292563568
1517.8837293406323,1517.8837293406323,0.9997667611508165,0.0002582233814056133
1517.8906738297526,1517.8906738297526,1.000034948827498,0.0002579789657109506
1517.8976183190596,1517.8976183190596,1.0001902317655607,0.0002577561989734152
1517.90456280818,1517.90456280818,1.0002591047845297,0.00025755446731515273
1517.9115072973004,1517.9115072973004,0.9994689671109012,0.0002572867946578934
1517.9184517865137,1517.9184517865137,1.0000324403618648,0.00025709497187789454
1517.9253962756343,1517.9253962756343,0.9998306578517644,0.00025684176733119316
1517.9323407646611,1517.9323407646611,0.999741584332026,0.0002566415988858259
1517.9392852537817,1517.9392852537817,1.0002789037439557,0.0002564577115001652
1517.9473408609972,1517.9473408609972,1.000074654461097,0.0002563607525533514
1517.9545631296419,1517.9545631296419,0.9997320449458048,0.0002560865232075542
1517.9615076186687,1517.9615076186687,1.0003696632097674,0.0002559160213026182
1517.9684521076028,1517.9684521076028,1.0001019365511459,0.00025579714045351947
1517.975396596537,1517.975396596537,0.9995043581780448,0.00025569766257575624
1517.982341085378,1517.982341085378,1.000168872692401,0.00025555241304701405
1517.9892855743121,1517.9892855743121,0.9997767479738068,0.0002552883457194585
1517.9962300631535,1517.9962300631535,1.0000832713300654,0.00025524477509057935
1518.0031745519007,1518.0031745519007,0.999856254573908,0.00025508016519840214
1518.0101190406488,1518.0101190406488,1.000145518550965,0.0002549444173507455
1518.0170635293966,1518.0170635293966,1.0003703312205872,0.00025481555549371253
1518.024008018051,1518.024008018051,0.9996194744284189,0.0002547270650299708
1518.0309525067062,1518.0309525067062,0.9998196542993558,0.0002544592868147759
1518.0378969953606,1518.0378969953606,1.0000525957916682,0.00025437641493718336
1518.0448414839223,1518.0448414839223,1.0001929850570621,0.00025435441764321167
1518.0517859723907,1518.0517859723907,0.9996799809331975,0.00025410373586938354
1518.0587304608594,1518.0587304608594,0.9999075409578086,0.000253964669036439
1518.065674949234,1518.065674949234,1.0004278318764779,0.00025387324515425464
1518.0726194377032,1518.0726194377032,1.0002218689260132,0.00025378570348012997
1518.0795639258918,1518.0795639258918,0.9999954351472382,0.00025353731780482425
1518.0865084143602,1518.0865084143602,0.9994185310978494,0.000253455015949413
1518.0934529025494,1518.0934529025494,1.000120517390892,0.00025342401467511017
1518.1003973906452,1518.1003973906452,1.0003225632324493,0.0002533187549970125
1518.1073418787412,1518.1073418787412,0.9998646743880799,0.00025317038305137376
1518.114286366837,1518.114286366837,1.0000913852943227,0.0002530124691955184
1518.121230854933,1518.121230854933,0.9996966018938027,0.0002528449531321854
1518.128175343029,1518.128175343029,1.0003576348243217,0.00025280136273416105
1518.135119830659,1518.135119830659,1.0000219707869267,0.00025276195796192366
1518.1420643186618,1518.1420643186618,0.9998113487950372,0.000252587644648985
1518.1490088063852,1518.1490088063852,0.99973640978417,0.00025244704028541855
1518.1559532941087,1518.1559532941087,1.0002051141078012,0.0002523846583901232
1518.1628977818318,1518.1628977818318,1.0002716234270261,0.00025225876665857457
1518.1698422694622,1518.1698422694622,0.9995051998289053,0.0002521180415464817
1518.176786757093,1518.176786757093,0.9999294464303101,0.0002520495777166388
1518.1837312445364,1518.1837312445364,1.0000474483975392,0.0002519396330634917
1518.1906757319805,1518.1906757319805,1.0000463811248443,0.00025198917444258336
1518.1976202193314,1518.1976202193314,0.9999415406939253,0.00025172256065104416
1518.2045647066818,1518.2045647066818,1.000240476574047,0.0002517398028003616
1518.21150919394,1518.21150919394,0.9998261332328242,0.0002516412278370613
1518.2184536811044,1518.2184536811044,1.000048997259173,0.0002516218022855409
1518.225398168269,1518.225398168269,0.9997060755124659,0.0002514705700699249
1518.2323426552475,1518.2323426552475,0.9999974827314103,0.00025146726850950365
1518.2392871422257,1518.2392871422257,1.0001084504817317,0.0002515064367618687
1518.2462316291108,1518.2462316291108,1.0001873095840803,0.0002513292922445385
1518.2531761160892,1518.2531761160892,0.9999054038397338,0.00025137531420830583
1518.2601206028814,1518.2601206028814,1.000077123908507,0.00025132832205711827
1518.2673428690105,1518.2673428690105,1.000361156542432,0.00025132420409184887
1518.275398473619,1518.275398473619,0.9996395256418564,0.0002511867548270014
1518.2823429601315,1518.2823429601315,0.99983825137145,0.0002511495817846393
1518.289287446644,1518.289287446644,1.0000117999966895,0.00025106174400200244
1518.2962319329704,1518.2962319329704,1.000272889333748,0.00025099496901522753
1518.30317641939,1518.30317641939,0.9999411044714008,0.0002509157531312557
1518.3101209057163,1518.3101209057163,1.0004817310722685,0.0002510207819511252
1518.3184542891033,1518.3184542891033,1.0001207196509427,0.0002509438134783978
1518.32539877515,1518.32539877515,0.9997595520987191,0.00025074888109187597
1518.3323432613838,1518.3323432613838,0.999804348385435,0.0002507861672645789
1518.339287747151,1518.339287747151,0.9999792786116508,0.00025082606822323473
1518.3462322332912,1518.3462322332912,0.9997176857015196,0.0002506770826781083
1518.353176719152,1518.353176719152,1.0002517477701,0.00025066935052262126
1518.3601212049193,1518.3601212049193,1.0001555186233912,0.0002506573156834984
1518.3670656903146,1518.3670656903146,0.9998935078650616,0.0002505859167598518
1518.374010175989,1518.374010175989,1.0001585489398395,0.00025060380457752495
1518.3809546615698,1518.3809546615698,0.9998274950594626,0.000250458504467611
1518.3878991470585,1518.3878991470585,1.0000264503997305,0.0002504085356044418
1518.3948436323603,1518.3948436323603,0.9997361626680398,0.00025029903757236644
1518.4017881176624,1518.4017881176624,1.0003616270086149,0.00025039604963543433
1518.4087326028712,1518.4087326028712,1.000087061907053,0.0002502166403283549
1518.4165104262788,1518.4165104262788,0.9999047492901854,0.0002503092159275342
1518.4240104700698,1518.4240104700698,1.000061063262006,0.00025021732139884125
1518.4309549549994,1518.4309549549994,0.9999916745880679,0.00025019341566471273
1518.4378994398353,1518.4378994398353,0.9999255284208548,0.000250118018673922
1518.4448439246714,1518.4448439246714,0.9996620854666729,0.00024999854473284154
1518.4517884094148,1518.4517884094148,1.000029748401732,0.00025014660536603267
1518.458732894065,1518.458732894065,1.0003615333664864,0.00025005687959738686
1518.467066275496,1518.467066275496,0.9998525845417309,0.00024989931233188257
1518.4740107599596,1518.4740107599596,1.0002509376816722,0.00024997290533592607
1518.4809552443305,1518.4809552443305,1.0003097321462167,0.0002499334934260457
1518.4878997286078,1518.4878997286078,0.9999315937320985,0.000249993788516533
1518.4948442127923,1518.4948442127923,1.000202143124304,0.00024990609707644713
1518.5017886969763,1518.5017886969763,0.999903269385689,0.0002499260768234155
1518.5087331809743,1518.5087331809743,1.0001325237875593,0.000249955021177985
1518.5156776649724,1518.5156776649724,0.9997399768339136,0.00024992021893022626
1518.5226221487842,1518.5226221487842,0.9997279298051511,0.0002497754743937535
1518.529566632503,1518.529566632503,1.000175881514382,0.0002499321594479417
1518.5365111164078,1518.5365111164078,0.9997088770828771,0.0002498022271612644
1518.543455599847,1518.543455599847,1.0000873747946453,0.0002498296545426129
1518.5504000832866,1518.5504000832866,1.000267459772167,0.0002499160931498681
1518.557344566726,1518.557344566726,1.0002828639810162,0.00024983162979810684
1518.5642890501654,1518.5642890501654,1.0000915437071334,0.0002497970392620141
1518.5712335336043,1518.5712335336043,0.9998164267416968,0.0002497956941447125
1518.5781780167642,1518.5781780167642,1.0001862905951553,0.00024979701202341705
1518.5851224999242,1518.5851224999242,0.9997255354461323,0.00024970489843830466
1518.5920669828981,1518.5920669828981,0.9997821852496462,0.000249708328462935
1518.5990114657782,1518.5990114657782,0.9996041889993528,0.00024982875472798774
1518.605955948659,1518.605955948659,1.0002175229875427,0.00024982525384629133
1518.6129004314462,1518.6129004314462,1.0002557854966965,0.0002497957193350239
1518.61984491414,1518.61984491414,1.0002276312584735,0.0002498624203488077
1518.626789396648,1518.626789396648,1.0001444227876068,0.0002497894871415944
1518.6337338791564,1518.6337338791564,0.9999087744523509,0.00024979165998646605
1518.6406783615712,1518.6406783615712,1.0000373826165787,0.00024991645385108376
1518.6476228438928,1518.6476228438928,0.9998231824648846,0.0002497743717247238
1518.6545673261214,1518.6545673261214,1.0002164997750478,0.000249821684144815
1518.6615118082568,1518.6615118082568,0.9998178939102091,0.00024977122240040325
1518.6684562902992,1518.6684562902992,0.999746832334791,0.0002497529246822053
1518.6754007723416,1518.6754007723416,1.0000464133384708,0.0002497920359274277
1518.6823452541971,1518.6823452541971,0.9998502744693422,0.00024976864218007245
1518.68928973596,1518.68928973596,1.0000789653063378,0.00024975514165768715
1518.6962342176298,1518.6962342176298,1.0000433631250076,0.0002498726048230264
1518.7031786993,1518.7031786993,1.000033555137708,0.00024984732550915054
1518.710123180783,1518.710123180783,1.0000251600335717,0.00024985486360611895
1518.7170676620804,1518.7170676620804,1.0000167397767297,0.00024967354255634036
1518.724012143657,1518.724012143657,1.0001698719240089,0.0002496285402523269
1518.7309566247682,1518.7309566247682,0.9999659138031889,0.0002497865527017244
1518.7379011058792,1518.7379011058792,1.0001227574248923,0.0002497994451618105
1518.74484558699,1518.74484558699,0.9997846367671936,0.00024983266181849266
1518.751790068008,1518.751790068008,1.000018515384127,0.0002498379376981567
1518.7587345487464,1518.7587345487464,1.0007030111271706,0.00024990586449359273
1518.7656790295782,1518.7656790295782,0.9997816089823969,0.00024978265795878917
1518.7726235103162,1518.7726235103162,1.0001992426704016,0.0002497499797847771
1518.779567990869,1518.779567990869,0.999749879050837,0.0002497875320260339
1518.7865124714208,1518.7865124714208,1.000448865529412,0.00024991285097174747
1518.7934569517863,1518.7934569517863,1.0002085152450328,0.0002497323914839491
1518.8004014321527,1518.8004014321527,1.0000654447342472,0.00024968547100474257
1518.8073459124253,1518.8073459124253,0.9993942063709177,0.00024970200437153084
1518.8142903925116,1518.8142903925116,0.9998564502697415,0.00024971768180703053
1518.8212348725983,1518.8212348725983,1.0005649220380892,0.00024979809598461714
1518.8281793524989,1518.8281793524989,0.9996045885118605,0.00024963560914159877
1518.8351238323987,1518.8351238323987,0.9998893418447935,0.0002497517357867443
1518.8420683121133,1518.8420683121133,1.0001505933601724,0.00024971899064795533
1518.8490127918271,1518.8490127918271,0.9998233252513057,0.00024980396501522565
1518.855957271448,1518.855957271448,1.0003170518836142,0.00024991858069304103
1518.8629017508824,1518.8629017508824,1.0000982279747912,0.000249728554048232
1518.8698462303169,1518.8698462303169,0.9997057010407229,0.00024973241777011675
1518.8767907095655,1518.8767907095655,1.0000079677022158,0.0002497159764171958
1518.8837351887205,1518.8837351887205,0.9999866755417981,0.000249730833616703
1518.8906796679687,1518.8906796679687,0.9998844686155429,0.0002497174533001382
1518.8976241468445,1518.8976241468445,1.0001325619140666,0.00024966796878192655
1518.9045686259997,1518.9045686259997,0.9999236089720526,0.0002498583067219269
1518.911513104782,1518.911513104782,0.9996126840824792,0.0002498113605514703
1518.9184575835648,1518.9184575835648,1.000323497619421,0.00024983717294412586
1518.925402061975,1518.925402061975,1.0004777845322577,0.0002498080530394076
1518.9323465406646,1518.9323465406646,0.9999809375354687,0.0002497084205405652
1518.9392910189815,1518.9392910189815,1.0002454809487662,0.0002498260278086885
1518.9462354973919,1518.9462354973919,1.0000636641610707,0.00024977729056944846
1518.9531799757087,1518.9531799757087,0.9999597000010443,0.0002498703249782104
1518.96012445384,1518.96012445384,0.9996258220850084,0.00024973069449260035
1518.9670689319705,1518.9670689319705,1.0000351894305026,0.00024983370099815837
1518.974013409915,1518.974013409915,1.0001358386330057,0.0002498548765695304
1518.9809578877662,1518.9809578877662,0.9999083615583502,0.0002497858932126001
1518.9879023655244,1518.9879023655244,1.0002721323421355,0.00024980674948030734
1518.9948468432822,1518.9948468432822,1.0000557923642543,0.00024983212517482544
1519.0017913208546,1519.0017913208546,0.9998106881007164,0.0002498239172639976
1519.0087357983334,1519.0087357983334,0.9995926168910992,0.00024972221372743453
1519.0156802757188,1519.0156802757188,0.9999161707200388,0.0002497502184637851
1519.0226247530113,1519.0226247530113,1.0003980473149374,0.0002498730556894116
1519.0295692303039,1519.0295692303039,0.9999027148372648,0.00024975139509026784
1519.0365137073172,1519.0365137073172,0.9999447327633971,0.0002499124378277381
1519.0434581843303,1519.0434581843303,1.0004587558862945,0.00024997097922818467
1519.0504026613435,1519.0504026613435,1.0000771518142046,0.0002497960179177575
1519.0573471381706,1519.0573471381706,0.9998592871229075,0.00024975785939799426
1519.0642916147178,1519.0642916147178,0.9997750367457865,0.00024969607178658166
1519.0712360916377,1519.0712360916377,0.9997756454142028,0.00024978566903377286
1519.0781805680922,1519.0781805680922,1.0000906447713338,0.00024977735235400656
1519.0851250445462,1519.0851250445462,1.0000300998312528,0.00024986763412324076
1519.0920695208144,1519.0920695208144,0.9998891716207448,0.0002497293968195821
1519.0990139969895,1519.0990139969895,1.000188472522624,0.0002498478985565363
1519.1059584731645,1519.1059584731645,1.0003000003039815,0.00024982268070871283
1519.112902949246,1519.112902949246,0.9998170100300567,0.0002497536103626012
1519.119847425142,1519.119847425142,0.99985104649292,0.00024968067504743663
1519.1267919010372,1519.1267919010372,0.9998663973161872,0.00024972685278909723
1519.1337363767466,1519.1337363767466,0.9998194766017491,0.00024984308264274044
