time,time,flux,flux_err
1325.2983850829748,1325.2983850829748,1.000005941864222,0.00037094144406181045
1325.3067185527814,1325.3067185527814,1.0000228438601046,0.0003711507092582893
1325.31505202287,1325.31505202287,1.0000906280083801,0.000371253560937469
1325.322691037312,1325.322691037312,1.000249241351952,0.00033905469593214295
1325.3296355961081,1325.3296355961081,0.9995288822812309,0.0003390207920559371
1325.3365801550674,1325.3365801550674,0.9999100968782288,0.0003391842478420796
1325.343524714178,1325.343524714178,0.9999234488630366,0.00033925783997955556
1325.3504692734748,1325.3504692734748,0.9999502105164005,0.00033942080139909585
1325.357413832923,1325.357413832923,1.0000012181486193,0.0003394841433120183
1325.364358392546,1325.364358392546,1.0001429902139884,0.00033966331289923536
1325.3713029523315,1325.3713029523315,0.9999731755563973,0.00033974953710793926
1325.3782475122687,1325.3782475122687,1.0001390105993602,0.00033989400921650954
1325.3851920723805,1325.3851920723805,0.9999999918651913,0.00034005523644192753
1325.3921366326435,1325.3921366326435,0.9996976041617337,0.00034009572188758487
1325.399081193046,1325.399081193046,1.0001992234277934,0.0003403485215086559
1325.406025753589,1325.406025753589,0.9995138510093999,0.00034028688828216953
1325.4129703143055,1325.4129703143055,1.0000047168020907,0.00034050146925803065
1325.4199148751625,1325.4199148751625,1.0003571539676517,0.0003407130886339451
1325.4268594361588,1325.4268594361588,0.9992335630633405,0.00034067950904666515
1325.4338039973068,1325.4338039973068,1.0002585146145249,0.00034095862107656034
1325.4407485586057,1325.4407485586057,1.0001043868465107,0.0003409758769263875
1325.4476931200213,1325.4476931200213,1.0001392967122886,0.00034115828871585866
1325.4546376815997,1325.4546376815997,1.0003556112328118,0.00034136390538660143
1325.4615822432947,1325.4615822432947,0.9998712464218101,0.0003413919589990124
1325.4685268051294,1325.4685268051294,1.0002153835389942,0.0003415529934491238
1325.4754713671039,1325.4754713671039,0.9996014187601439,0.0003416169078752093
1325.4824159291943,1325.4824159291943,0.9993661954069409,0.0003417632401841277
1325.4893604914253,1325.4893604914253,0.9996904097594822,0.00034198504093001724
1325.4963050537604,1325.4963050537604,0.9998324884972737,0.0003421477086671468
1325.5032496162585,1325.5032496162585,1.0007144193873594,0.00034248467120612215
1325.5101941788616,1325.5101941788616,0.9996788888975022,0.00034249651175222607
1325.5171387416042,1325.5171387416042,1.0002019622796723,0.00034273907578380176
1325.5240833044402,1325.5240833044402,1.0004960806422152,0.0003429697645231071
1325.5310278674156,1325.5310278674156,0.999957215819743,0.00034311410663930865
1325.537972430484,1325.537972430484,0.9996206006032585,0.0003432161793477312
1325.5449169937044,1325.5449169937044,0.9997571152136263,0.00034342454097271226
1325.5518615570056,1325.5518615570056,0.9998347472048191,0.00034365002239583717
1325.558806120424,1325.558806120424,0.9999771193788891,0.0003437911871514362
1325.5657506839812,1325.5657506839812,1.0002088183336615,0.0003440121773836923
1325.5726952476086,1325.5726952476086,0.9998981529576259,0.000344187149523544
1325.579639811353,1325.579639811353,1.0000416999526676,0.000344382247818844
1325.5865843752129,1325.5865843752129,0.9999495215243064,0.00034451500525943844
1325.5935289391896,1325.5935289391896,1.000545438227993,0.00034470570759627536
1325.600473503248,1325.600473503248,0.9999964450656134,0.00034479043180235807
1325.6074180674223,1325.6074180674223,0.9999974711014806,0.000344911712844297
1325.6143626316903,1325.6143626316903,0.9999669254684186,0.0003450414420492471
1325.6213071960624,1325.6213071960624,0.9999958292946365,0.00034515114404092196
1325.6282517605282,1325.6282517605282,0.9999141003121341,0.00034517087463905216
1325.6351963250986,1325.6351963250986,0.9997825703071405,0.0003452590233521206
1325.6421408897504,1325.6421408897504,1.0003303804371833,0.0003454211253787238
1325.6490854544957,1325.6490854544957,0.9994006344795174,0.00034534671101987233
1325.6560300193337,1325.6560300193337,0.9998022354632827,0.00034545168285649865
1325.6629745842886,1325.6629745842886,1.0002036434511985,0.00034556966893111677
1325.669919149301,1325.669919149301,1.000309637838431,0.00034561627439090315
1325.6768637144187,1325.6768637144187,0.9997345050175168,0.00034557883990974823
1325.6838082796178,1325.6838082796178,1.0004325053709175,0.00034578100492917987
1325.6907528449099,1325.6907528449099,1.000263037543488,0.0003458530588703786
1325.6976974102722,1325.6976974102722,1.0002020426917333,0.0003459150329621262
1325.7046419757392,1325.7046419757392,0.9994230896400251,0.00034593118101519806
1325.7115865412754,1325.7115865412754,1.0001221709311223,0.0003461290268620302
1325.7185311068938,1325.7185311068938,1.0001737507525341,0.000346264912759848
1325.7254756725933,1325.7254756725933,0.9999644668116561,0.00034636973586489345
1325.7324202383627,1325.7324202383627,0.9999414058189819,0.00034648316562354957
1325.7393648042373,1325.7393648042373,1.0006780506534199,0.00034726088010980476
1325.7463093701576,1325.7463093701576,0.9996600183459012,0.0003467195721065314
1325.7532539361603,1325.7532539361603,0.9999283461606984,0.0003468791888163627
1325.760198502244,1325.760198502244,1.0003010928623561,0.00034709984202883237
1325.7671430683974,1325.7671430683974,0.9999117708115278,0.000347193752478215
1325.774087634621,1325.774087634621,0.9997702902274821,0.00034725823222370937
1325.781032200926,1325.781032200926,0.9994819089263872,0.0003474450127028556
1325.787976767301,1325.787976767301,1.0003255667418975,0.00034764576047004744
1325.7949213337226,1325.7949213337226,1.0001989009418348,0.0003477724843842235
1325.801865900237,1325.801865900237,1.0001081983697813,0.00034790294060938035
1325.8088104668218,1325.8088104668218,0.9996815872221368,0.0003479621726734963
1325.8157550334522,1325.8157550334522,1.0001818436554177,0.000348083887386084
1325.822699600165,1325.822699600165,0.999943198770815,0.0003481126920145908
1325.8296441669356,1325.8296441669356,1.000429941677158,0.00034826211834970293
1325.8365887337761,1325.8365887337761,0.999715760041345,0.00034827596590516444
1325.8435333006632,1325.8435333006632,0.9998397113800845,0.00034825499085417
1325.8504778676313,1325.8504778676313,1.0000024528610942,0.00034831089019625374
1325.857422434647,1325.857422434647,1.0001261108791077,0.00034833103526538155
1325.8643670017202,1325.8643670017202,0.9999281751318918,0.0003482708521157925
1325.8713115688636,1325.8713115688636,1.0002019283625283,0.00034817366075654845
1325.8782561360533,1325.8782561360533,1.0001789355411144,0.0003481095867918103
1325.8852007033129,1325.8852007033129,0.9998351231201144,0.00034799297595309507
1325.8921452706188,1325.8921452706188,0.9996212679862317,0.00034786438387733755
1325.8990898379836,1325.8990898379836,0.9996132621257765,0.0003478412193978315
1325.9060344054058,1325.9060344054058,1.0001714002620443,0.0003478695178192532
1325.9129789728752,1325.9129789728752,1.0003352591409223,0.0003477660490518795
1325.9199235404255,1325.9199235404255,1.000034023613318,0.00034772902630170383
1325.9268681079998,1325.9268681079998,0.9997745540060763,0.0003476798510149941
1325.933812675655,1325.933812675655,1.0003364453822183,0.0003477558122788844
1325.9407572433106,1325.9407572433106,1.000349987246861,0.00034774427861846314
1325.9477018110476,1325.9477018110476,1.0001715737332593,0.0003477341645818448
1325.9546463788429,1325.9546463788429,1.0004901858115485,0.00034772877093762743
1325.9624242948034,1325.9624242948034,0.999467206178579,0.0003476666667456438
1325.9699244281153,1325.9699244281153,1.0000001916566634,0.00034771871927051826
1325.9768689960504,1325.9768689960504,1.0000264107710617,0.0003478003943796047
1325.9838135640546,1325.9838135640546,0.9998309980501935,0.0003478490494466927
1325.9907581320826,1325.9907581320826,0.9998736085373265,0.0003478675122199184
1325.9977027001692,1325.9977027001692,0.999986387437746,0.00034798293721260363
1326.0046472682782,1326.0046472682782,0.9998685653220477,0.00034797633804115746
1326.0115918364345,1326.0115918364345,0.9999193218817976,0.00034814890091353686
1326.0185364046604,1326.0185364046604,0.9999086509751092,0.0003482555276276379
1326.025480972898,1326.025480972898,1.0002946277448361,0.0003484388242313949
1326.032425541182,1326.032425541182,1.000470289254825,0.00034850480725503086
1326.039370109524,1326.039370109524,0.9995859850687847,0.00034835792643105084
1326.0463146778898,1326.0463146778898,0.9998191825053768,0.0003484411310803282
1326.0532592463135,1326.0532592463135,1.0002588498419858,0.0003485082134558578
1326.0602038147604,1326.0602038147604,1.0004395590711674,0.0003486283070118065
1326.0671483832543,1326.0671483832543,1.0000802041926562,0.00034865045371183713
1326.0740929517822,1326.0740929517822,0.9997436751232748,0.0003486187775777112
1326.0810375203582,1326.0810375203582,1.0000826526427657,0.0003487355539176571
1326.087982088956,1326.087982088956,0.9999634348330722,0.00034877190464510866
1326.094926657613,1326.094926657613,0.9998622666396739,0.0003488293275258483
1326.1018712262928,1326.1018712262928,0.9997148682751427,0.00034879138066359644
1326.1088157949957,1326.1088157949957,0.9995543352709706,0.0003489059848967382
1326.1157603637457,1326.1157603637457,1.0006409163628611,0.0003490703148652033
1326.12270493253,1326.12270493253,0.9998808914724279,0.00034898488893368495
1326.12964950135,1326.12964950135,1.00049430058539,0.0003490842572784431
1326.1365940702042,1326.1365940702042,0.9995174875289641,0.00034900192241159994
1326.1435386390822,1326.1435386390822,1.0003366111279735,0.0003491599875398132
1326.1504832080066,1326.1504832080066,1.0003224750946889,0.0003491439274097597
1326.1574277769655,1326.1574277769655,0.9994211212824144,0.0003490640008621235
1326.164372345937,1326.164372345937,0.9997306397518095,0.00034909609178049354
1326.1713169149423,1326.1713169149423,0.9996113151399433,0.0003491088282964281
1326.1782614839951,1326.1782614839951,1.000555073578577,0.00034923877982045743
1326.1852060530705,1326.1852060530705,1.0002369234286834,0.00034922245964744256
1326.1921506221809,1326.1921506221809,1.0000424394887808,0.00034916376101672635
1326.1990951912921,1326.1990951912921,1.000077039546627,0.0003492593789711303
1326.2060397604723,1326.2060397604723,1.0000057105967533,0.0003491764291968259
1326.212984329653,1326.212984329653,0.9998069579254988,0.00034919157230887385
1326.2199288988681,1326.2199288988681,0.9997560948542598,0.00034917071869407056
1326.2268734681302,1326.2268734681302,1.0002057813491856,0.0003492233265810874
1326.2338180373922,1326.2338180373922,0.9995343276616717,0.00034914045142811685
1326.2407626066886,1326.2407626066886,1.0003699890547968,0.0003492592409851343
1326.2477071760095,1326.2477071760095,0.9998512806981015,0.0003492059119551112
1326.254651745364,1326.254651745364,1.0002273392156735,0.00034933451145371805
1326.261596314743,1326.261596314743,1.000215534245824,0.0003492833499708297
1326.2685408841444,1326.2685408841444,1.0000621354947254,0.0003492793774343857
1326.2754854535574,1326.2754854535574,1.0000577162313005,0.0003492436745143368
1326.2824300230177,1326.2824300230177,0.9999089900282389,0.00034930140205843087
1326.289374592489,1326.289374592489,0.9996992112169295,0.0003492113895629264
1326.2963191619838,1326.2963191619838,0.9997935558255783,0.00034926951979852115
1326.3032637315132,1326.3032637315132,1.0001693539469765,0.00034930500125889826
1326.3102083010665,1326.3102083010665,0.9996448778912388,0.0003493289731359583
1326.3171528706196,1326.3171528706196,1.0003555718103765,0.0003494116736684882
1326.3240974402072,1326.3240974402072,1.0005149584989255,0.0003494582977958742
1326.3310420098192,1326.3310420098192,0.999701835308376,0.00034946102241874516
1326.3379865794534,1326.3379865794534,0.9997400579884144,0.00034946463778358366
1326.345486714675,1326.345486714675,1.0001830230246411,0.0003495673581934809
1326.3546535466457,1326.3546535466457,0.9998291281274228,0.00034967778418753463
1326.3615981163384,1326.3615981163384,1.000151048863394,0.00034981080471743243
1326.3685426860895,1326.3685426860895,1.0002038147414791,0.0003498352168600956
1326.375487255817,1326.375487255817,1.0000382317612628,0.0003499127590426643
1326.382431825568,1326.382431825568,0.9999402061290631,0.0003499958591575449
1326.3893763953654,1326.3893763953654,1.000247180982433,0.0003501055645420957
1326.3963209651513,1326.3963209651513,1.0005843204358364,0.00035023935598185436
1326.4032655349718,1326.4032655349718,0.9995481403736569,0.0003501880889897685
1326.4102101048163,1326.4102101048163,1.0003493454440555,0.0003503885749590665
1326.4171546746602,1326.4171546746602,0.9995254016812449,0.0003503689993549437
1326.4240992445273,1326.4240992445273,0.999731787964882,0.0003504594193467144
1326.4310438144062,1326.4310438144062,1.0002420129727168,0.00035061972592676367
1326.43798838432,1326.43798838432,0.9999679535215407,0.0003505897627847419
1326.4449329542342,1326.4449329542342,0.9998229259399037,0.0003506984605077363
1326.4518775241713,1326.4518775241713,1.0001103282919828,0.00035074761175026725
1326.4588220941318,1326.4588220941318,1.0002058352508265,0.0003508566890708743
1326.4657666641153,1326.4657666641153,0.9991682810952156,0.0003507230997120059
1326.4727112340993,1326.4727112340993,1.0004779090398774,0.0003510421904131943
1326.4796558040832,1326.4796558040832,0.9996864255842217,0.00035095169084896187
1326.4866003741015,1326.4866003741015,0.9996716046468404,0.0003509847136510728
1326.4935449441323,1326.4935449441323,1.0004413908637904,0.00035115308912060596
1326.5004895141738,1326.5004895141738,1.0000960929030644,0.0003511707069926048
1326.5074340842275,1326.5074340842275,1.0003353475394459,0.00035127011971430145
1326.514378654316,1326.514378654316,0.999456049998179,0.0003512549081226725
1326.521323224393,1326.521323224393,1.0001137419205408,0.00035137805437788334
1326.5282677944815,1326.5282677944815,1.0002979605102804,0.0003515442393065789
1326.5352123646048,1326.5352123646048,1.0002805303803641,0.00035162788267379026
1326.54215693474,1326.54215693474,1.0000304358852459,0.00035173399495538025
1326.5491015048633,1326.5491015048633,0.9993288147102352,0.00035175588784254203
1326.5560460750216,1326.5560460750216,1.000106539500643,0.0003519036953255491
1326.56299064518,1326.56299064518,1.0004314664653418,0.00035199955316532965
1326.5699352153617,1326.5699352153617,1.0001761912852474,0.0003520070329511925
1326.5768797855437,1326.5768797855437,1.0003927948707332,0.00035207778948949175
1326.5838243557366,1326.5838243557366,0.9995087192668016,0.00035202278429568727
1326.5907689259534,1326.5907689259534,0.9997787175472481,0.0003521231246750813
1326.5977134961815,1326.5977134961815,0.9999616838381808,0.0003522588938148934
1326.60465806641,1326.60465806641,1.0004964130526643,0.0003523429085038214
1326.6116026366496,1326.6116026366496,0.9996479641713346,0.00035226425588962386
1326.618547206901,1326.618547206901,0.9997371174753937,0.0003523495347314381
1326.625491777176,1326.625491777176,1.0007597450488226,0.00035252229711157663
1326.6324363474505,1326.6324363474505,0.9998524691244658,0.00035238674103173055
1326.6393809177255,1326.6393809177255,1.000305726818827,0.0003525419266359361
1326.6463254880234,1326.6463254880234,1.0004175847483703,0.00035252281030933783
1326.6532700583332,1326.6532700583332,0.9999020326930937,0.00035239861449630694
1326.6602146286546,1326.6602146286546,0.9998563214578929,0.00035238361703005986
1326.6671591989757,1326.6671591989757,0.9990351583753405,0.0003522196723262851
1326.674103769309,1326.674103769309,1.0008109720931404,0.0003524009543763025
1326.681048339642,1326.681048339642,0.9998852934655525,0.00035220450657363726
1326.6891040412538,1326.6891040412538,0.9997667233982759,0.0003521475546236901
1326.696326394421,1326.696326394421,1.0001316025560052,0.0003521262035565293
1326.7032709648006,1326.7032709648006,1.00016678399779,0.00035211457039860194
1326.7107711008023,1326.7107711008023,0.9995622903204424,0.0003518839164475995
1326.718549019638,1326.718549019638,1.0002368281969742,0.000351945345492042
1326.7254935900291,1326.7254935900291,0.999480131402972,0.0003517573890094099
1326.7324381604435,1326.7324381604435,1.0004121254046996,0.00035187771004117305
1326.7393827308351,1326.7393827308351,1.0003568670581013,0.0003517897709059351
1326.746327301249,1326.746327301249,1.0000829163515905,0.0003517651154508105
1326.753271871687,1326.753271871687,0.9997221040793518,0.00035170718826164785
1326.7602164421248,1326.7602164421248,1.000257503576248,0.00035167973040363225
1326.7671610125508,1326.7671610125508,1.000349603064559,0.00035175848365502394
1326.7741055830004,1326.7741055830004,0.9999361750673327,0.0003516735307524676
1326.7810501534498,1326.7810501534498,0.999875520790791,0.0003516791047195427
1326.7879947239107,1326.7879947239107,1.000090963233757,0.000351765133258226
1326.7949392943601,1326.7949392943601,1.0003583224335284,0.0003517960240218271
1326.8018838648447,1326.8018838648447,1.0000728576146178,0.0003517791798282567
1326.8088284353173,1326.8088284353173,1.0000982954509112,0.0003518177382193674
1326.8157730058012,1326.8157730058012,1.0003702859280823,0.00035192401350854486
1326.8227175762859,1326.8227175762859,0.9995572676914349,0.00035174998245638013
1326.8296621467816,1326.8296621467816,0.9993784420793513,0.0003517540009987471
1326.8366067172778,1326.8366067172778,0.9998097614837294,0.00035178966668079545
1326.8435512877854,1326.8435512877854,0.9999846618888742,0.00035181312650547794
1326.850495858293,1326.850495858293,1.0005229879636057,0.00035183798769917356
1326.8574404288006,1326.8574404288006,1.0004642028217412,0.00035181740053216997
1326.86438499932,1326.86438499932,1.0003077415708925,0.0003517083690236575
1326.8713295698512,1326.8713295698512,1.0002397317487481,0.0003516628401709214
1326.8782741403581,1326.8782741403581,1.0000655538676377,0.00035146534536372115
1326.8852187109128,1326.8852187109128,1.000190106378942,0.0003513801801437831
1326.8921632814317,1326.8921632814317,0.9995924364837231,0.0003512252092525451
1326.8991078519978,1326.8991078519978,0.9999704938532374,0.000351042894533496
1326.9060524225054,1326.9060524225054,0.9995028725333326,0.00035093827855525955
1326.9129969930714,1326.9129969930714,1.0002770391835403,0.00035084575106753815
1326.919941563637,1326.919941563637,1.0001193321784074,0.00035066122225320016
1326.926886134203,1326.926886134203,1.0002877482810173,0.00035056353143728564
1326.9338307047456,1326.9338307047456,0.9996551945023702,0.0003503117613696911
1326.9407752752759,1326.9407752752759,0.9998894406296059,0.0003501477680433008
1326.9477198458421,1326.9477198458421,0.9997682337190206,0.0003499566257792551
1326.9546644164661,1326.9546644164661,1.0001837713868613,0.0003499476501047069
1326.961608987032,1326.961608987032,1.0000482978163028,0.00034972239924793767
1326.968553557598,1326.968553557598,1.000142444964888,0.00034967408294842706
1326.9754981281633,1326.9754981281633,1.000124452595926,0.0003495229038103571
1326.9824426987295,1326.9824426987295,1.0007372439951117,0.0003494801848510501
1326.9893872693417,1326.9893872693417,0.9992939266806827,0.00034922406826793853
1326.9963318399195,1326.9963318399195,1.0004816452776795,0.0003492850514171625
1327.0032764104967,1327.0032764104967,0.9999529333575202,0.00034928358608557437
1327.0102209811091,1327.0102209811091,0.9995233918599696,0.00034913287198876265
1327.0171655516865,1327.0171655516865,0.999757890779631,0.0003491981263749001
1327.024110122299,1327.024110122299,0.9999884234082813,0.00034922009504772546
1327.0310546928881,1327.0310546928881,1.0000156740839272,0.0003493080269707993
1327.0379992634885,1327.0379992634885,1.000246385899874,0.000349290356732103
1327.0449438340897,1327.0449438340897,0.9996571942541692,0.00034923484778120946
1327.05188840469,1327.05188840469,1.0000852416236632,0.0003492808966989754
1327.059666323771,1327.059666323771,1.00002301911857,0.0003493240322223542
