time,time,flux,flux_err
1544.444741635799,1544.444741635799,1.0000631684665306,7.354501570567485e-05
1544.453075086082,1544.453075086082,0.9999933441043071,7.351042234355041e-05
1544.4607140823343,1544.4607140823343,0.9999784952280809,6.70914698275383e-05
1544.467658624136,1544.467658624136,0.9998421368933548,6.707174159678334e-05
1544.474603165938,1544.474603165938,0.9999993564146917,6.707158763320481e-05
1544.4815477080192,1544.4815477080192,1.0000121102287558,6.705465058549003e-05
1544.4884922497276,1544.4884922497276,1.000075967823536,6.70542914121602e-05
1544.4954367914365,1544.4954367914365,1.000089233569286,6.70481631071046e-05
1544.5023813331452,1544.5023813331452,1.000099490154118,6.703780936562483e-05
1544.5093258748539,1544.5093258748539,0.9998705727796411,6.701698824762067e-05
1544.5162704165627,1544.5162704165627,1.0000711701487883,6.702531469236531e-05
1544.5232149582716,1544.5232149582716,1.0000540933988296,6.701494612305591e-05
1544.5301594999803,1544.5301594999803,1.000081131324889,6.702571196730835e-05
1544.537104041689,1544.537104041689,1.0000309844579218,6.701506747548238e-05
1544.5440485833974,1544.5440485833974,0.9999485992665635,6.701583114069017e-05
1544.5509931247338,1544.5509931247338,0.9998350149712207,6.70035195894911e-05
1544.5579376663493,1544.5579376663493,1.000085925815877,6.702370222016063e-05
1544.5648822078717,1544.5648822078717,1.000040876378464,6.700399357218675e-05
1544.5718267493012,1544.5718267493012,0.9999480262239473,6.700094362390201e-05
1544.5787712907304,1544.5787712907304,1.0000458854101544,6.699979512374312e-05
1544.5857158322528,1544.5857158322528,1.0002488644055736,6.699885308665951e-05
1544.5926603734958,1544.5926603734958,0.999872368866886,6.697671649936006e-05
1544.599604914832,1544.599604914832,0.9999735658770991,6.698180706479417e-05
1544.606549456168,1544.606549456168,0.9999497538153144,6.697938213432876e-05
1544.6134939974113,1544.6134939974113,1.0001354821177242,6.698019294393088e-05
1544.6204385386543,1544.6204385386543,0.999982158302345,6.698201353296558e-05
1544.6273830798043,1544.6273830798043,0.999985782244196,6.696736721719094e-05
1544.6343276208609,1544.6343276208609,0.999948991894601,6.696338200200741e-05
1544.6421055069234,1544.6421055069234,1.000034429642043,6.696611026224371e-05
1544.6496056113162,1544.6496056113162,0.9998418911011042,6.695406698793005e-05
1544.6565501523733,1544.6565501523733,1.0001688087269767,6.69643985407512e-05
1544.6634946933368,1544.6634946933368,0.9998837570325456,6.696679509607978e-05
1544.6704392343004,1544.6704392343004,0.9999173757432768,6.695796107974449e-05
1544.677383775171,1544.677383775171,1.000215880413107,6.695994620806885e-05
1544.6843283160417,1544.6843283160417,0.9998597486856777,6.694802631744101e-05
1544.6912728569118,1544.6912728569118,1.0000810433438931,6.695120277245787e-05
1544.6982173976896,1544.6982173976896,1.0000632382492403,6.695821521943339e-05
1544.7051619383735,1544.7051619383735,0.999949955675292,6.693766364524863e-05
1544.7121064791509,1544.7121064791509,0.9999751725125835,6.69335534730554e-05
1544.7190510197422,1544.7190510197422,0.9999874967771352,6.694819618570348e-05
1544.7259955604263,1544.7259955604263,0.9998827966991296,6.692906306251457e-05
1544.7329401010174,1544.7329401010174,1.0001100890587238,6.694608445734858e-05
1544.7398846415156,1544.7398846415156,0.9999456701727801,6.694103536191595e-05
1544.7468291819202,1544.7468291819202,1.0000455342911696,6.69374196022183e-05
1544.7537737224186,1544.7537737224186,1.0000456890785476,6.694107678553081e-05
1544.76071826273,1544.76071826273,0.9999884019458172,6.693680042045367e-05
1544.7676628031352,1544.7676628031352,0.9998407261221092,6.693470832207899e-05
1544.7746073434469,1544.7746073434469,1.000036498597524,6.693578262123412e-05
1544.7815518836653,1544.7815518836653,1.000002336047956,6.693989297518058e-05
1544.7884964238838,1544.7884964238838,1.0000246375241466,6.692944975653786e-05
1544.7954409641025,1544.7954409641025,1.0000040406584396,6.692192690329384e-05
1544.8023855040417,1544.8023855040417,0.9999882484256482,6.692200441323209e-05
1544.80933004426,1544.80933004426,0.9999779019583436,6.691216166235786e-05
1544.8162745841996,1544.8162745841996,1.0000256375019527,6.691930645570717e-05
1544.8232191241382,1544.8232191241382,1.0000017179196983,6.691474204493684e-05
1544.8301636640776,1544.8301636640776,1.0000266616717481,6.691494698502205e-05
1544.837108203924,1544.837108203924,0.9999828375678522,6.691819471936521e-05
1544.84405274377,1544.84405274377,1.000087576289776,6.69173053855443e-05
1544.850997283616,1544.850997283616,1.000011298667093,6.69127397057821e-05
1544.8579418232757,1544.8579418232757,0.9998891584376597,6.690308932855759e-05
1544.8648863628423,1544.8648863628423,0.9998845934396888,6.689503718136518e-05
1544.8718309025953,1544.8718309025953,0.9998795161136348,6.689136887366495e-05
1544.8787754420687,1544.8787754420687,1.0000917736722068,6.690175454897667e-05
1544.8857199814493,1544.8857199814493,1.000071942206105,6.689975306576148e-05
1544.892664521202,1544.892664521202,1.000033372750874,6.689169171623363e-05
1544.8996090606756,1544.8996090606756,1.000025711843557,6.688413118529778e-05
1544.9065535999632,1544.9065535999632,0.9999189941278329,6.688057594921758e-05
1544.9134981389707,1544.9134981389707,0.9999889388592736,6.68831756433154e-05
1544.9204426783513,1544.9204426783513,1.0000823441248454,6.688426324353384e-05
1544.9273872176382,1544.9273872176382,1.0000180010823798,6.68736937622105e-05
1544.9343317566463,1544.9343317566463,1.0000040769007996,6.687293551305234e-05
1544.9412762958402,1544.9412762958402,0.9998542455863131,6.684960431711741e-05
1544.9482208348484,1544.9482208348484,1.0001546866187838,6.686065553687516e-05
1544.9551653738558,1544.9551653738558,0.9998095020734462,6.68384880156577e-05
1544.9621099127712,1544.9621099127712,0.9999291426492226,6.684609685722965e-05
1544.9690544515922,1544.9690544515922,1.000056803336489,6.68556170199184e-05
1544.9759989904142,1544.9759989904142,1.0000848173694525,6.685130997194042e-05
1544.9829435292359,1544.9829435292359,0.9998515541629003,6.684366389680957e-05
1544.9898880678709,1544.9898880678709,1.000020241846347,6.684106040482184e-05
1544.9968326065996,1544.9968326065996,1.0000267622323853,6.683430109260448e-05
1545.0037771451418,1545.0037771451418,1.0002178531116355,6.683962168980942e-05
1545.0107216835904,1545.0107216835904,0.9999236846488806,6.683050679353084e-05
1545.0176662221331,1545.0176662221331,1.0002263356162087,6.684694865690703e-05
1545.024610760582,1545.024610760582,1.0000954818750991,6.683683636503517e-05
1545.0315552988445,1545.0315552988445,0.9997803709808339,6.682388840890244e-05
1545.038499837201,1545.038499837201,1.0000059601947515,6.683010943133506e-05
1545.0454443754634,1545.0454443754634,0.9999981166456424,6.682507799404322e-05
1545.0523889136334,1545.0523889136334,1.0000040527643828,6.682789624441491e-05
1545.0593334517096,1545.0593334517096,1.0000581224018563,6.682566492320682e-05
1545.0662779897862,1545.0662779897862,0.999963369678694,6.681444760928182e-05
1545.0732225277698,1545.0732225277698,1.0002175649131704,6.682716312709572e-05
1545.0801670657531,1545.0801670657531,1.0000719608606594,6.681699408625983e-05
1545.0871116036433,1545.0871116036433,0.9998735649886946,6.680259111640973e-05
1545.0940561414404,1545.0940561414404,0.9998513446556785,6.680278236312898e-05
1545.1010006792374,1545.1010006792374,0.9999192528731587,6.680625135546228e-05
1545.1079452168485,1545.1079452168485,1.0001043745798857,6.68097638922221e-05
1545.1148897545525,1545.1148897545525,1.0001051753301127,6.68080098467195e-05
1545.1218342921634,1545.1218342921634,0.9999749906121513,6.679685474425032e-05
1545.1287788296809,1545.1287788296809,0.9999649896502543,6.679452623018021e-05
1545.1357233671058,1545.1357233671058,0.9999820597265305,6.679521447680162e-05
1545.1426679045303,1545.1426679045303,1.0000112415164841,6.679338332163508e-05
1545.1496124418616,1545.1496124418616,0.9999080100168924,6.678600743728719e-05
1545.1565569791003,1545.1565569791003,0.9998889367929884,6.677649013435803e-05
1545.163501516245,1545.163501516245,1.000155827375556,6.67901392966957e-05
1545.17044605367,1545.17044605367,1.0000128971635032,6.67791657840063e-05
1545.1773905907219,1545.1773905907219,1.0001440577352079,6.677593905676428e-05
1545.1843351277741,1545.1843351277741,1.000110845341825,6.678126035837148e-05
1545.191279664454,1545.191279664454,0.9999457697929106,6.67748272062879e-05
1545.1982242014128,1545.1982242014128,0.9998872347113796,6.676340397302594e-05
1545.2051687382784,1545.2051687382784,0.9998917403678966,6.67548401168724e-05
1545.212113275051,1545.212113275051,0.9999790656606212,6.675679420258203e-05
1545.2190578117304,1545.2190578117304,1.0000044710251932,6.675962158471548e-05
1545.22600234841,1545.22600234841,0.9999045998227348,6.674751125738832e-05
1545.2329468849962,1545.2329468849962,1.00008592162644,6.676210247766556e-05
1545.2398914214896,1545.2398914214896,1.0001160329913092,6.675417594759837e-05
1545.24683595789,1545.24683595789,1.0000632327138708,6.67537801578076e-05
1545.2537804942901,1545.2537804942901,0.9999675133284629,6.675227404072531e-05
1545.2607250305973,1545.2607250305973,0.9998733944195202,6.675027740077985e-05
1545.267669566811,1545.267669566811,1.000117689150755,6.67561980411079e-05
1545.274614103025,1545.274614103025,0.9998957108726468,6.675334328374819e-05
1545.2815586391457,1545.2815586391457,1.0000741998469298,6.675537049774881e-05
1545.2885031752662,1545.2885031752662,0.9999903201437357,6.675568625953873e-05
1545.2954477112012,1545.2954477112012,1.0000909848313086,6.675841825786454e-05
1545.3023922470425,1545.3023922470425,0.9999051626712481,6.675407106253401e-05
1545.309336782977,1545.309336782977,0.9999289455076601,6.675174828919738e-05
1545.3162813188185,1545.3162813188185,0.999992774446039,6.674769934951332e-05
1545.3232258544735,1545.3232258544735,1.0000358960478581,6.674702930819098e-05
1545.3301703901282,1545.3301703901282,0.9999123404955157,6.674190643963652e-05
1545.3371149256905,1545.3371149256905,1.0001235805874997,6.675146610176847e-05
1545.3440594611588,1545.3440594611588,1.0000161780974621,6.67491705342946e-05
1545.3510039967211,1545.3510039967211,1.0000107892252594,6.674557323874854e-05
1545.3579485320038,1545.3579485320038,0.9999490932846264,6.673504131968119e-05
1545.364893067286,1545.364893067286,0.9999616475311104,6.672709441014185e-05
1545.3718376025688,1545.3718376025688,1.0000984499738494,6.673496873740713e-05
1545.3787821377584,1545.3787821377584,1.0000484266003276,6.673562138267164e-05
1545.3857266729474,1545.3857266729474,0.9999125760774422,6.673269435897162e-05
1545.3926712079508,1545.3926712079508,1.0000000243372305,6.673949061448112e-05
1545.3996157428608,1545.3996157428608,0.9998328924148729,6.672888542053301e-05
1545.4065602777707,1545.4065602777707,1.0000934899455098,6.672905792939654e-05
1545.4135048127741,1545.4135048127741,1.000088149164262,6.672442734438428e-05
1545.4204493474977,1545.4204493474977,0.999922413042157,6.672501389934651e-05
1545.4273938822214,1545.4273938822214,1.0000767276249025,6.672891708694088e-05
1545.434338416666,1545.434338416666,0.9999360865031794,6.672232528403147e-05
1545.4412829512034,1545.4412829512034,1.0000616844107322,6.67226930539725e-05
1545.4482274857407,1545.4482274857407,1.000050037254336,6.672448552185775e-05
1545.4551720201857,1545.4551720201857,1.0000974885825613,6.672343313543533e-05
1545.462116554443,1545.462116554443,0.9998929836185578,6.671972172667291e-05
1545.4690610887944,1545.4690610887944,1.0000244655391788,6.672291340635107e-05
1545.4760056229595,1545.4760056229595,0.9998773596782993,6.67152054969867e-05
1545.4829501570312,1545.4829501570312,1.0001005953429618,6.671714839295318e-05
1545.4898946911962,1545.4898946911962,0.9999419578026668,6.671462980583606e-05
1545.4968392250817,1545.4968392250817,0.9998871472650459,6.671695204890375e-05
1545.5037837590608,1545.5037837590608,1.0000589367439794,6.671885866649595e-05
1545.5107282929462,1545.5107282929462,0.9999151538183579,6.671721244149704e-05
1545.5176728267386,1545.5176728267386,1.0000211519461009,6.672026089237068e-05
1545.524617360345,1545.524617360345,1.0000852855684927,6.672378781559393e-05
1545.5315618941372,1545.5315618941372,0.9999893406810927,6.672058713611894e-05
1545.5385064276502,1545.5385064276502,1.0001302930113722,6.672591844497724e-05
1545.545450960977,1545.545450960977,0.9999123089687718,6.671667687258205e-05
1545.5523954944897,1545.5523954944897,1.0000195054274665,6.672147418827107e-05
1545.559340027817,1545.559340027817,0.99991379808542,6.671715884379152e-05
1545.5662845610507,1545.5662845610507,1.0000402649244247,6.671428691641833e-05
1545.5732290943774,1545.5732290943774,1.0000669015379053,6.672705097997278e-05
1545.580173627331,1545.580173627331,0.99999972573397,6.67155550416378e-05
1545.587118160472,1545.587118160472,1.000052820922837,6.672521836975473e-05
1545.5940626934262,1545.5940626934262,1.0000262918429417,6.672407175407223e-05
1545.6010072263803,1545.6010072263803,0.9999896024755905,6.671943428567537e-05
1545.6079517591484,1545.6079517591484,0.999940035245625,6.672311265882268e-05
1545.6148962919162,1545.6148962919162,0.9998288456544397,6.671822686179256e-05
1545.6218408246846,1545.6218408246846,0.999910011062154,6.671715509051196e-05
1545.6287853570798,1545.6287853570798,1.000118140708395,6.671732624818128e-05
1545.6357298899409,1545.6357298899409,1.0000858278757998,6.672084013716738e-05
1545.6426744223368,1545.6426744223368,1.000070064064206,6.672337682087313e-05
1545.6496189547317,1545.6496189547317,1.0002676571156157,6.673070371121225e-05
1545.6565634870342,1545.6565634870342,0.999830623826426,6.671170695801491e-05
1545.663508019057,1545.663508019057,1.0001179600692591,6.672957503950468e-05
1545.6704525514524,1545.6704525514524,0.99999852147807,6.671926535925734e-05
1545.6773970833826,1545.6773970833826,0.9999447944524844,6.672263467829781e-05
1545.6843416154984,1545.6843416154984,1.0000925136235046,6.672897805218163e-05
1545.691286147428,1545.691286147428,0.9999743647477567,6.671241272646097e-05
1545.6982306792647,1545.6982306792647,0.99994422123732,6.671753258460956e-05
1545.7051752110085,1545.7051752110085,0.9999537964474342,6.672065502457715e-05
1545.7121197427516,1545.7121197427516,0.9999939307430401,6.671988291575466e-05
1545.7190642744956,1545.7190642744956,0.9999511980397507,6.671820357332654e-05
1545.7260088059593,1545.7260088059593,1.0000865173889784,6.673207675949265e-05
1545.7329533375168,1545.7329533375168,0.9999648606576788,6.672268991436365e-05
1545.7398978688877,1545.7398978688877,1.0000508903161136,6.67291525708956e-05
1545.7468424002589,1545.7468424002589,1.0000197462357656,6.672722514996151e-05
1545.7537869314438,1545.7537869314438,1.0000998020281018,6.67319761524961e-05
1545.7607314627214,1545.7607314627214,0.9999450182883172,6.67231172624661e-05
1545.7676759938126,1545.7676759938126,0.9999850946227099,6.672158876228114e-05
1545.7746205248116,1545.7746205248116,1.000012389431625,6.673141292115069e-05
1545.7815650558098,1545.7815650558098,0.9999328985768127,6.673140161043943e-05
1545.788509586622,1545.788509586622,1.0000459347615434,6.673268195605393e-05
1545.7954541175272,1545.7954541175272,0.999999797081242,6.673433837127486e-05
1545.8023986482463,1545.8023986482463,1.0000045074623847,6.673100575490493e-05
1545.8093431789657,1545.8093431789657,0.9998261737800217,6.67189221950543e-05
1545.816287709498,1545.816287709498,0.9999371570172826,6.67291194659521e-05
1545.823232239938,1545.823232239938,0.9999836029573747,6.672806095653233e-05
1545.8301767704706,1545.8301767704706,1.0000586090638053,6.673257836522051e-05
1545.837121300724,1545.837121300724,1.0001805983642942,6.67330320458677e-05
1545.8440658310706,1545.8440658310706,1.0001539816118192,6.67375862329367e-05
1545.851010361138,1545.851010361138,1.0000521335210488,6.67309014187534e-05
1545.857954891205,1545.857954891205,0.9999657403268539,6.672553675922483e-05
1545.8648994212722,1545.8648994212722,0.9999310762469701,6.672733818972054e-05
1545.8718439513393,1545.8718439513393,0.9998588391148594,6.672111099424435e-05
1545.8787884813132,1545.8787884813132,0.9999472468514989,6.672322013977172e-05
1545.8857330110077,1545.8857330110077,0.9999730156368832,6.672246597921713e-05
1545.8926775407022,1545.8926775407022,0.9999321032163053,6.672422267406665e-05
1545.899622070397,1545.899622070397,1.000032230827954,6.673010199684083e-05
1545.9065665999985,1545.9065665999985,0.9999897342773074,6.672811621155125e-05
1545.9135111295068,1545.9135111295068,1.00014260825588,6.672652728494021e-05
1545.9204556588288,1545.9204556588288,0.9999937758476236,6.672350566153012e-05
1545.927400188151,1545.927400188151,0.99996436112853,6.67194623654947e-05
1545.9343447174729,1545.9343447174729,1.0001791325282003,6.672272810573453e-05
1545.9412892467021,1545.9412892467021,0.9999715990801923,6.67226833354918e-05
1545.9482337757445,1545.9482337757445,0.999839658639423,6.671636962346704e-05
1545.9551783047875,1545.9551783047875,0.9999926188982255,6.672759097062091e-05
1545.9621228337369,1545.9621228337369,1.0000416360774476,6.672657428376831e-05
1545.9690673625933,1545.9690673625933,0.9999401452937431,6.67226358081472e-05
1545.9760118913566,1545.9760118913566,1.0001037811758846,6.6731737523402e-05
1545.98295642012,1545.98295642012,0.9999944198177495,6.672547823748922e-05
1545.989900948697,1545.989900948697,1.0000289261756266,6.67239597123816e-05
1545.996845477367,1545.996845477367,0.999974078040661,6.672395352805634e-05
1546.0037900056645,1546.0037900056645,0.999933894568033,6.671837050834005e-05
1546.0107345341487,1546.0107345341487,0.9999219826843342,6.672797392170344e-05
1546.017679062446,1546.017679062446,1.0000185060760178,6.672348731306889e-05
1546.0246235906507,1546.0246235906507,1.0002340702887178,6.673432482459817e-05
1546.031568118855,1546.031568118855,0.9998786339969273,6.671786587025496e-05
1546.0385126468734,1546.0385126468734,0.9999358587386011,6.671904371136035e-05
1546.0454571749847,1546.0454571749847,1.0001240048856803,6.672700506960679e-05
1546.0524017028165,1546.0524017028165,1.0000204865701938,6.673165298963542e-05
1546.0593462305555,1546.0593462305555,0.999892210150749,6.671916819303294e-05
1546.0662907582941,1546.0662907582941,1.0000651230375575,6.673578228328628e-05
1546.073235286033,1546.073235286033,1.0000030049345519,6.672860831286924e-05
1546.0801798137722,1546.0801798137722,0.9998679407147337,6.671620910196817e-05
1546.087124341138,1546.087124341138,1.0000402120183454,6.672610790401877e-05
1546.094068868691,1546.094068868691,0.9999989027724681,6.672776416493095e-05
1546.101013395964,1546.101013395964,1.0000202494797197,6.673120374211478e-05
1546.1079579232369,1546.1079579232369,0.9999152460349571,6.672311252365373e-05
1546.114902450417,1546.114902450417,1.0001897689534451,6.673192764599365e-05
1546.121846977597,1546.121846977597,0.9998942471338095,6.67226016127969e-05
1546.1287915044977,1546.1287915044977,1.0000372062962222,6.671947494419866e-05
1546.1357360314914,1546.1357360314914,1.0000427159305896,6.671389937754468e-05
1546.142680558392,1546.142680558392,0.9999401955419607,6.672439564528024e-05
1546.1496250851994,1546.1496250851994,0.9998993999023916,6.671501283554818e-05
1546.156569611821,1546.156569611821,1.0001359698545251,6.672327544031325e-05
1546.1635141386282,1546.1635141386282,0.9999642485088497,6.672254688476083e-05
1546.1704586650635,1546.1704586650635,0.9999826376360413,6.671505946074868e-05
1546.1774031914981,1546.1774031914981,1.0001156981441033,6.672413475501927e-05
1546.1843477179332,1546.1843477179332,0.9999453124852685,6.672771761678219e-05
1546.191292244275,1546.191292244275,1.0000000120794217,6.671769416173126e-05
1546.1982367704309,1546.1982367704309,0.9999239318580748,6.671327972515586e-05
1546.205181296586,1546.205181296586,0.9999883376952422,6.671981064771842e-05
1546.2121258225557,1546.2121258225557,1.000035534960583,6.67150376905886e-05
