time,time,flux,flux_err
1410.9115456874422,1410.9115456874422,1.0017094215180915,0.0010415754721069886
1410.9191847747875,1410.9191847747875,1.0007281378260373,0.0009506068750630683
1410.926129399512,1410.926129399512,1.0005354291915531,0.0009504985527473326
1410.9330740238631,1410.9330740238631,1.0002727978221093,0.0009504342692149639
1410.9400186481218,1410.9400186481218,0.9982904829100855,0.0009498398261288069
1410.9469632720075,1410.9469632720075,0.9980756374521125,0.0009496438281672694
1410.9539078957998,1410.9539078957998,1.0001679674788202,0.0009500556648109531
1410.960852519314,1410.960852519314,0.9979658134810746,0.000949654148293895
1410.9691860673242,1410.9691860673242,1.0005857238633762,0.000949554384564108
1410.9852975923739,1410.9852975923739,1.0006841154459583,0.0009494508990848668
1410.9927977848113,1410.9927977848113,0.9997466839389453,0.0009499960234255252
1411.002520256016,1411.002520256016,0.9985969155067098,0.0009483241020182836
1411.0122427266626,1411.0122427266626,1.00040072044126,0.0009499224853831726
1411.0191873484994,1411.0191873484994,1.00114851465919,0.0009497784231281834
1411.0261319699637,1411.0261319699637,0.9999876692201776,0.0009497119434490264
1411.0330765912422,1411.0330765912422,0.9996834396199643,0.0009494266528998465
1411.04002121224,1411.04002121224,0.9996139575045622,0.0009491886609319025
1411.0469658330535,1411.0469658330535,0.9996100162139381,0.0009490834033283284
1411.0550215928301,1411.0550215928301,0.9993720708895545,0.0009490283987585276
1411.0622439980582,1411.0622439980582,1.0011201975893775,0.000949646024138763
1411.0691886182185,1411.0691886182185,0.9994614483062924,0.0009494084589288847
1411.0761332380066,1411.0761332380066,0.9992063367457653,0.0009491828293207556
1411.083077857702,1411.083077857702,0.9994833649158382,0.0009495115330063481
1411.0900224772101,1411.0900224772101,1.0012788580910883,0.0009495897407282977
1411.0969670964396,1411.0969670964396,1.002272045975118,0.0009498918276710667
1411.1039117153896,1411.1039117153896,1.0000246947693165,0.0009499353258964786
1411.110856334246,1411.110856334246,0.9974946363039754,0.0009487017892628105
1411.1178009528237,1411.1178009528237,1.0008857684208483,0.0009500396223607845
1411.124745571121,1411.124745571121,1.000586895553596,0.0009499470343124856
1411.1316901892328,1411.1316901892328,0.998639821360032,0.0009487464058908067
1411.1386348071585,1411.1386348071585,1.0006707196875786,0.0009500282778739375
1411.1455794247108,1411.1455794247108,0.9996364723659699,0.0009493423000751334
1411.1525240423575,1411.1525240423575,0.9998042444845886,0.0009494558310250882
1411.159468659444,1411.159468659444,1.0010223145706614,0.0009495786039907335
1411.166413276625,1411.166413276625,0.9984731521085015,0.0009493358197525173
1411.1733578934325,1411.1733578934325,0.999667616346241,0.0009487537451047364
1411.1803025099605,1411.1803025099605,0.9996301475187028,0.0009493260191957977
1411.1872471263964,1411.1872471263964,1.0024260966280358,0.0009497189972436374
1411.1941917424588,1411.1941917424588,1.0003658901809884,0.0009494075847217929
1411.2011363583354,1411.2011363583354,0.999406045208481,0.0009493522263666312
1411.2080809741187,1411.2080809741187,0.9995655954948439,0.0009493221463035969
1411.215025589529,1411.215025589529,0.9999823954763217,0.0009490774678988145
1411.2219702050338,1411.2219702050338,1.0005047511037657,0.0009490733020338313
1411.2289148200714,1411.2289148200714,0.9995565591020508,0.0009491995894323254
1411.2358594347374,1411.2358594347374,1.0003623200289442,0.000949148285630415
1411.2428040494035,1411.2428040494035,0.9997779866628973,0.000949312822953217
1411.2497486637892,1411.2497486637892,0.9989388400084753,0.0009493518016760509
1411.2566932779903,1411.2566932779903,1.0002583078909095,0.0009496673225007302
1411.2636378919103,1411.2636378919103,0.9994410207727322,0.00094950633838381
1411.2705825057383,1411.2705825057383,1.0013701326824667,0.0009502509529740464
1411.2775271192863,1411.2775271192863,1.0005139062598527,0.0009493491345913416
1411.2844717326477,1411.2844717326477,1.000233730355793,0.0009494937395477056
1411.2914163456376,1411.2914163456376,0.9990836753461853,0.0009489540594807517
1411.2983609587197,1411.2983609587197,0.9995289398043132,0.000949379418201929
1411.305305571337,1411.305305571337,0.9986955614416404,0.0009490478086037106
1411.3122501837674,1411.3122501837674,1.0025564356780385,0.0009501969263767361
1411.3191947959185,1411.3191947959185,0.9998557742652604,0.0009494837915904395
1411.3261394080703,1411.3261394080703,1.0003551787716911,0.0009493364606078221
1411.3330840198482,1411.3330840198482,0.9996376121905538,0.0009489921445828862
1411.3400286314409,1411.3400286314409,1.0007150854367197,0.0009493137035678055
1411.3469732428468,1411.3469732428468,1.0004204343906622,0.0009494588068828655
1411.3539178540668,1411.3539178540668,1.0002424034131245,0.0009492754645940675
1411.3608624650076,1411.3608624650076,0.9999594528409046,0.0009493976979186261
1411.367807075668,1411.367807075668,0.9995629035631435,0.0009490010564338475
1411.3747516865162,1411.3747516865162,1.0002186151245962,0.000949358168037334
1411.381696296711,1411.381696296711,1.0007885031089399,0.000950145246942578
1411.3886409068134,1411.3886409068134,1.000041098370994,0.0009493053470027348
1411.3955855166364,1411.3955855166364,0.9992764637684589,0.0009495971044383305
1411.4025301264587,1411.4025301264587,0.9992064432396912,0.0009489165294680904
1411.40947473591,1411.40947473591,0.9985165679648988,0.0009493587881544112
1411.4164193451738,1411.4164193451738,0.999762626766934,0.0009493839167412326
1411.4233639542515,1411.4233639542515,1.0014568392348777,0.0009497053549301496
1411.4303085632364,1411.4303085632364,1.001565619558777,0.0009499287050531508
1411.4372531718477,1411.4372531718477,1.000476988500011,0.0009494758778924546
1411.4441977802744,1411.4441977802744,0.9982892106402204,0.0009486903513137947
1411.4511423886067,1411.4511423886067,1.0000487271181937,0.0009490781194509558
1411.45808699666,1411.45808699666,1.000956734014911,0.0009498126584633308
1411.4650316043414,1411.4650316043414,1.0004701094154052,0.0009497287935341878
1411.4719762120217,1411.4719762120217,1.0004238938759271,0.0009491723603319426
1411.478920819424,1411.478920819424,0.9978583372832979,0.0009487462746428875
1411.4858654266386,1411.4858654266386,0.9997562332746478,0.0009492830040862613
1411.4928100335749,1411.4928100335749,1.0011413025579536,0.000949890416912774
1411.4997546404172,1411.4997546404172,1.0002964326759913,0.0009494011637010795
1411.5066992470734,1411.5066992470734,0.9999581231127616,0.0009491387613896456
1411.5136438534505,1411.5136438534505,0.9982649446181691,0.000948615809910159
1411.5205884596412,1411.5205884596412,0.9996285461060642,0.0009489932060524781
1411.5275330655527,1411.5275330655527,1.0012448098094286,0.0009493223189096041
1411.5344776712777,1411.5344776712777,1.000833802471314,0.0009493352128624276
1411.5414222770028,1411.5414222770028,0.9994003016850872,0.0009488850457108284
1411.5483668823558,1411.5483668823558,1.0007324751403577,0.0009486801853645247
1411.5553114876145,1411.5553114876145,1.0000293167269902,0.0009485896026376363
1411.5622560925951,1411.5622560925951,0.9985482848235303,0.0009487296293731092
1411.5692006972952,1411.5692006972952,1.0011836138968202,0.0009491670677735586
1411.576145301903,1411.576145301903,0.9998101938955614,0.0009487714026290815
1411.5830899063244,1411.5830899063244,1.0000548549443695,0.0009487424736197419
1411.5900345104656,1411.5900345104656,0.998904667390544,0.000948888703290773
1411.596979114422,1411.596979114422,1.000705591410918,0.0009491128515042453
1411.6039237182836,1411.6039237182836,1.0001001123887696,0.0009491487840044444
1411.610868321681,1411.610868321681,0.9982984132808556,0.0009482226973635329
1411.6178129250775,1411.6178129250775,1.0010075344039542,0.0009491428590865384
1411.6247575284738,1411.6247575284738,1.000523830187039,0.0009487390690671104
1411.6317021313125,1411.6317021313125,1.0016723663025384,0.0009494923255249524
1411.6386467341501,1411.6386467341501,0.9996026320721114,0.0009491864580257961
1411.645591336802,1411.645591336802,0.9990630809519884,0.0009488094977015468
1411.6525359391742,1411.6525359391742,1.000583418478343,0.0009491830218510279
1411.6594805413602,1411.6594805413602,1.0010676617930188,0.0009494636394962903
1411.6664251433601,1411.6664251433601,0.998766635253892,0.0009488328611714754
1411.6733697451732,1411.6733697451732,0.9983380528442449,0.0009486060803500878
1411.680314346801,1411.680314346801,0.9998756413112202,0.0009488145905118105
1411.687258948335,1411.687258948335,0.9990258124442551,0.0009485778243878258
1411.6942035494035,1411.6942035494035,1.0014793482527287,0.0009495432987613516
1411.7011481504721,1411.7011481504721,1.0018820578731011,0.0009493633714278852
1411.708092751354,1411.708092751354,0.9991001042438704,0.0009484707292913995
1411.7150373520503,1411.7150373520503,1.0008674031289808,0.0009490485463457465
1411.7219819524664,1411.7219819524664,0.9992850106429951,0.000949075277964514
1411.7289265526967,1411.7289265526967,0.999963073111412,0.0009487648650640714
1411.7358711528336,1411.7358711528336,0.9997232881675793,0.0009485541540732081
1411.7428157527847,1411.7428157527847,1.0008080991308141,0.0009491079557590648
1411.7497603523634,1411.7497603523634,1.0001146715640412,0.0009492333807298058
1411.7567049518482,1411.7567049518482,0.9996057430706887,0.0009489071168863721
1411.763649551241,1411.763649551241,0.9992391339140821,0.000949017699625959
1411.7705941504464,1411.7705941504464,0.998960541469556,0.0009486882412877093
1411.7775387491868,1411.7775387491868,0.999860920850551,0.0009488025247176988
1411.7844833479267,1411.7844833479267,1.0008539224657134,0.0009489093698025026
1411.7914279466663,1411.7914279466663,1.0004415276562164,0.0009491741497830043
1411.7983725449417,1411.7983725449417,0.9999039344269809,0.0009491046843790327
1411.8053171431225,1411.8053171431225,0.9989716446831569,0.0009487598531217982
1411.8122617412112,1411.8122617412112,1.0025815967226155,0.0009493525140412132
1411.8192063389267,1411.8192063389267,0.9989262190164553,0.000948203308536178
1411.8261509365489,1411.8261509365489,0.9997097454262273,0.0009484530350855643
1411.8330955340793,1411.8330955340793,0.9995047407232145,0.0009483938063328194
1411.8400401313284,1411.8400401313284,1.0008098654643232,0.0009486512755071319
1411.846984728393,1411.846984728393,0.9999211700364192,0.0009482034370661134
1411.85392932527,1411.85392932527,1.0001454386844613,0.0009485508332034234
1411.8608739219612,1411.8608739219612,0.9993030621209286,0.0009484205772943106
1411.8678185183733,1411.8678185183733,0.9997352670251031,0.0009483446182472811
1411.8747631147846,1411.8747631147846,0.9998935635139821,0.0009483432762680862
1411.881707711011,1411.881707711011,1.0010776789479676,0.0009488594562377724
1411.8886523069564,1411.8886523069564,0.9986977307735548,0.0009480459562477351
1411.8955969028102,1411.8955969028102,1.0010014422779545,0.0009490437678104686
1411.9025414983832,1411.9025414983832,1.0006021699900822,0.0009489831979663382
1411.909486093678,1411.909486093678,1.0008235613529881,0.000948560173677483
1411.9164306889722,1411.9164306889722,0.9988394314893265,0.0009483412678809626
1411.92337528408,1411.92337528408,0.997709317765217,0.0009476981250003526
1411.9303198789091,1411.9303198789091,1.0001863078155733,0.0009488341611495928
1411.9372644735508,1411.9372644735508,1.001430903275749,0.0009491487269988691
1411.9442090681937,1411.9442090681937,1.0010998721521833,0.0009490143220618861
1411.9511536624632,1411.9511536624632,1.000522745591027,0.0009490447602794006
1411.958098256826,1411.958098256826,0.999498317860564,0.0009490011294028044
1411.9650428505372,1411.9650428505372,0.9991139201680816,0.0009490339006470426
1411.971987444434,1411.971987444434,1.0007869428903549,0.000949185509856252
1411.9789320380526,1411.9789320380526,0.9987508303863807,0.0009484015934076115
1411.9858766314842,1411.9858766314842,1.0001909328810696,0.0009488812337965244
1411.9928212247296,1411.9928212247296,0.9992998619499179,0.0009487136535668928
1411.999765817882,1411.999765817882,1.001066849233808,0.0009488611711630606
1412.0067104107543,1412.0067104107543,0.998701952850954,0.0009489635014267363
1412.0136550034415,1412.0136550034415,1.0006733778125345,0.0009490155451460696
1412.0205995960341,1412.0205995960341,1.0005132231039644,0.0009490162416473556
1412.0275441884419,1412.0275441884419,0.9997232826170261,0.000948660682927345
1412.0344887805693,1412.0344887805693,0.9997764233353161,0.0009484876873483131
1412.0414333727904,1412.0414333727904,0.9994554557678118,0.0009483873502089367
1412.0483779645458,1412.0483779645458,1.0022575792826474,0.000948848176042093
1412.0553225563008,1412.0553225563008,1.0001688617545093,0.0009486663021549832
1412.0622671476842,1412.0622671476842,0.9993699152305175,0.0009482954512802332
1412.069211739066,1412.069211739066,0.9996521161254568,0.0009486101474525145
1412.0761563302635,1412.0761563302635,0.9995733888812225,0.0009483907668546168
1412.083100921273,1412.083100921273,0.9992050310821451,0.0009483961994307142
1412.090045512004,1412.090045512004,0.9993492418924814,0.0009483412941406784
1412.0969901027347,1412.0969901027347,1.000988905398177,0.0009487929604467661
1412.1039346930925,1412.1039346930925,1.0001624915539025,0.0009488304895767186
1412.1108792835448,1412.1108792835448,1.0004622481457175,0.0009485197700032455
1412.11782387353,1412.11782387353,1.0002380147575796,0.0009488728518202195
1412.124768463516,1412.124768463516,1.000781195843084,0.0009488083385822855
1412.1317130534085,1412.1317130534085,0.9984193283666238,0.0009477238464517558
1412.1386576429286,1412.1386576429286,1.0014533319356476,0.0009488138269320729
1412.1456022323557,1412.1456022323557,0.9987958821703881,0.0009478440353759678
1412.1525468217822,1412.1525468217822,0.9992141588061358,0.0009483098823043667
1412.159491410744,1412.159491410744,0.9999222306125063,0.0009483167204763965
1412.166435999798,1412.166435999798,1.0015418276750794,0.0009492415557954541
1412.17338058848,1412.17338058848,0.9999608696995385,0.0009487253451322906
1412.1803251770687,1412.1803251770687,0.9999450525308744,0.0009483707529836525
1412.1872697655645,1412.1872697655645,1.0003707679431233,0.0009489009347310538
1412.1942143537806,1412.1942143537806,0.9987390435905027,0.0009483344733924291
1412.2011589419033,1412.2011589419033,0.9994749434263536,0.000948453602638024
1412.2081035297476,1412.2081035297476,0.9999165093844506,0.0009486711073368043
1412.2150481175909,1412.2150481175909,0.9998505344880353,0.0009485779559651976
1412.2219927051556,1412.2219927051556,0.9998336243398294,0.0009487231074315425
1412.2289372925336,1412.2289372925336,1.0021715405572535,0.0009494924125540204
1412.2358818800046,1412.2358818800046,1.0001187892308274,0.0009489560087221566
1412.2428264671037,1412.2428264671037,0.9999477715782573,0.0009485636180304914
1412.249771053829,1412.249771053829,0.9999054884096148,0.0009486771313387307
1412.2575489910075,1412.2575489910075,1.0001445603552104,0.0009485407866408134
1412.2661602783578,1412.2661602783578,0.9998452243742706,0.0009471949734131135
1412.2761604826624,1412.2761604826624,0.9995410622565352,0.0009482464883073872
1412.2875496039214,1412.2875496039214,0.9996020170045503,0.0009478404986611901
1412.2956053234648,1412.2956053234648,0.9998451572389747,0.0009482225362912754
1412.3025499091668,1412.3025499091668,0.9993886854698453,0.0009487954970915091
1412.309494494682,1412.309494494682,1.0007209463005515,0.0009490582903626954
1412.3164390800112,1412.3164390800112,0.999784393112386,0.0009488398775992675
1412.3233836652475,1412.3233836652475,1.0004528223426374,0.0009492404990900349
1412.3303282501106,1412.3303282501106,1.0010182578176352,0.0009486707023862327
1412.3372728353472,1412.3372728353472,1.001709600424975,0.00094975730569029
1412.3442174197444,1412.3442174197444,0.9988533791432861,0.0009486141594175623
1412.3511620044223,1412.3511620044223,1.0000898060183059,0.0009484914581596683
1412.358106588726,1412.358106588726,0.9991839424678044,0.0009481815598413093
1412.3650511729384,1412.3650511729384,0.9995418892664333,0.0009484316018437678
1412.3719957570565,1412.3719957570565,1.0019287421337808,0.0009488221869902197
1412.3789403409887,1412.3789403409887,0.999845921527054,0.0009489198284476349
1412.3858849246417,1412.3858849246417,0.9989931123575028,0.0009485755160699713
1412.3928295082937,1412.3928295082937,1.000859773674056,0.0009488866057628497
1412.3997740917612,1412.3997740917612,0.9996363220068867,0.0009487890446412746
1412.4067186749478,1412.4067186749478,0.999204399716135,0.0009485115599516732
1412.413663258135,1412.413663258135,1.0003329419427085,0.0009481540116863905
1412.4206078410425,1412.4206078410425,0.9984877618005141,0.0009477830489683771
1412.4275524238572,1412.4275524238572,1.0025578740124896,0.000949362224265321
1412.4344970062994,1412.4344970062994,1.0007465134875142,0.0009488959571350636
1412.441441588741,1412.441441588741,0.9986732516951857,0.0009485656816611589
1412.4483861711838,1412.4483861711838,0.9990181286878265,0.0009483963244679063
1412.455330753439,1412.455330753439,1.0001794315537988,0.0009486911866597008
1412.4622753354156,1412.4622753354156,1.0024361345916795,0.0009490828669440895
1412.4692199172987,1412.4692199172987,0.9988497163569822,0.0009480494895536228
1412.4761644989026,1412.4761644989026,1.0006513510046358,0.0009488565982023495
1412.4831090805062,1412.4831090805062,0.9985868483540674,0.0009479397218673197
1412.4900536617374,1412.4900536617374,0.9998160992947343,0.0009489162732183708
1412.4969982430625,1412.4969982430625,0.9993238941940241,0.0009491880735134942
1412.5039428241068,1412.5039428241068,1.0000371607445901,0.0009487762217314834
1412.5108874050597,1412.5108874050597,1.0007134427402686,0.0009493722960500512
1412.5178319857318,1412.5178319857318,1.0012005138338818,0.0009494075096142952
1412.5247765664044,1412.5247765664044,1.0000120660055445,0.0009493173485101263
1412.5317211468907,1412.5317211468907,0.998314775816455,0.0009490296196236443
1412.5386657270972,1412.5386657270972,0.9995789209065009,0.0009486674698157754
1412.5456103072113,1412.5456103072113,0.9995909643482358,0.0009487921082808103
1412.5525548873245,1412.5525548873245,0.9989846416719331,0.0009485460728433549
1412.5594994669732,1412.5594994669732,1.0009949969329552,0.0009491282189802106
1412.566444046714,1412.566444046714,0.9992016911835512,0.0009484240904915541
1412.5733886261762,1412.5733886261762,1.0003158148845064,0.0009489886461299968
1412.5803332056378,1412.5803332056378,1.0010468675164774,0.0009492251621422674
1412.5872777848203,1412.5872777848203,1.0009961999364816,0.000948924233026514
1412.59422236391,1412.59422236391,0.9994242560440334,0.0009483932282571734
1412.6011669428124,1412.6011669428124,1.0002529251601247,0.000948799312904166
1412.6081115215297,1412.6081115215297,0.9988410424133253,0.000948320405631323
1412.6150561001525,1412.6150561001525,1.0001903807760144,0.0009484333460573607
1412.6220006785904,1412.6220006785904,1.0012295040634274,0.0009491043424467787
1412.6289452569342,1412.6289452569342,0.9980591569192523,0.0009477329484460356
1412.6358898350923,1412.6358898350923,0.9991315099685366,0.0009484626266659798
1412.6428344129713,1412.6428344129713,1.0010678694889872,0.0009492274536192858
1412.6497789907567,1412.6497789907567,1.0011442804052988,0.0009492828528261186
1412.6567235685422,1412.6567235685422,0.999491773850341,0.0009488587857674504
1412.663668146234,1412.663668146234,0.9998688089836069,0.00094881629922002
1412.6706127235543,1412.6706127235543,1.000090248370134,0.0009490530746594356
1412.6775573007803,1412.6775573007803,0.999855878807927,0.0009488277872739344
1412.6845018780075,1412.6845018780075,1.0000522731783015,0.0009482657026602968
1412.691446454861,1412.691446454861,0.9998481269614274,0.0009488218077182059
1412.6983910316226,1412.6983910316226,1.0012563099225993,0.000949637766634808
1412.7053356082902,1412.7053356082902,0.9978215834868172,0.0009485036718241543
