time,time,flux,flux_err
1517.3640691185155,1517.3640691185155,1.000065269067519,0.0011928748786215685
1517.3735600261318,1517.3735600261318,1.0018414504420599,0.0010660671273550846
1517.380504593064,1517.380504593064,0.9980446737208469,0.0010498505967997639
1517.3874491603224,1517.3874491603224,0.9992574637977206,0.0010354680263386152
1517.3946715106435,1517.3946715106435,0.999913502007522,0.0010222059405913865
1517.402727209455,1517.402727209455,0.9993951575460214,0.001007625036562086
1517.4096717777377,1517.4096717777377,1.0004740622574675,0.0009971731671239077
1517.41661634637,1517.41661634637,0.99878018962483,0.000986063409135993
1517.4235609152809,1517.4235609152809,1.0004240478663597,0.0009767373002529604
1517.4305054844485,1517.4305054844485,1.0010918533460713,0.0009678479803484246
1517.4374500538956,1517.4374500538956,0.9981205674361409,0.0009592129969945758
1517.4443946236686,1517.4443946236686,1.000492213873029,0.0009525839633341235
1517.451339193744,1517.451339193744,0.9989253910599075,0.0009456387896200118
1517.4582837640526,1517.4582837640526,1.0013474904972512,0.00093927210705299
1517.4652283346636,1517.4652283346636,1.0014899178586263,0.0009334416399327942
1517.472172905461,1517.472172905461,0.9984359041241397,0.0009272433430054913
1517.479117476561,1517.479117476561,1.0005301937758957,0.0009220102078719006
1517.4860620479171,1517.4860620479171,1.0003908139911135,0.0009169389120357764
1517.4930066195295,1517.4930066195295,0.998633195070445,0.0009118851178455727
1517.499951191351,1517.499951191351,1.0011781701239693,0.0009082253994567282
1517.5068957634526,1517.5068957634526,1.000066488801023,0.000903017931295928
1517.51384033574,1517.51384033574,0.9994717145581132,0.0008999953806647823
1517.5207849082835,1517.5207849082835,1.0008017957107467,0.0008948224071427027
1517.5277294810367,1517.5277294810367,1.0011297217689954,0.0008908978998508014
1517.534674054046,1517.534674054046,0.9996221394967204,0.0008870716754578575
1517.541618627218,1517.541618627218,0.9993145260360468,0.0008836275309805342
1517.5485632006,1517.5485632006,1.001534488663366,0.0008803513508296266
1517.5555077742147,1517.5555077742147,0.9993846534159431,0.0008766103006223513
1517.5624523480387,1517.5624523480387,1.000379279234933,0.0008734286194292077
1517.5693969220258,1517.5693969220258,0.9997478942616553,0.0008700160267974044
1517.5763414962457,1517.5763414962457,0.9994828745045474,0.000867133707493737
1517.5832860706291,1517.5832860706291,0.9985154319084512,0.000864663395158874
1517.5902306452213,1517.5902306452213,1.0004367819159563,0.0008625248297721526
1517.5971752199303,1517.5971752199303,0.9996567607677329,0.0008602823362009106
1517.6041197948953,1517.6041197948953,1.0004634875220177,0.0008584213742333233
1517.61106437,1517.61106437,1.00058766420474,0.0008559185439737527
1517.6180089453142,1517.6180089453142,1.0006509094222154,0.0008540391891377968
1517.624953520745,1517.624953520745,1.000512816316356,0.0008520144438760709
1517.6318980963385,1517.6318980963385,1.0004552830816769,0.0008503550054215344
1517.638842672142,1517.638842672142,0.9990146411171035,0.0008490284389233687
1517.645787248108,1517.645787248108,0.9987854703905056,0.0008470561064150399
1517.6527318241442,1517.6527318241442,1.0001429964264557,0.0008458199644037625
1517.6596764004132,1517.6596764004132,1.0016232313803808,0.000844193745625465
1517.666620976775,1517.666620976775,0.9997670884644954,0.0008438262503818468
1517.6735655533466,1517.6735655533466,1.0000996081289557,0.0008404020031865902
1517.680510129988,1517.680510129988,0.998718162053914,0.0008389692632853211
1517.6874547068155,1517.6874547068155,1.0009767449033298,0.0008378375299373296
1517.6943992837364,1517.6943992837364,0.9999342946946136,0.0008362158296522816
1517.7013438607971,1517.7013438607971,0.9991962241765961,0.0008335359018378516
1517.7082884380436,1517.7082884380436,0.9995319234868862,0.0008318102237626492
1517.7152330153835,1517.7152330153835,1.0006290503352666,0.0008301696401241572
1517.7221775928397,1517.7221775928397,0.9996575756433138,0.0008279569479363272
1517.7291221704595,1517.7291221704595,1.0001121882755115,0.0008267825497159801
1517.736066748195,1517.736066748195,0.9992002718393245,0.0008243735677676056
1517.743011325977,1517.743011325977,1.0009974624589988,0.0008235686200861153
1517.7499559039225,1517.7499559039225,1.0004808306006758,0.0008214968569347808
1517.756900481984,1517.756900481984,1.0003627472878496,0.000819255849858178
1517.763845060162,1517.763845060162,0.9990783303065263,0.0008183001944346248
1517.770789638387,1517.770789638387,0.9997860987625323,0.0008160784995957634
1517.7777342168215,1517.7777342168215,1.0015550385881569,0.000815310777677098
1517.7846787953017,1517.7846787953017,0.9996182681592035,0.0008134943583454851
1517.791623373899,1517.791623373899,0.9999158288915524,0.0008115419758093096
1517.7985679525661,1517.7985679525661,0.9997244233529861,0.0008105643645400651
1517.8055125313726,1517.8055125313726,1.0003718397584223,0.0008097495770923869
1517.8124571102728,1517.8124571102728,1.0015781992811834,0.0008086022912605999
1517.8194016891957,1517.8194016891957,0.9996161671167977,0.0008072103333315332
1517.8263462682587,1517.8263462682587,0.9994547260184945,0.0008055986893275585
1517.8332908474144,1517.8332908474144,0.9999640511715896,0.0008052814846673962
1517.8402354266404,1517.8402354266404,0.9997981560670921,0.0008034460141974441
1517.8471800059826,1517.8471800059826,0.9995018156092306,0.0008024799075836197
1517.8541245854185,1517.8541245854185,0.9999567445970756,0.0008019145564505022
1517.8610691648998,1517.8610691648998,0.9998595187447377,0.000801028483390027
1517.868013744452,1517.868013744452,1.0000218141893147,0.0007998070858824511
1517.874958324097,1517.874958324097,1.0001158374892243,0.0007984364181718908
1517.8819029038345,1517.8819029038345,1.0005142495146118,0.0007971571745920818
1517.8888474836192,1517.8888474836192,1.0008633389815347,0.000797069781476556
1517.895792063497,1517.895792063497,1.000039302783969,0.0007962948700899716
1517.9027366434216,1517.9027366434216,1.00060890887961,0.0007946219950876853
1517.9096812234852,1517.9096812234852,1.0000052123069383,0.00079489962722898
1517.9166258035496,1517.9166258035496,0.9993905208934528,0.000793501390708857
1517.9235703836832,1517.9235703836832,1.0001842946067963,0.0007934449606706069
1517.9305149639101,1517.9305149639101,0.9987776302888018,0.0007922963611919406
1517.9374595441836,1517.9374595441836,1.0001138451284621,0.0007924620004069584
1517.9457930406102,1517.9457930406102,0.9994233907150665,0.0007916175287671654
1517.952737621,1517.952737621,1.0009254407492039,0.0007914687725258662
1517.959682201483,1517.959682201483,0.9999758796565477,0.0007912620997004507
1517.9666267819894,1517.9666267819894,1.0003959569498049,0.0007908040683357716
1517.9735713626355,1517.9735713626355,1.0005660279657103,0.0007893332274987869
1517.9805159432815,1517.9805159432815,0.9995065070822096,0.0007881762464748008
1517.9874605239277,1517.9874605239277,0.9986701045374421,0.0007876478010813385
1517.994405104667,1517.994405104667,0.9989391936008243,0.000787310082938799
1518.0013496854992,1518.0013496854992,1.0006443903362774,0.0007869591302541751
1518.0082942663316,1518.0082942663316,1.0006433837176965,0.0007866268275373456
1518.0152388472338,1518.0152388472338,0.9995671397123816,0.0007853577884357586
1518.0221834281826,1518.0221834281826,1.0020785388961388,0.0007860119903977463
1518.0291280091546,1518.0291280091546,0.9993382296476401,0.0007851426631346329
1518.0360725902199,1518.0360725902199,1.0000555954743433,0.0007843375569917465
1518.0430171712849,1518.0430171712849,1.000983392151013,0.0007844989614567416
1518.0499617524201,1518.0499617524201,0.9991929196000756,0.0007833715823107164
1518.0569063335552,1518.0569063335552,0.9989169170609717,0.0007837436696880426
1518.0638509147598,1518.0638509147598,0.9996262422182651,0.0007830581812588427
1518.0707954960112,1518.0707954960112,1.0006069328237428,0.0007832057303211208
1518.0777400773327,1518.0777400773327,1.0026874775791046,0.0007827489013241187
1518.084684658654,1518.084684658654,0.9995649112096313,0.0007833258435551339
1518.0916292399984,1518.0916292399984,0.9996441427485063,0.000781570764088284
1518.0985738214133,1518.0985738214133,0.9997990298413797,0.0007813578357154845
1518.1055184028269,1518.1055184028269,1.0032874083197516,0.0007816842352221887
1518.1124629843118,1518.1124629843118,0.9996562318077313,0.0007812389293474446
1518.1194075657727,1518.1194075657727,0.9980858232880729,0.00077981363309556
1518.12635214735,1518.12635214735,1.0004793411650525,0.0007794761255824874
1518.1332967289043,1518.1332967289043,0.9998283031754587,0.0007788855740958453
1518.1402413104815,1518.1402413104815,1.0005640824128197,0.0007786051094024664
1518.1471858921054,1518.1471858921054,1.0008022327643245,0.0007777325322829748
1518.1541304737761,1518.1541304737761,1.0000893280442236,0.0007775722467483866
1518.1610750554466,1518.1610750554466,0.9991540098185862,0.0007766465508132959
1518.1680196371403,1518.1680196371403,1.0005830941766498,0.0007766575047075798
1518.1749642188577,1518.1749642188577,1.0004957840693116,0.0007758531960606857
1518.1819088006446,1518.1819088006446,1.0000967840753652,0.000775711562108974
1518.188853382455,1518.188853382455,0.99942593408119,0.0007755024820410028
1518.1957979642652,1518.1957979642652,0.9992978610206936,0.00077439803380586
1518.2027425460751,1518.2027425460751,0.99975638082036,0.000774246179304405
1518.2096871278854,1518.2096871278854,1.000043917410166,0.0007741321589268327
1518.2166317097656,1518.2166317097656,1.0017592074510135,0.0007744072129619642
1518.2235762916455,1518.2235762916455,1.0003522777568972,0.0007741327227990908
1518.2305208735493,1518.2305208735493,1.000740459034244,0.0007732719841916618
1518.2374654554992,1518.2374654554992,0.9994307592398328,0.0007733227928526232
1518.2444100374485,1518.2444100374485,0.9998765729624962,0.0007731209495046827
1518.251354619399,1518.251354619399,0.998917958347214,0.0007735514559531774
1518.2582992013722,1518.2582992013722,0.9987882445727742,0.0007737333686789756
1518.2657993499365,1518.2657993499365,1.0006803568257774,0.0007726722968655815
1518.2735772817969,1518.2735772817969,0.999585067843966,0.0007729207203011979
1518.2805218638398,1518.2805218638398,1.00003255172049,0.0007723693512183775
1518.2874664458832,1518.2874664458832,0.999593505425997,0.0007712168661473646
1518.2944110279263,1518.2944110279263,0.9993545382938583,0.000771804795640772
1518.3013556100157,1518.3013556100157,0.9988794723312224,0.0007703196536169497
1518.3085779754015,1518.3085779754015,1.0118662839409711,0.0007734331947964232
1518.3166336906502,1518.3166336906502,1.002708541058005,0.0007714663862747812
1518.3235782727395,1518.3235782727395,1.0000914458247279,0.0007701811586743456
1518.330522854853,1518.330522854853,0.9985177364753447,0.0007693184064518716
1518.3374674369886,1518.3374674369886,0.9997748825821592,0.0007695562181486065
1518.344412019125,1518.344412019125,1.0001154043465859,0.0007690475748153671
1518.3513566012848,1518.3513566012848,0.999319250650523,0.0007694431395598919
1518.358301183444,1518.358301183444,1.001074491208381,0.0007688796970815612
1518.3652457656037,1518.3652457656037,0.9994651920510573,0.0007702290771899622
1518.3721903477633,1518.3721903477633,1.0009011735131352,0.0007688754952392641
1518.3791349299456,1518.3791349299456,1.0009620544301598,0.0007689844385647978
1518.386079512152,1518.386079512152,0.9984116405488118,0.0007684927331111776
1518.393024094358,1518.393024094358,0.9993505102550013,0.0007681800788117618
1518.3999686765405,1518.3999686765405,0.999755404663247,0.0007679371012919012
1518.406913258747,1518.406913258747,0.9985539676267037,0.0007673434960582127
1518.414968974089,1518.414968974089,0.9998374189416355,0.0007670846433800512
1518.4221913395907,1518.4221913395907,1.0009590212677852,0.0007680445582097211
1518.4291359217968,1518.4291359217968,0.9994479589161281,0.0007667945034374197
1518.4360805040262,1518.4360805040262,1.000470012710539,0.0007670076510315034
1518.443025086232,1518.443025086232,0.9995404308966652,0.0007660852830604658
1518.4499696684613,1518.4499696684613,1.0014213003578898,0.0007665067418561513
1518.4571920339865,1518.4571920339865,1.0003013273342654,0.0007660555743104612
1518.4652477493753,1518.4652477493753,0.9990526721021524,0.0007655618324838102
1518.4721923315578,1518.4721923315578,1.0000640615602023,0.0007667141611454461
1518.4791369138106,1518.4791369138106,0.9999206389890423,0.000766479016021115
1518.4860814960168,1518.4860814960168,0.9993779646739446,0.000766185310408568
1518.493026078246,1518.493026078246,1.000965439302008,0.000766585160345611
1518.4999706604754,1518.4999706604754,1.0000108785112618,0.000766249436621679
1518.5069152426815,1518.5069152426815,0.9998732057631402,0.0007658837156284852
1518.5138598249107,1518.5138598249107,0.9995010990730302,0.0007666167969177341
1518.5208044071169,1518.5208044071169,1.000042568802174,0.0007664046008302847
1518.5277489893463,1518.5277489893463,1.0000992352218567,0.0007660941457598457
1518.534693571552,1518.534693571552,0.9999651430227352,0.0007659351739989338
1518.541638153735,1518.541638153735,0.9996192833073817,0.0007662603304066657
1518.548582735941,1518.548582735941,0.9987523553612301,0.000765583215076438
1518.555527318147,1518.555527318147,0.9997405099295354,0.0007660692317427489
1518.56247190033,1518.56247190033,0.9997866009379675,0.0007659412506049389
1518.5694164825359,1518.5694164825359,1.0006077212788518,0.0007656371421822738
1518.5763610647184,1518.5763610647184,1.004951509687328,0.0007658516029053551
1518.5833056469014,1518.5833056469014,1.0047517593972355,0.0007657434207553835
1518.590250229061,1518.590250229061,1.0005111237981161,0.0007646985375679262
1518.5971948112433,1518.5971948112433,0.9998797721301715,0.0007645633594696431
1518.604139393403,1518.604139393403,0.99884245486953,0.000765104898354259
1518.6110839755393,1518.6110839755393,0.9989239879813532,0.0007648527722291588
1518.6180285576754,1518.6180285576754,0.9994923277111782,0.0007639657729647649
1518.6249731398345,1518.6249731398345,0.9993585715677872,0.0007643538777708605
1518.631917721948,1518.631917721948,0.9993428100116424,0.0007642206242266833
1518.6388623040841,1518.6388623040841,1.0006975939769287,0.0007643482268245058
1518.6458068861969,1518.6458068861969,1.0030659309504624,0.0007648067618403712
1518.6527514683098,1518.6527514683098,1.002813927054239,0.0007658163358964605
1518.6596960503996,1518.6596960503996,1.0006625101607356,0.0007648959114407222
1518.6666406324425,1518.6666406324425,0.9999664233906744,0.0007645353379646997
1518.6735852145553,1518.6735852145553,1.000740382199775,0.0007657232603369282
1518.6805297965986,1518.6805297965986,0.9988073341316861,0.0007650606567589353
1518.6874743786645,1518.6874743786645,0.9997689824467454,0.0007657170872014906
1518.6944189607077,1518.6944189607077,0.9983834279529941,0.0007656986218895338
1518.7013635427509,1518.7013635427509,0.9997724373971828,0.00076532163255261
1518.7083081247472,1518.7083081247472,0.9993183216883029,0.0007654405955658317
1518.715252706767,1518.715252706767,1.0005893058895985,0.0007656660068355724
1518.7221972887637,1518.7221972887637,1.0001546836103923,0.0007654408686873287
1518.7291418707603,1518.7291418707603,1.0028327955958254,0.0007661610914339634
1518.7360864527102,1518.7360864527102,1.001784526466104,0.0007657663792888334
1518.7430310347067,1518.7430310347067,0.9994380941144796,0.0007661282453757837
1518.749975616633,1518.749975616633,1.0002433671722524,0.0007653135159493408
1518.7569201985832,1518.7569201985832,1.0003297231000219,0.0007654298251433523
1518.76386478051,1518.76386478051,0.9982303498887093,0.0007646594695096555
1518.7708093624128,1518.7708093624128,0.99958324763043,0.0007662960522771334
1518.7777539442932,1518.7777539442932,1.0004426520439211,0.0007662456113227244
1518.7846985261965,1518.7846985261965,1.0005795790897483,0.000766375526321782
1518.7916431080298,1518.7916431080298,1.000999821768461,0.0007664184996221138
1518.7985876899334,1518.7985876899334,0.9998148149364265,0.0007661896075646929
1518.8055322717669,1518.8055322717669,0.9998183128688899,0.0007665310078433694
1518.812476853577,1518.812476853577,1.0003567943735114,0.000766542501370114
1518.8194214353873,1518.8194214353873,0.999214961954835,0.0007665811782786361
1518.8263660171979,1518.8263660171979,0.9990588018195272,0.0007654031080916548
1518.8333105989382,1518.8333105989382,0.9987208981680842,0.0007657197677658307
1518.8402551807017,1518.8402551807017,0.9985423578697075,0.0007651127903771073
1518.8471997624652,1518.8471997624652,0.9996283929372994,0.0007657691636776629
1518.854144344206,1518.854144344206,1.0037418502249023,0.0007665208771571993
1518.8610889258994,1518.8610889258994,1.0011958490745747,0.0007665502645597838
1518.868033507593,1518.868033507593,1.0019538331941977,0.0007662634051573323
1518.8749780892635,1518.8749780892635,1.0013993644046357,0.0007657308725170955
1518.8819226709343,1518.8819226709343,1.0003848401725155,0.0007656289268568643
1518.8888672526048,1518.8888672526048,1.0000524532920418,0.0007651372714041017
1518.8958118342055,1518.8958118342055,0.9999752282651876,0.0007657375019073421
1518.9027564158296,1518.9027564158296,0.9988296005518349,0.0007657716569243024
1518.9097009974298,1518.9097009974298,0.9994353101563643,0.0007663432970686817
1518.9166455790075,1518.9166455790075,0.9988601183570494,0.0007662199580905828
1518.9235901605616,1518.9235901605616,1.000272773804762,0.0007668544846395761
1518.9305347421155,1518.9305347421155,0.999224100586962,0.0007665999498208149
1518.9374793236234,1518.9374793236234,1.0010333637534217,0.0007677557027625658
1518.9444239051306,1518.9444239051306,1.0006901471961143,0.0007677004064979091
1518.9513684866147,1518.9513684866147,1.0003127574133934,0.0007675091292289819
1518.9583130680762,1518.9583130680762,0.9989459207349018,0.0007662304970294716
1518.965257649514,1518.965257649514,0.999677588990582,0.0007677466583239365
1518.9722022309513,1518.9722022309513,0.9994805826894906,0.0007671006126103198
1518.9791468123426,1518.9791468123426,1.00031474124019,0.0007668748702456597
1518.986091393734,1518.986091393734,1.0000499311487208,0.0007663994251778936
1518.9930359751013,1518.9930359751013,0.9988467867604485,0.0007668399734186696
1518.9999805564462,1518.9999805564462,0.9994432177581707,0.0007660263398551772
1519.0069251377672,1519.0069251377672,1.0058020024727345,0.0007673268475677933
1519.013869719089,1519.013869719089,1.0031802569508728,0.000766757011805593
1519.02081430034,1519.02081430034,1.0029853628593248,0.0007666757663653018
1519.0277588816614,1519.0277588816614,0.9991449277280873,0.0007651591713165901
1519.0347034628899,1519.0347034628899,0.9996704470315662,0.0007674956522177026
1519.0416480441177,1519.0416480441177,1.0000883544880836,0.0007661215887200076
1519.0485926253227,1519.0485926253227,0.9993633721047537,0.0007668462665523987
1519.0555372064575,1519.0555372064575,0.9998273025179284,0.0007663395127629573
1519.0624817876392,1519.0624817876392,0.9995470520738321,0.0007665527157367109
1519.0694263687737,1519.0694263687737,1.000347357450909,0.0007669866793573656
1519.0763709498856,1519.0763709498856,1.0011923003989023,0.0007668592137187581
1519.0833155309742,1519.0833155309742,1.0003471852526695,0.0007674608726901912
1519.0902601120624,1519.0902601120624,0.9987986773557426,0.000766232337509902
1519.0972046931279,1519.0972046931279,0.998078217286978,0.0007668060706988145
1519.1041492741465,1519.1041492741465,0.9987697024051915,0.0007668528101015512
1519.1110938551417,1519.1110938551417,1.001211222029807,0.0007668846271976865
1519.1180384361367,1519.1180384361367,1.0004439077265541,0.0007675546316839242
1519.1249830170857,1519.1249830170857,1.000312726450704,0.000766709429388797
1519.1319275980113,1519.1319275980113,1.00095101969717,0.0007666139029567703
1519.1388721789597,1519.1388721789597,1.0005695571552597,0.0007670916848135193
