time,time,flux,flux_err
1468.276263696055,1468.276263696055,1.0000697558414409,9.315824287384056e-05
1468.2832083130738,1468.2832083130738,1.0000079996871658,9.315172699436536e-05
1468.2901529299997,1468.2901529299997,1.0000690166751154,9.315344509509699e-05
1468.2970975469257,1468.2970975469257,1.0000796749766447,9.315737013955028e-05
1468.3040421638284,1468.3040421638284,1.0001741690459078,9.316854539954513e-05
1468.3109867806145,1468.3109867806145,0.9999917737941215,9.315410940446105e-05
1468.3179313974701,1468.3179313974701,1.0000450176136182,9.315423636348924e-05
1468.3248760141864,1468.3248760141864,0.9999365032282495,9.315703406991241e-05
1468.3318206309493,1468.3318206309493,1.0001048662418923,9.316362085569593e-05
1468.3387652476194,1468.3387652476194,0.9999834522119432,9.315321247518818e-05
1468.3457098642655,1468.3457098642655,1.0000187891311076,9.31547367204152e-05
1468.3526544808656,1468.3526544808656,1.0000707930587036,9.315101697164656e-05
1468.359599097419,1468.359599097419,1.0001398454999315,9.316422098399502e-05
1468.366543713949,1468.366543713949,1.0001836589877617,9.316127144642732e-05
1468.3734883304326,1468.3734883304326,1.0000175373171696,9.31575623149026e-05
1468.3882109172037,1468.3882109172037,1.000053338614561,9.31379396731873e-05
1468.397100026155,1468.397100026155,1.0002820464295066,9.315087319263566e-05
1468.4040446424758,1468.4040446424758,1.0001207244699437,9.310176621615331e-05
1468.4109892587262,1468.4109892587262,0.9998736731899989,9.312903059304543e-05
1468.41793387493,1468.41793387493,0.999933123453749,9.313215973388106e-05
1468.4248784911342,1468.4248784911342,0.9999852658208906,9.31413263806013e-05
1468.4318231072918,1468.4318231072918,1.0001483315743462,9.314311028209663e-05
1468.4387677234026,1468.4387677234026,1.000136541632785,9.314506369972105e-05
1468.445712339467,1468.445712339467,0.999938512163841,9.314553801906191e-05
1468.4526569554848,1468.4526569554848,1.000070297244101,9.314349370511935e-05
1468.4596015714792,1468.4596015714792,0.9998699789291695,9.31324186639046e-05
1468.4665461874042,1468.4665461874042,1.0000196935211376,9.312066573729841e-05
1468.4734908033058,1468.4734908033058,1.0000133871970232,9.312826439624017e-05
1468.4804354191833,1468.4804354191833,0.9999741575176252,9.311349331693651e-05
1468.4873800350383,1468.4873800350383,1.000047600938308,9.314026770857026e-05
1468.4943246508005,1468.4943246508005,1.0000304221928815,9.313222205955282e-05
1468.5012692665389,1468.5012692665389,0.9998924000433709,9.313842924227923e-05
1468.5082138822306,1468.5082138822306,1.0000733448211765,9.313811476694402e-05
1468.5151584979453,1468.5151584979453,1.0001129523679488,9.310881457554782e-05
1468.5221031135675,1468.5221031135675,1.0001295476192362,9.31291378458472e-05
1468.5290477291198,1468.5290477291198,1.0000465893598756,9.313890722461814e-05
1468.535992344672,1468.535992344672,0.9999237039768628,9.313338170804621e-05
1468.5429369601775,1468.5429369601775,0.9999592764073653,9.310911262924658e-05
1468.5498815756364,1468.5498815756364,1.0001260929500766,9.313202767780664e-05
1468.5568261910494,1468.5568261910494,0.9998790583617506,9.313676520218655e-05
1468.563770806462,1468.563770806462,1.000000226421474,9.314774592189646e-05
1468.570715421781,1468.570715421781,1.0000615728681201,9.31404726593942e-05
1468.5776600370768,1468.5776600370768,0.9998662809658537,9.313018098413168e-05
1468.5846046523498,1468.5846046523498,0.9999752996143375,9.315402089383245e-05
1468.5915492675756,1468.5915492675756,1.0000066649604684,9.314428869936811e-05
1468.5984938827555,1468.5984938827555,1.0000300282387407,9.31324803226548e-05
1468.6054384978886,1468.6054384978886,1.0001016095480342,9.314508942106082e-05
1468.6123831130215,1468.6123831130215,0.9999225161439185,9.310019046962685e-05
1468.619327728085,1468.619327728085,1.0000607006079967,9.31120562472001e-05
1468.6262723431016,1468.6262723431016,0.9999214067319849,9.314436759451119e-05
1468.6332169580487,1468.6332169580487,1.000110291107682,9.314201729672751e-05
1468.6401615729949,1468.6401615729949,1.0000107050616551,9.312556955655654e-05
1468.6471061878954,1468.6471061878954,1.000069522255341,9.315693689010486e-05
1468.6540508027488,1468.6540508027488,1.0001283524254738,9.313100430252065e-05
1468.6609954175794,1468.6609954175794,0.9997065081712385,9.31179745604427e-05
1468.66794003234,1468.66794003234,0.9998652707579861,9.312414359551764e-05
1468.6748846471005,1468.6748846471005,0.9999287488926727,9.313814721908199e-05
1468.6818292617677,1468.6818292617677,1.0000655400832141,9.312170182863651e-05
1468.6887738764353,1468.6887738764353,1.0000256780465153,9.31306976359815e-05
1468.6957184910564,1468.6957184910564,1.0000863414871948,9.313731857064981e-05
1468.70266310563,1468.70266310563,1.0000945297337678,9.31321514976255e-05
1468.7096077201581,1468.7096077201581,0.9999448686314741,9.313450104048098e-05
1468.7165523346855,1468.7165523346855,1.0001459772670822,9.312349716212462e-05
1468.7234969491435,1468.7234969491435,0.9999451058399078,9.312577456251279e-05
1468.7304415635085,1468.7304415635085,0.999953497998054,9.312558542304797e-05
1468.7373861778963,1468.7373861778963,0.9999955661442975,9.313570997214226e-05
1468.7443307922379,1468.7443307922379,0.9999427669377102,9.313448792627708e-05
1468.7512754065096,1468.7512754065096,1.0001173508938948,9.312955281360507e-05
1468.758220020781,1468.758220020781,0.999991750660705,9.313594684482014e-05
1468.765164634983,1468.765164634983,1.0000050317441733,9.313026197632241e-05
1468.7721092491615,1468.7721092491615,0.9998210316592511,9.312187315324051e-05
1468.779053863293,1468.779053863293,0.9998358978494984,9.312371289020877e-05
1468.7859984773552,1468.7859984773552,1.0000723588762228,9.314369953847118e-05
1468.7929430914405,1468.7929430914405,1.0000259269987182,9.313873307967037e-05
1468.7998877054329,1468.7998877054329,1.0001584479652457,9.313854161090824e-05
1468.806832319378,1468.806832319378,1.000159103576522,9.315951873384605e-05
1468.813776933347,1468.813776933347,0.9999698529886615,9.315090096340886e-05
1468.8207215472464,1468.8207215472464,0.9999210841252927,9.313986289064047e-05
1468.827666161029,1468.827666161029,1.000083016410269,9.312323887824192e-05
1468.8346107748582,1468.8346107748582,1.000013543062218,9.31223259863231e-05
1468.841555388617,1468.841555388617,0.9998013595304979,9.313382403203563e-05
1468.84850000233,1468.84850000233,1.0001019775104705,9.31268064519823e-05
1468.8554446160201,1468.8554446160201,1.0000820701984199,9.313891144069199e-05
1468.862389229663,1468.862389229663,0.99985318924831,9.31460735820011e-05
1468.869333843236,1468.869333843236,1.0000027785276582,9.314249578111507e-05
1468.876278456832,1468.876278456832,0.9999132205783029,9.314684796287408e-05
1468.8832230703356,1468.8832230703356,1.0000989742806485,9.315261483426284e-05
1468.890167683839,1468.890167683839,1.0000027059424434,9.314916814575678e-05
1468.8971122972494,1468.8971122972494,0.9998644284023055,9.31281611562701e-05
1468.9040569106357,1468.9040569106357,0.9999860279090855,9.314344383899502e-05
1468.9110015240224,1468.9110015240224,1.0000980879011387,9.315465086923418e-05
1468.9179461373162,1468.9179461373162,0.9999755857814284,9.313981051999418e-05
1468.92489075061,1468.92489075061,1.0000241747897873,9.31328385726571e-05
1468.9318353638107,1468.9318353638107,1.0002722430271382,9.31331864812132e-05
1468.9387799770116,1468.9387799770116,0.9999317678224576,9.31294623367884e-05
1468.9457245901651,1468.9457245901651,0.9998117291918357,9.311508512249811e-05
1468.9526692032728,1468.9526692032728,1.0000323512010056,9.312746364011113e-05
1468.960724954437,1468.960724954437,0.9999471696034746,9.313266989719665e-05
1468.96794735196,1468.96794735196,0.9999637744374372,9.31352344640209e-05
1468.9748919649508,1468.9748919649508,1.0000264042559055,9.314260040724234e-05
1468.981836577872,1468.981836577872,1.0000757557579214,9.314114183077337e-05
1468.9887811907702,1468.9887811907702,1.0001071421988628,9.314643818205384e-05
1468.995725803645,1468.995725803645,1.0000332350038703,9.31256518968884e-05
1469.002670416473,1469.002670416473,0.9999196775723382,9.310968238281062e-05
1469.0096150292077,1469.0096150292077,1.0000401731840871,9.315272253607617e-05
1469.0165596420125,1469.0165596420125,0.9999145983019437,9.312233665272927e-05
1469.023504254631,1469.023504254631,0.9999370675895646,9.314126123818332e-05
1469.0304488673194,1469.0304488673194,1.000101545844632,9.313131657215049e-05
1469.0373934799145,1469.0373934799145,0.9998596497847902,9.312963109308202e-05
1469.044338092463,1469.044338092463,1.000064936112234,9.313700506251977e-05
1469.0512827050118,1469.0512827050118,1.000172973323345,9.31443262716448e-05
1469.0582273174903,1469.0582273174903,0.9999989984765338,9.312294863554105e-05
1469.065171929923,1469.065171929923,0.9999818439409098,9.314418594030531e-05
1469.072116542332,1469.072116542332,1.0000638841814495,9.313096452792984e-05
1469.0790611547177,1469.0790611547177,0.9999056715958478,9.31423566954819e-05
1469.0860057670334,1469.0860057670334,1.000018309728167,9.313830308550902e-05
1469.0929503793025,1469.0929503793025,0.9999766475817339,9.313676891846264e-05
1469.0998949915252,1469.0998949915252,1.0000270346854951,9.313162467702129e-05
1469.1068396037713,1469.1068396037713,0.999961926480427,9.311277607232688e-05
1469.1137842159008,1469.1137842159008,1.0000313739955717,9.313706588394655e-05
1469.1207288280305,1469.1207288280305,1.0000783400432625,9.312998724736416e-05
1469.1276734400901,1469.1276734400901,1.0000951593239211,9.314500777849076e-05
1469.1346180521266,1469.1346180521266,0.999990523721122,9.31298122062519e-05
1469.1415626641167,1469.1415626641167,0.9999645489453457,9.312176693272718e-05
1469.148507276083,1469.148507276083,0.9999066163519629,9.313709746475752e-05
1469.1554518879798,1469.1554518879798,0.9999818210690691,9.314816926986399e-05
1469.162396499853,1469.162396499853,0.999929131246477,9.31581236382298e-05
1469.1693411116798,1469.1693411116798,1.0001197218194573,9.313354386804739e-05
1469.1762857234605,1469.1762857234605,1.000174456552855,9.314581573853202e-05
1469.183230335194,1469.183230335194,1.0000079867117384,9.31443019710868e-05
1469.1901749469043,1469.1901749469043,1.0000173687147087,9.312583380241939e-05
1469.1971195585684,1469.1971195585684,0.999938428259035,9.311840076312603e-05
1469.204064170209,1469.204064170209,0.9999992729751824,9.315171305430323e-05
1469.2110087817568,1469.2110087817568,1.000028133186189,9.31461758050149e-05
1469.2179533933042,1469.2179533933042,0.9997589850313379,9.313849697641484e-05
1469.2248980048048,1469.2248980048048,1.000240702728972,9.316571404086679e-05
1469.2318426162592,1469.2318426162592,1.0001137484920575,9.313545999506993e-05
1469.238787227667,1469.238787227667,0.9999613645709406,9.314677840868348e-05
1469.2457318390284,1469.2457318390284,0.9999412659658604,9.314960112026709e-05
1469.2526764503662,1469.2526764503662,0.9998822349324866,9.31415204769343e-05
1469.2596210616807,1469.2596210616807,1.0000633963143968,9.314930015019838e-05
1469.2665656729255,1469.2665656729255,1.0000198357081032,9.313626404846396e-05
1469.2735102841239,1469.2735102841239,1.0000557922404858,9.313035731383093e-05
1469.280454895299,1469.280454895299,1.0000380770037482,9.313658605719688e-05
1469.2873995064042,1469.2873995064042,1.0000766078860515,9.314328661555713e-05
1469.2943441174857,1469.2943441174857,0.9998989017399609,9.313480469679324e-05
1469.3012887284974,1469.3012887284974,1.0000605386017687,9.313247240234053e-05
1469.3082333395796,1469.3082333395796,1.000024521709809,9.312512818585218e-05
1469.3151779504983,1469.3151779504983,0.9999072046410472,9.315595722744944e-05
1469.3221225613943,1469.3221225613943,0.9997540043181739,9.313518847595421e-05
1469.3290671722662,1469.3290671722662,0.9999787922881314,9.314284800812483e-05
1469.336011783115,1469.336011783115,1.0000830906096658,9.315382738615661e-05
1469.3429563938946,1469.3429563938946,1.0000651980394626,9.315878337495939e-05
1469.3499010046503,1469.3499010046503,1.0000351069275422,9.314774548936559e-05
1469.3568456153828,1469.3568456153828,1.0001736849133038,9.31583278082824e-05
1469.3637902260225,1469.3637902260225,1.0000870320357118,9.315198265734097e-05
1469.3707348366381,1469.3707348366381,0.9998981773143871,9.31465380530788e-05
1469.3776794472312,1469.3776794472312,0.9998605579923611,9.313297709433971e-05
1469.3846240577777,1469.3846240577777,0.9998522360598319,9.312085622767385e-05
1469.3915686682774,1469.3915686682774,1.000087971897575,9.315951395887682e-05
1469.3985132787543,1469.3985132787543,1.0000448330554135,9.314769180973733e-05
1469.4054578891369,1469.4054578891369,1.0000434508505893,9.313139733048889e-05
1469.4124024995203,1469.4124024995203,0.9999757655960625,9.315104129166123e-05
1469.4193471098804,1469.4193471098804,1.000114891673809,9.31480762278523e-05
1469.4262917201472,1469.4262917201472,1.0000308148524981,9.313952612096109e-05
1469.4332363303915,1469.4332363303915,1.0000059479886096,9.314587882091146e-05
1469.4401809406345,1469.4401809406345,0.9997894715380206,9.312694152515872e-05
1469.447125550785,1469.447125550785,0.9999360577702167,9.314768418434313e-05
1469.4540701609126,1469.4540701609126,1.0001268221080397,9.315001589364968e-05
1469.4610147709932,1469.4610147709932,0.9999694231784713,9.314782630819473e-05
1469.4679593810274,1469.4679593810274,0.9999944553703802,9.314631950393903e-05
1469.4749039910382,1469.4749039910382,1.0001573835845197,9.315380311334282e-05
1469.4818486009785,1469.4818486009785,0.9998879065813636,9.313669057672379e-05
1469.4887932108966,1469.4887932108966,1.0000829476247055,9.315946529521332e-05
1469.4957378207444,1469.4957378207444,1.0002773895047252,9.318036323083427e-05
1469.502682430639,1469.502682430639,0.9998957037517675,9.314697049764559e-05
1469.5096270403706,1469.5096270403706,1.0000217328646837,9.316226774603975e-05
1469.516571650148,1469.516571650148,1.0000008701602785,9.315302881863766e-05
1469.5235162598563,1469.5235162598563,0.9995787058741545,9.312829520997996e-05
1469.530460869518,1469.530460869518,1.0000123610135954,9.314434038195162e-05
1469.5374054791332,1469.5374054791332,1.0002891642085778,9.316968631834172e-05
1469.5443500887247,1469.5443500887247,1.0000534139281947,9.313524888370724e-05
1469.551294698246,1469.551294698246,0.9999626094065158,9.313335653509213e-05
1469.558239307768,1469.558239307768,1.0000476822074413,9.313932603120915e-05
1469.565183917197,1469.565183917197,0.9999664205816583,9.314386759016793e-05
1469.5721285266259,1469.5721285266259,1.0000364405729736,9.314107473476006e-05
1469.5790731359848,1469.5790731359848,1.0001432497939653,9.316050794987489e-05
1469.5860177453437,1469.5860177453437,0.999939514931673,9.315763026925666e-05
1469.5929623545858,1469.5929623545858,1.0000129709293302,9.316090064545723e-05
1469.599906963805,1469.599906963805,0.9998640003217847,9.315251286199338e-05
1469.6068515730244,1469.6068515730244,0.9999269573967899,9.315499136173407e-05
1469.6137961822435,1469.6137961822435,0.9998810118275708,9.314917923865469e-05
1469.6207407913464,1469.6207407913464,1.0002775356497342,9.316220494845694e-05
1469.6276854004022,1469.6276854004022,1.0000928520095802,9.315644166692089e-05
1469.6346300094588,1469.6346300094588,0.999989401580879,9.315530284605505e-05
1469.6415746184452,1469.6415746184452,1.0001092273852463,9.315478521691e-05
1469.648519227385,1469.648519227385,0.9999859085152873,9.313763954237503e-05
1469.6554638363018,1469.6554638363018,1.0001000564056888,9.315532846225263e-05
1469.6624084451946,1469.6624084451946,1.0000081303009325,9.314516970714251e-05
1469.6693530539942,1469.6693530539942,0.999938011829631,9.315848600702868e-05
1469.6762976627947,1469.6762976627947,0.9998918559247573,9.315563463960882e-05
1469.683242271525,1469.683242271525,1.0000359516226092,9.315278707886852e-05
1469.690186880232,1469.690186880232,0.9999241139878606,9.313827985053345e-05
1469.6971314889158,1469.6971314889158,1.0001718313523165,9.314817665782035e-05
1469.7040760975058,1469.7040760975058,1.000085431775685,9.31532885756499e-05
1469.7110207060734,1469.7110207060734,1.0001033483960988,9.314785201130459e-05
1469.717965314594,1469.717965314594,0.9999803794876254,9.315919963819837e-05
1469.724909923068,1469.724909923068,0.9998811324357041,9.316251937888648e-05
1469.731854531519,1469.731854531519,1.0001013325708195,9.317081646799571e-05
1469.7387991399467,1469.7387991399467,1.0000639749381972,9.31652045967349e-05
1469.745743748304,1469.745743748304,0.9999394340163785,9.31567900027348e-05
1469.7526883566156,1469.7526883566156,0.999891059578105,9.314636511630063e-05
1469.7596329649032,1469.7596329649032,1.0001081778457217,9.316444946887113e-05
1469.7665775731216,1469.7665775731216,1.0000198835175302,9.315442808144998e-05
1469.7735221813161,1469.7735221813161,0.9998920215065045,9.315897800903182e-05
1469.7804667894638,1469.7804667894638,0.9999373094160436,9.316417974118795e-05
1469.7874113975893,1469.7874113975893,1.0001211859711652,9.316908504592063e-05
1469.794356005644,1469.794356005644,1.000052773216081,9.315740117660068e-05
1469.801300613676,1469.801300613676,0.9999914527638186,9.316365160214303e-05
1469.8082452216381,1469.8082452216381,0.99993442270435,9.315472157735578e-05
1469.8151898295762,1469.8151898295762,0.9999466163630398,9.314794678780077e-05
1469.8221344374683,1469.8221344374683,1.000016784735437,9.316332562785496e-05
1469.829079045337,1469.829079045337,1.0001260792247835,9.316470670502679e-05
1469.836023653136,1469.836023653136,0.9999638429158315,9.315980455308348e-05
1469.8429682608887,1469.8429682608887,1.0000113368803731,9.316152535592833e-05
1469.849912868641,1469.849912868641,0.9999930733516255,9.316039416642207e-05
1469.8568574763235,1469.8568574763235,0.9999702551495547,9.3168909223923e-05
1469.863802083959,1469.863802083959,0.9999418706340828,9.316138357283158e-05
1469.8707466915484,1469.8707466915484,1.000000417567381,9.316472295284142e-05
1469.8776912991148,1469.8776912991148,1.0000463629226894,9.317344820624364e-05
1469.8846359066342,1469.8846359066342,1.000079301203391,9.317335054246633e-05
1469.8915805141073,1469.8915805141073,0.9998305000647122,9.315920571699649e-05
1469.8985251215336,1469.8985251215336,0.9999849549623567,9.31674558741624e-05
1469.9054697289134,1469.9054697289134,0.9998942239677486,9.31623358584804e-05
1469.912414336247,1469.912414336247,1.0003560867906713,9.318641223289536e-05
1469.9193589435565,1469.9193589435565,1.000150861597266,9.317334773426048e-05
1469.9263035507968,1469.9263035507968,0.9999415749113109,9.316490325105057e-05
1469.9332481580373,1469.9332481580373,0.9998956781676137,9.315769102838394e-05
1469.940192765207,1469.940192765207,1.0000337008415867,9.316970363655189e-05
1469.9471373723306,1469.9471373723306,1.0000253087114377,9.316485290950705e-05
1469.9540819794315,1469.9540819794315,0.9999680162332927,9.315867519741381e-05
1469.9610265864621,1469.9610265864621,1.0001321208590748,9.316444639461831e-05
1469.9679711934696,1469.9679711934696,0.9997526358595723,9.315746417183757e-05
1469.9749158004065,1469.9749158004065,0.9999832758005374,9.317065063600095e-05
1469.9818604072973,1469.9818604072973,1.000148675840678,9.317043094105834e-05
1469.9888050141883,1469.9888050141883,0.9999679427111307,9.316553313917835e-05
1469.995749621056,1469.995749621056,1.0000884956352014,9.317446702602438e-05
1470.0026942278305,1470.0026942278305,0.9999822719753853,9.317490401182109e-05
1470.009638834582,1470.009638834582,1.0000153432218308,9.316472824181508e-05
1470.0165834412862,1470.0165834412862,1.0000642594472926,9.317576321053007e-05
1470.0235280479442,1470.0235280479442,0.9999155916812164,9.316862535397e-05
1470.030472654579,1470.030472654579,0.9998812546392187,9.317773564499142e-05
1470.0374172611441,1470.0374172611441,1.0000038164469922,9.317362986404334e-05
1470.0443618676857,1470.0443618676857,1.0000941170063793,9.317895014548214e-05
1470.0513064741576,1470.0513064741576,0.9999662239708336,9.31748753604897e-05
