time,time,flux,flux_err
1325.2986105696355,1325.2986105696355,0.9996873697843394,0.0005927709166744232
1325.306943991644,1325.306943991644,1.000717078531779,0.0005934442824861186
1325.3152774139053,1325.3152774139053,1.0003387659275358,0.0005940547903921238
1325.3236108364376,1325.3236108364376,0.9995973642277928,0.0005946236161286687
1325.331249807327,1325.331249807327,0.9996959322051394,0.0005433627179192927
1325.3381943264835,1325.3381943264835,1.000678890571209,0.0005441227638231462
1325.3451388458154,1325.3451388458154,1.0005095178392986,0.0005447920479755254
1325.3520833653445,1325.3520833653445,0.9994015475296699,0.0005452721229762085
1325.3590278850252,1325.3590278850252,1.0006342246080664,0.0005459762614864799
1325.3659724048575,1325.3659724048575,1.000280762614718,0.0005466628669993713
1325.3729169248868,1325.3729169248868,1.0002828880817591,0.0005473240984959341
1325.3798614450684,1325.3798614450684,0.9987892021665818,0.0005476933826395702
1325.3868059654128,1325.3868059654128,0.9998145446169655,0.000548582880315997
1325.3937504859198,1325.3937504859198,1.0006660850527185,0.000549324584276635
1325.40069500659,1325.40069500659,0.9995132643480769,0.0005498223268458494
1325.4076395274114,1325.4076395274114,0.9995684695052234,0.0005504155245844034
1325.4145840484077,1325.4145840484077,1.0002893652108107,0.0005511840213216486
1325.4215285695202,1325.4215285695202,0.9998771709743888,0.0005516689815664555
1325.4284730908191,1325.4284730908191,1.0007453836776077,0.0005525525494167869
1325.4354176122345,1325.4354176122345,1.0005812168066954,0.0005530810397824184
1325.4423621338126,1325.4423621338126,1.000179316839602,0.0005535975275470351
1325.4493066555303,1325.4493066555303,0.9992392662429571,0.0005541986931321314
1325.4562511773997,1325.4562511773997,1.0001789693053664,0.0005549210543281432
1325.4631956994085,1325.4631956994085,0.9990067780574131,0.0005556075515767143
1325.4701402215574,1325.4701402215574,1.0010895490600678,0.0005567084369120557
1325.4770847438574,1325.4770847438574,1.0000144437956178,0.0005573666122682535
1325.4840292662855,1325.4840292662855,1.000087009469144,0.0005584979586263685
1325.4909737888418,1325.4909737888418,0.9997758291871806,0.0005593036237085096
1325.4979183115374,1325.4979183115374,0.9996379063457675,0.0005604465334487482
1325.5048628343616,1325.5048628343616,0.9999292455489485,0.0005617521678504381
1325.511807357325,1325.511807357325,0.9997773975820156,0.0005627743085005264
1325.518751880405,1325.518751880405,0.9996025980930059,0.0005635692034659442
1325.5256964036362,1325.5256964036362,1.0003097294588863,0.0005649201314431455
1325.5326409269605,1325.5326409269605,1.0005734608598176,0.0005660082144649034
1325.5395854504247,1325.5395854504247,1.0003834146553452,0.0005670381458597096
1325.546529974029,1325.546529974029,0.9999003238537657,0.0005679137795776165
1325.5534744977256,1325.5534744977256,1.0003396272892782,0.0005692324425367135
1325.5604190215508,1325.5604190215508,0.9997845847872588,0.0005701998228122294
1325.5673635454925,1325.5673635454925,0.9990232353764595,0.0005710564347395973
1325.5743080695502,1325.5743080695502,0.9999146667964863,0.0005723213981558714
1325.5812525937363,1325.5812525937363,1.0002556644974536,0.0005734476530901277
1325.5881971180147,1325.5881971180147,0.9997020523166391,0.0005743620044539506
1325.595141642411,1325.595141642411,1.000820532372274,0.0005757487733349399
1325.6020861669458,1325.6020861669458,1.0002181451439662,0.0005765013323599886
1325.6090306915507,1325.6090306915507,0.999755255635787,0.000577365477636399
1325.6159752162607,1325.6159752162607,1.000164019162332,0.0005782363801133088
1325.6229197410987,1325.6229197410987,1.0001302206619345,0.0005792895168072954
1325.6298642660413,1325.6298642660413,1.0002497190635113,0.0005799409464080608
1325.6368087910887,1325.6368087910887,0.998863922364681,0.0005803737888175047
1325.6437533162407,1325.6437533162407,0.9994019764725002,0.0005810663779899648
1325.650697841463,1325.650697841463,1.0008526946564298,0.0005820331869250725
1325.6576423668128,1325.6576423668128,1.0005026156330468,0.0005827234434608242
1325.6645868922562,1325.6645868922562,0.9993102983488574,0.0005833544921203752
1325.6715314177923,1325.6715314177923,1.0001461632367983,0.0005843673004988617
1325.678475943422,1325.678475943422,0.9997275124196097,0.000585200345034115
1325.685420469145,1325.685420469145,1.0007515104106823,0.0005863905521073366
1325.692364994972,1325.692364994972,1.0001904568132418,0.0005873144091762341
1325.6993095208932,1325.6993095208932,1.000043351314386,0.0005885741868034801
1325.7062540469065,1325.7062540469065,0.9993090968944613,0.00058969285500131
1325.7131985729782,1325.7131985729782,0.9996982706705273,0.0005912600612051417
1325.7201430991663,1325.7201430991663,0.9994884154342184,0.000592792953689645
1325.7270876254247,1325.7270876254247,1.0013480263207688,0.0005945471536009638
1325.7340321517872,1325.7340321517872,1.0000923709038,0.0005959627629366341
1325.7409766782316,1325.7409766782316,0.9997896404734169,0.0005975844144695136
1325.7479212047576,1325.7479212047576,0.9999405768255281,0.0005994203091001692
1325.7548657313769,1325.7548657313769,1.0004809936530124,0.0006011927305150345
1325.7618102580423,1325.7618102580423,1.0000547714593435,0.0006029515493951273
1325.7687547848127,1325.7687547848127,0.999577420711366,0.0006046092599829832
1325.7756993116527,1325.7756993116527,0.998963970803383,0.0006063280528579498
1325.7826438385862,1325.7826438385862,1.0006398754330799,0.0006082679172893912
1325.7895883655897,1325.7895883655897,0.9997799178059621,0.0006098005084391661
1325.7965328926741,1325.7965328926741,1.0008202060249611,0.0006117584236811878
1325.8034774198056,1325.8034774198056,0.9996339332499227,0.0006131069260616217
1325.8104219470529,1325.8104219470529,0.9998662971183896,0.0006146496639224126
1325.8173664743706,1325.8173664743706,1.000005711074919,0.0006160297970942928
1325.8243110017347,1325.8243110017347,0.9996323719234471,0.0006173938597000842
1325.8312555291918,1325.8312555291918,1.000751608112569,0.0006189839746016457
1325.8382000566958,1325.8382000566958,0.9997519279379429,0.0006199834449528914
1325.845144584281,1325.845144584281,1.000015249672717,0.0006208962909166177
1325.8520891119358,1325.8520891119358,0.999683593523035,0.0006218224947750922
1325.859033639661,1325.859033639661,0.9995367682610322,0.0006224765843311433
1325.865978167456,1325.865978167456,1.001529524894636,0.0006231264810304715
1325.8729226953087,1325.8729226953087,0.9984189140690463,0.0006227684282008149
1325.879867223232,1325.879867223232,1.001287255616343,0.0006231882125860503
1325.886811751213,1325.886811751213,1.000580868276602,0.0006232803723088475
1325.8937562792405,1325.8937562792405,0.9993169452481391,0.0006232681249042835
1325.9007008073845,1325.9007008073845,0.9997156518781422,0.0006236460355938313
1325.907645335552,1325.907645335552,0.9991860580907919,0.0006239397642509004
1325.9145898637773,1325.9145898637773,0.9994574514336367,0.0006243377925476258
1325.9215343920728,1325.9215343920728,1.0000395874036747,0.0006249014762015456
1325.9284789204266,1325.9284789204266,1.0008242946373707,0.0006253942218703149
1325.9354234488383,1325.9354234488383,1.0003913546968644,0.0006259440411083582
1325.9423679773197,1325.9423679773197,1.000667038790028,0.0006265776979912472
1325.9493125058368,1325.9493125058368,0.9994346692171133,0.0006267643804198694
1325.956257034423,1325.956257034423,1.000392116703777,0.0006275724811523447
1325.9643126876529,1325.9643126876529,1.0000392789587536,0.0006284940590689464
1325.9715349974904,1325.9715349974904,0.999412906693345,0.0006292092842771429
1325.9784795262512,1325.9784795262512,0.9990086278363698,0.0006300663953159052
1325.9854240550706,1325.9854240550706,0.9999749788114904,0.0006309829704257341
1325.9923685839244,1325.9923685839244,1.0002761486849734,0.000632148706712881
1325.9993131128372,1325.9993131128372,1.000289337635913,0.0006335983296925725
1326.0062576418077,1326.0062576418077,1.0009704014105805,0.0006351553937446885
1326.013202170825,1326.013202170825,0.9997672763691142,0.000636788897110917
1326.0201466999006,1326.0201466999006,0.9997453736847625,0.0006386067493005143
1326.0270912290107,1326.0270912290107,1.0005701210949884,0.0006404909735055798
1326.0340357581676,1326.0340357581676,0.9991061286409355,0.0006412842237472265
1326.040980287394,1326.040980287394,1.000116034613878,0.0006417426467070609
1326.0479248166444,1326.0479248166444,1.0001087347536521,0.0006424380819966167
1326.054869345952,1326.054869345952,0.9990220271701723,0.0006436385044036776
1326.0618138752957,1326.0618138752957,1.000893484201639,0.0006449050704529018
1326.0687584046968,1326.0687584046968,1.0005901495145442,0.0006460086433897875
1326.075702934133,1326.075702934133,0.9999291427990677,0.0006470882349768307
1326.0826474636394,1326.0826474636394,0.9999738790529124,0.0006479481252278912
1326.0895919931688,1326.0895919931688,1.0006105056595143,0.0006491198162858494
1326.0965365227216,1326.0965365227216,0.9993637277268241,0.0006497334882526332
1326.1034810523329,1326.1034810523329,1.0000387885756836,0.0006507298122504506
1326.1104255819896,1326.1104255819896,0.9994459379542165,0.0006515345417769634
1326.1173701116938,1326.1173701116938,1.000106038557527,0.0006524873202871883
1326.124314641421,1326.124314641421,0.9996658994352821,0.0006530916854304168
1326.1312591712187,1326.1312591712187,1.0001106364086438,0.0006539920297290337
1326.1382037010385,1326.1382037010385,0.9992905623124514,0.0006547832817594374
1326.1451482308712,1326.1451482308712,1.0009577943831895,0.0006555565628922904
1326.1520927607612,1326.1520927607612,1.0002536515355156,0.0006561568361332332
1326.159037290698,1326.159037290698,0.9996534006058644,0.0006566978436484326
1326.1659818206701,1326.1659818206701,1.0005596445068177,0.0006574453537504147
1326.1729263506763,1326.1729263506763,0.9996952599439226,0.0006578305752842019
1326.1798708807185,1326.1798708807185,0.9990931320126887,0.0006583918912303301
1326.186815410783,1326.186815410783,1.0008420911148375,0.0006591558699731798
1326.1937599409061,1326.1937599409061,1.0012607582751483,0.0006598808705769084
1326.2007044710645,1326.2007044710645,1.0005856701116254,0.0006603705926670359
1326.2076490012457,1326.2076490012457,0.9991649652135626,0.0006608868831821088
1326.214593531462,1326.214593531462,1.0001984649967337,0.0006616866724116115
1326.221538061725,1326.221538061725,0.9999609717825964,0.0006621524410039609
1326.2284825919992,1326.2284825919992,0.999954954854199,0.0006630067095716519
1326.23542712232,1326.23542712232,0.9993377539041657,0.0006635427555371643
1326.2423716526525,1326.2423716526525,1.0000287308677627,0.0006642664917481175
1326.2493161830557,1326.2493161830557,1.000095405271481,0.0006649491921104782
1326.256260713458,1326.256260713458,1.0004067897981734,0.0006658626058303689
1326.2632052439071,1326.2632052439071,0.9995234427382238,0.000666402618997037
1326.2701497743797,1326.2701497743797,1.000839102544727,0.0006670584805440359
1326.2770943048868,1326.2770943048868,0.9993414869449891,0.0006673720956846897
1326.284038835406,1326.284038835406,0.9989186720677774,0.0006680016916567764
1326.2909833659828,1326.2909833659828,1.0008116950249122,0.0006689033175156093
1326.2979278965718,1326.2979278965718,1.0009774512611158,0.0006697446727071412
1326.3048724271953,1326.3048724271953,0.9997253446994556,0.0006706186820909555
1326.3118169578424,1326.3118169578424,0.9989625779123502,0.0006714932067476345
1326.318761488536,1326.318761488536,1.0004394339947753,0.0006728027532518648
1326.3257060192295,1326.3257060192295,1.000013508598043,0.0006738236349780132
1326.3326505499465,1326.3326505499465,1.0005934174871833,0.0006751062163223251
1326.3395950807098,1326.3395950807098,0.9998411566326413,0.0006762091421701652
1326.3476507364194,1326.3476507364194,1.0000938539321211,0.0006781033069053497
1326.3562619546303,1326.3562619546303,0.999213588186312,0.0006798604521747239
1326.3632064854871,1326.3632064854871,1.0004505191759596,0.0006814420262271059
1326.3701510163435,1326.3701510163435,0.9994014097154966,0.0006827772310481475
1326.3770955472469,1326.3770955472469,1.0006125361973253,0.0006841385725451807
1326.3840400781614,1326.3840400781614,1.0004804080863603,0.0006855754424089105
1326.3909846090878,1326.3909846090878,1.0004310281200952,0.0006869034286773998
1326.3979291400726,1326.3979291400726,0.9996709432131174,0.0006881988726982414
1326.404873671057,1326.404873671057,0.9995352887926858,0.0006897021319045715
1326.411818202077,1326.411818202077,1.0000919684544312,0.0006910426377949974
1326.4187627331078,1326.4187627331078,0.9996549569418465,0.0006925021046032731
1326.4257072641624,1326.4257072641624,0.9992146687585093,0.0006937669603711159
1326.4326517952516,1326.4326517952516,1.0011051378783615,0.0006953760929090119
1326.439596326341,1326.439596326341,0.9997674855234611,0.0006965551345151172
1326.446540857477,1326.446540857477,0.9996990257667319,0.0006978078225662019
1326.453485388613,1326.453485388613,1.0007047907885689,0.0006992712465180873
1326.4604299197722,1326.4604299197722,0.9996330770547498,0.0007004678211585542
1326.4673744509662,1326.4673744509662,0.999902939559511,0.0007018712352280598
1326.4743189821718,1326.4743189821718,1.0005502214789328,0.000703114403031127
1326.4812635134015,1326.4812635134015,0.9999744305937901,0.0007042724277411306
1326.4882080446184,1326.4882080446184,0.9998003572354017,0.0007054042446549469
1326.4951525758945,1326.4951525758945,1.0000820441149016,0.0007066586210859949
1326.5020971071694,1326.5020971071694,0.9993241699389801,0.0007079313304574536
1326.5090416384924,1326.5090416384924,1.000553313975199,0.000709447460360442
1326.5159861698025,1326.5159861698025,1.0002277321877973,0.0007106254209277832
1326.5229307011482,1326.5229307011482,0.9999386951262828,0.000712298528145525
1326.5298752325054,1326.5298752325054,1.0001052462719384,0.0007137576146184843
1326.5368197638738,1326.5368197638738,1.0000134637807172,0.0007153663151582264
1326.543764295278,1326.543764295278,0.9996782787294883,0.0007171235664460698
1326.55070882667,1326.55070882667,1.0004667864837236,0.0007189895987977765
1326.5576533581086,1326.5576533581086,1.0000090351294655,0.0007197727919027602
1326.564597889547,1326.564597889547,1.0005312712705918,0.0007209576980233776
1326.5715424210089,1326.5715424210089,0.9993780421154442,0.000721441904029582
1326.5784869524828,1326.5784869524828,1.0010302063485477,0.0007229443187066412
1326.5854314839676,1326.5854314839676,1.0002786949790883,0.0007240362071008261
1326.5923760154765,1326.5923760154765,0.99981741468346,0.0007250619562791
1326.5993205470081,1326.5993205470081,0.9989736413300708,0.0007260583929634835
1326.6062650785282,1326.6062650785282,1.0000477503290892,0.0007273101023225161
1326.6132096100835,1326.6132096100835,0.9992330530238324,0.0007281081729456701
1326.6201541416497,1326.6201541416497,1.0000955095113795,0.0007290529899803155
1326.6270986732284,1326.6270986732284,0.9989820686808975,0.000729468055147159
1326.6340432048412,1326.6340432048412,0.9994800325277067,0.0007302059081145172
1326.640987736455,1326.640987736455,1.0009408132069237,0.0007308397588302272
1326.6479322680682,1326.6479322680682,0.9998636140350105,0.0007308892264100218
1326.6548767997047,1326.6548767997047,1.0010502849628111,0.0007312783679204682
1326.6618213313645,1326.6618213313645,1.001044043271449,0.0007312400371807372
1326.668765863024,1326.668765863024,1.000137222296225,0.0007311523472682242
1326.6757103947075,1326.6757103947075,0.9999435319165734,0.0007308730635296944
1326.682654926402,1326.682654926402,0.9998347112812314,0.0007306645820247689
1326.6909883644335,1326.6909883644335,0.998940886956116,0.0007300949744174698
1326.6979328961513,1326.6979328961513,0.9992617056834909,0.000729809995731242
1326.704877427881,1326.704877427881,0.9991632196743717,0.000729538698035196
1326.7126553034454,1326.7126553034454,1.0007147584797191,0.0007294977090789953
1326.7201553977472,1326.7201553977472,1.000195941546593,0.0007287843059394253
1326.7270999294997,1326.7270999294997,1.0013807712970397,0.0007287539123470162
1326.7340444612878,1326.7340444612878,1.000330666683962,0.0007284161192604715
1326.740988993076,1326.740988993076,0.999960927960028,0.0007281025101745735
1326.747933524875,1326.747933524875,0.9996808172489213,0.0007278771612091939
1326.7548780566863,1326.7548780566863,1.0000005690809923,0.0007277739742753201
1326.7618225885205,1326.7618225885205,0.9997932627792465,0.0007274938466855448
1326.7687671203319,1326.7687671203319,1.0000844932239314,0.0007275057291174958
1326.7757116521777,1326.7757116521777,0.9998726781766436,0.000727694458162745
1326.7826561840357,1326.7826561840357,1.0006969755372555,0.0007280007278479012
1326.7896007158936,1326.7896007158936,0.9999961796215182,0.0007281517051202992
1326.7965452477742,1326.7965452477742,1.0002652627886057,0.0007288333475591561
1326.8034897796674,1326.8034897796674,0.9991479253671451,0.0007292860267009152
1326.8104343115597,1326.8104343115597,1.000966038242884,0.0007302640823751585
1326.8173788434524,1326.8173788434524,1.0004263060532896,0.0007307660692611041
1326.824323375368,1326.824323375368,0.999396427101502,0.000731132492021077
1326.8312679072842,1326.8312679072842,0.9998559256058535,0.000731631720352947
1326.8382124392117,1326.8382124392117,1.0010042298521413,0.0007321609076209779
1326.845156971151,1326.845156971151,0.9989926419081196,0.0007321218813080588
1326.8521015031017,1326.8521015031017,1.0013337379663274,0.0007324483574916649
1326.8590460350526,1326.8590460350526,0.9998546608975122,0.0007322325436175245
1326.8659905670154,1326.8659905670154,0.9989698424691189,0.0007316095839323772
1326.8729350989895,1326.8729350989895,1.0001586273805934,0.0007308588322294876
1326.8798796309634,1326.8798796309634,0.9990352667550477,0.000729797886456002
1326.8868241629493,1326.8868241629493,0.999749347902867,0.0007288419212429956
1326.8937686949348,1326.8937686949348,1.0007733133545496,0.0007275975216833507
1326.9007132269446,1326.9007132269446,0.9997979460507196,0.0007259751576584786
1326.9076577589417,1326.9076577589417,1.0000526721687593,0.0007242826648593536
1326.914602290974,1326.914602290974,0.9994919442019088,0.0007223681520515699
1326.9215468229947,1326.9215468229947,1.000704624204156,0.0007207418831378664
1326.9284913550155,1326.9284913550155,0.9996477004407456,0.0007186033472501402
1326.9354358870594,1326.9354358870594,1.0000582993300662,0.0007168322566249352
1326.9423804190915,1326.9423804190915,0.9996147400669111,0.0007149856643748995
1326.9493249511474,1326.9493249511474,0.9991112837740811,0.0007134177778046617
1326.9562694831911,1326.9562694831911,1.0006999290670504,0.0007120081246367486
1326.9632140152705,1326.9632140152705,1.0011391896635125,0.0007105645090190187
1326.970158547326,1326.970158547326,0.9997507033259223,0.0007091723457289933
1326.9771030794047,1326.9771030794047,0.9995215459001983,0.0007080586484737807
1326.984047611484,1326.984047611484,0.9998369180776578,0.0007069821846701847
1326.9909921435744,1326.9909921435744,0.9997841911378138,0.0007062637153529632
1326.9979366756531,1326.9979366756531,0.9994935392848958,0.0007056389123600894
1327.0048812077555,1327.0048812077555,1.0005782814794046,0.0007052573707532029
1327.0118257398576,1327.0118257398576,1.0004360919881652,0.0007050988008626566
1327.0187702719716,1327.0187702719716,0.9998310881931591,0.0007051414523594896
1327.025714804062,1327.025714804062,1.0003522610148052,0.0007052992664938035
1327.0326593361992,1327.0326593361992,1.0004426302732523,0.0007055328208477277
1327.0396038683011,1327.0396038683011,0.9994097130276607,0.0007055425631545692
1327.0465484004503,1327.0465484004503,0.9994027883433751,0.0007059405260516555
1327.0534929325638,1327.0534929325638,0.9999429005504259,0.0007066613861474409
1327.0615485898336,1327.0615485898336,0.9991535638397954,0.0007071301779408997
1327.068770903268,1327.068770903268,1.0002911341640799,0.0007078947031151649
1327.0757154354167,1327.0757154354167,1.0009503147317136,0.000708550205410488
