time,time,flux,flux_err
1468.2792108867993,1468.2792108867993,1.0030115015018484,0.0016082653242131873
1468.2861554469844,1468.2861554469844,1.0026068755977087,0.0016080061789885323
1468.2931000071694,1468.2931000071694,1.0001573765665497,0.001608756342108319
1468.3000445671682,1468.3000445671682,0.9999806616598645,0.0016075033928791619
1468.306989127167,1468.306989127167,1.000239768959751,0.0016095267814762461
1468.3139336870727,1468.3139336870727,1.0000443290558079,0.0016080573624686688
1468.3208782467916,1468.3208782467916,1.0001680439220848,0.0016093416762764517
1468.3278228065112,1468.3278228065112,1.0010410593369548,0.0016090176775825748
1468.3347673660442,1468.3347673660442,1.001243703013125,0.0016097456850713496
1468.3417119253913,1468.3417119253913,0.999226117630986,0.0016077760808485386
1468.348656484831,1468.348656484831,1.0014087162998155,0.0016087314961042286
1468.355601044178,1468.355601044178,0.9995401131052372,0.0016081730863264782
1468.3625456032455,1468.3625456032455,0.9996179595453469,0.0016084567695016476
1468.3694901620336,1468.3694901620336,1.0000368847569623,0.0016079265956440206
1468.376434721101,1468.376434721101,0.9999915094103635,0.0016083961727234141
1468.3911571855895,1468.3911571855895,1.0009411450510068,0.001605922500477515
1468.4000462206636,1468.4000462206636,1.0001813074042998,0.0016050651012888251
1468.4069907789865,1468.4069907789865,0.9990903614027241,0.0016055263652790656
1468.4139353374017,1468.4139353374017,0.9991135191008464,0.0016055246167028304
1468.4208798957238,1468.4208798957238,0.9993037718124077,0.0016056462456055993
1468.4278244537668,1468.4278244537668,0.9994144843650006,0.0016045435346555444
1468.43476901181,1468.43476901181,1.0023076989350206,0.0016049879918909869
1468.4417135697597,1468.4417135697597,0.9989652587308978,0.0016055272112694998
1468.4486581276165,1468.4486581276165,0.9991303170110284,0.001603767195125672
1468.45560268538,1468.45560268538,0.9988376068228325,0.0016046996055969413
1468.4625472429573,1468.4625472429573,1.0010194111389707,0.0016047239019602957
1468.4694918005348,1468.4694918005348,0.9996258363614381,0.0016033323194607492
1468.476436357926,1468.476436357926,0.9982654296739831,0.0016031145497879076
1468.4833809152233,1468.4833809152233,1.0010912367254106,0.0016038208865832959
1468.4903254723354,1468.4903254723354,1.0001105092682914,0.0016027445815670698
1468.4972700296337,1468.4972700296337,1.0000288620973412,0.0016025244412493727
1468.5042145864659,1468.5042145864659,1.001033363087207,0.0016020181171555222
1468.511159143298,1468.511159143298,1.0019861122381948,0.0016022732382327924
1468.5181037001298,1468.5181037001298,0.998629170726462,0.0016025874668562094
1468.5250482569622,1468.5250482569622,0.9992068446275091,0.0016031709346015963
1468.5319928134222,1468.5319928134222,1.0014468592567094,0.0016015314262201636
1468.538937369975,1468.538937369975,0.9992845953736722,0.001602108293996919
1468.5458819263415,1468.5458819263415,0.999484878660752,0.0016014707987005166
1468.5528264826148,1468.5528264826148,1.0000766096187814,0.0016022389991389133
1468.5597710387026,1468.5597710387026,0.9980133398962849,0.001601482050461209
1468.5667155948831,1468.5667155948831,1.0015140647739371,0.001601886979436197
1468.5736601507838,1468.5736601507838,1.0022851169788383,0.0016019600516474497
1468.5806047065912,1468.5806047065912,0.9995483059687109,0.001600594916052967
1468.587549262306,1468.587549262306,0.9979553490751017,0.0016002674127286517
1468.5944938179275,1468.5944938179275,0.9989780064031455,0.0016011056262037714
1468.6014383735494,1468.6014383735494,0.9991237042454225,0.0016008711970151603
1468.6083829289846,1468.6083829289846,1.0011468716051404,0.0015996659164791275
1468.6153274843266,1468.6153274843266,1.001071730063313,0.0015990617075297843
1468.6222720395758,1468.6222720395758,1.002645114494107,0.0015984526360993446
1468.6292165947318,1468.6292165947318,0.9990607962773334,0.001598427680126624
1468.6361611497016,1468.6361611497016,0.99992108319479,0.0015986059901554283
1468.6431057045775,1468.6431057045775,0.9998743203056663,0.00159832573151647
1468.6500502594542,1468.6500502594542,1.0010089788914904,0.0015975799696214057
1468.6569948141444,1468.6569948141444,0.999520588433908,0.0015958499809519816
1468.663939368928,1468.663939368928,0.9997970802796962,0.0015969980986725231
1468.670883923432,1468.670883923432,1.0011241627250544,0.0015973012986332407
1468.6778284776562,1468.6778284776562,0.9996251294519738,0.0015979392321823706
1468.684773031974,1468.684773031974,1.0003667614026213,0.001597746427321641
1468.6917175861986,1468.6917175861986,0.9995961081752451,0.0015966256423402343
1468.698662140237,1468.698662140237,0.9993945387290287,0.0015964803582912447
1468.705606694275,1468.705606694275,1.0014194096729379,0.001597558807297968
1468.7125512481273,1468.7125512481273,1.0005591416658277,0.0015964491841172442
1468.719495801979,1468.719495801979,0.9975812467359508,0.0015965133391114851
1468.7264403555519,1468.7264403555519,0.9981698687005622,0.0015960192275369244
1468.7333849092179,1468.7333849092179,1.0006872307846548,0.0015966574163705754
1468.740329462697,1468.740329462697,1.0012971978755845,0.0015957331734171513
1468.7472740160836,1468.7472740160836,1.0010605676488875,0.0015955928266009078
1468.754218569284,1468.754218569284,0.9999006978913816,0.0015953590970804537
1468.7611631224838,1468.7611631224838,0.9993788098639484,0.0015944617955244676
1468.768107675498,1468.768107675498,1.0018036936905783,0.0015947386895356155
1468.7750522285119,1468.7750522285119,0.9977589529567448,0.0015944038793052127
1468.7819967813389,1468.7819967813389,0.9993885871012844,0.001594483239145054
1468.7889413340736,1468.7889413340736,1.001307684375508,0.00159366627625114
1468.795885886808,1468.795885886808,1.001471883964315,0.0015956886151442535
1468.8028304393565,1468.8028304393565,0.9989396276250652,0.0015938484018456819
1468.8097749916246,1468.8097749916246,0.9988338196194372,0.0015939030041253136
1468.816719544266,1468.816719544266,0.9995024196940498,0.0015934671695697056
1468.8236640964421,1468.8236640964421,0.9989783766947345,0.0015938233161126615
1468.8306086486177,1468.8306086486177,1.0023166547552216,0.0015934659703695185
1468.8375532004209,1468.8375532004209,0.9982223443106075,0.001592525447430829
1468.8444977525028,1468.8444977525028,1.0008418146859073,0.0015939305925375253
1468.851442304213,1468.851442304213,1.001127828359263,0.0015933379554627807
1468.8583868560168,1468.8583868560168,1.0001366928472948,0.0015924873097536356
1468.8653314075405,1468.8653314075405,1.0013612660591793,0.0015928801289495028
1468.8722759591572,1468.8722759591572,0.998789864777373,0.001591628359674994
1468.8792205105876,1468.8792205105876,0.9997154327021459,0.0015918878439668944
1468.8861650618321,1468.8861650618321,0.9976848608426401,0.0015921901868051961
1468.8931096130766,1468.8931096130766,1.000854931098329,0.0015927594313853723
1468.9000541642279,1468.9000541642279,1.002861870234585,0.0015924136161049936
1468.9069987151925,1468.9069987151925,0.9987875230686164,0.00159336258846802
1468.913943266064,1468.913943266064,0.9997602922646728,0.0015921722312416758
1468.920887816936,1468.920887816936,0.9979869974267824,0.0015918615385920314
1468.9278323676217,1468.9278323676217,1.002627886345498,0.0015924028940838132
1468.9347769182143,1468.9347769182143,0.9994318598346641,0.0015918850293468625
1468.9417214687137,1468.9417214687137,0.9996336775556687,0.0015921325790515257
1468.9486660191194,1468.9486660191194,0.9992075592262857,0.0015921826292702352
1468.9556105693396,1468.9556105693396,1.0016009796073264,0.001592615361046517
1468.9636662475345,1468.9636662475345,0.9984198856945712,0.0015925250552941308
1468.9708885797486,1468.9708885797486,1.0005651273155722,0.0015928479583720099
1468.9778331295959,1468.9778331295959,1.0013021654699024,0.0015933590328767555
1468.9847776794431,1468.9847776794431,1.0011462776738431,0.0015927889706126685
1468.9917222292909,1468.9917222292909,0.9998237299549484,0.001593525781110865
1468.998666778859,1468.998666778859,0.9980861401430838,0.0015937242883381788
1469.0056113284268,1469.0056113284268,0.9994781865294546,0.0015926915492641195
1469.0125558779014,1469.0125558779014,1.0014873697486686,0.0015938964238210787
1469.01950042719,1469.01950042719,0.99802449131647,0.0015931542497479843
1469.0264449764786,1469.0264449764786,1.0020746468390604,0.0015919765680945934
1469.033389525581,1469.033389525581,0.9990533424767749,0.0015923646950300682
1469.0403340746832,1469.0403340746832,0.9993325945634737,0.0015914691909245389
1469.0472786235991,1469.0472786235991,0.999697888389071,0.0015924848363169652
1469.054223172422,1469.054223172422,1.001905325921926,0.0015908307470121424
1469.0611677211516,1469.0611677211516,1.0012056508287661,0.0015907080159007227
1469.0681122697888,1469.0681122697888,1.002947212717649,0.0015913356681964588
1469.0750568183323,1469.0750568183323,1.0004822830986115,0.0015913265994610011
1469.0820013667826,1469.0820013667826,1.0003648726932242,0.0015901170187554276
1469.0889459150467,1469.0889459150467,0.9969475620662738,0.0015907817348879264
1469.0958904633105,1469.0958904633105,0.998464036575616,0.0015904162465002112
1469.1028350113886,1469.1028350113886,0.9975361836096404,0.0015907629881161734
1469.1097795594665,1469.1097795594665,0.9998290447310264,0.0015908110195852851
1469.116724107451,1469.116724107451,1.0037338541439795,0.0015919270666033235
1469.1236686552497,1469.1236686552497,1.0017107558198215,0.0015910305684638138
1469.130613202955,1469.130613202955,1.0011691748607068,0.0015916738607394062
1469.1375577504741,1469.1375577504741,0.998702795254372,0.0015915839831756498
1469.1445022979933,1469.1445022979933,1.00086574318317,0.0015903991125091634
1469.151446845512,1469.151446845512,0.9996081005480045,0.0015914076844719244
1469.1583913927518,1469.1583913927518,1.0007878845481915,0.0015907931500094992
1469.1653359399913,1469.1653359399913,0.9992443546876923,0.001591026067269374
1469.1722804870446,1469.1722804870446,0.9990407048430546,0.0015912858263912207
1469.1792250340984,1469.1792250340984,1.0003169111324817,0.0015908628757144202
1469.1861695809653,1469.1861695809653,0.9997464446569513,0.0015915913098756799
1469.1931141278324,1469.1931141278324,0.9982394392847302,0.0015924776669180734
1469.2000586745132,1469.2000586745132,1.0024577041054064,0.0015924508698570907
1469.2070032211009,1469.2070032211009,0.9983093018650158,0.001592451860179906
1469.213947767596,1469.213947767596,1.0002262384796174,0.0015910498479137878
1469.2208923140904,1469.2208923140904,1.001614286106498,0.0015932832131162352
1469.2278368602122,1469.2278368602122,0.9984469879067867,0.0015906853673130332
1469.2347814065206,1469.2347814065206,0.9999440503657198,0.0015912150411916224
1469.2417259525496,1469.2417259525496,1.0001926263542888,0.0015910121970650864
1469.2486704984856,1469.2486704984856,1.00096150233038,0.0015911235297726798
1469.2556150445143,1469.2556150445143,1.0010705118016383,0.001590909710423951
1469.2625595902637,1469.2625595902637,0.9997311747461554,0.0015918240992756458
1469.2695041359202,1469.2695041359202,1.0009837175721583,0.0015920168258226886
1469.2764486814835,1469.2764486814835,0.9989820556443785,0.0015906874196480124
1469.2833932269539,1469.2833932269539,1.0007108921600452,0.0015927116425598514
1469.290337772331,1469.290337772331,0.997960782486848,0.0015916218754525272
1469.2972823178009,1469.2972823178009,0.9998071820583181,0.0015914386590879354
1469.3042268629913,1469.3042268629913,0.9982972494797624,0.0015911183032686564
1469.3111714077168,1469.3111714077168,1.002642364488295,0.0015921646182439162
1469.3181159529074,1469.3181159529074,1.0003380536426398,0.0015911012772210284
1469.325060497726,1469.325060497726,1.0002816917072201,0.0015904182717462062
1469.3320050425439,1469.3320050425439,0.9988088925994244,0.001590483903823442
1469.3389495871756,1469.3389495871756,0.9991220580272948,0.0015900990192760285
1469.3458941317149,1469.3458941317149,0.9995333665780889,0.0015889963394530085
1469.3528386762537,1469.3528386762537,1.000068132953768,0.0015888022082183964
1469.359783220606,1469.359783220606,0.9995593953586035,0.0015898949643327336
1469.3667277648658,1469.3667277648658,0.997377398091146,0.0015894259989092919
1469.3736723089382,1469.3736723089382,1.002376849429042,0.0015899856344241653
1469.3806168530118,1469.3806168530118,1.0013332580665768,0.0015898490668164878
1469.387561396992,1469.387561396992,0.9986559566090973,0.0015880710241549176
1469.3945059408788,1469.3945059408788,1.0009156379888275,0.001589510412916599
1469.401450484673,1469.401450484673,0.9990223800752573,0.0015886567875761516
1469.4083950282798,1469.4083950282798,1.0026713425019962,0.0015900714449595544
1469.4153395718874,1469.4153395718874,0.9999117030022241,0.0015884964450940664
1469.4222841153087,1469.4222841153087,1.000335590292809,0.0015895792704416836
1469.4292286586367,1469.4292286586367,0.9990916177787451,0.001588439575495176
1469.4361732019654,1469.4361732019654,1.0003655866331553,0.001589652580490594
1469.4431177450135,1469.4431177450135,1.0008360984157878,0.0015900302149254625
1469.4500622882483,1469.4500622882483,0.9990712199600076,0.0015889365679969357
1469.4570068311111,1469.4570068311111,0.998928559303485,0.001589513712627545
1469.4639513739735,1469.4639513739735,0.9996449554335705,0.0015896792394786547
1469.470895916836,1469.470895916836,0.9996932128190341,0.0015898284276039069
1469.477840459233,1469.477840459233,1.001115952510802,0.0015890143295028871
1469.4847850019087,1469.4847850019087,0.99998795011995,0.0015894316793497302
1469.4917295443058,1469.4917295443058,1.0020512018266394,0.0015900371214163222
1469.4986740867025,1469.4986740867025,0.9988511242423483,0.0015895758033070914
1469.5056186290062,1469.5056186290062,1.0005006934031009,0.0015892863943576404
1469.512563171031,1469.512563171031,0.9992986709567762,0.0015888820990609394
1469.5195077131477,1469.5195077131477,1.0003001093128563,0.0015893069084342581
1469.526452255079,1469.526452255079,0.9993237033396689,0.001589220219225813
1469.533396796917,1469.533396796917,1.0016674388038975,0.0015899843051210695
1469.5403413385689,1469.5403413385689,0.9996856731268642,0.0015897040554307407
1469.5472858803137,1469.5472858803137,1.0002947198151453,0.0015906452249123747
1469.5542304217786,1469.5542304217786,1.002732595089164,0.0015898835555937115
1469.5611749632442,1469.5611749632442,0.9984995552507634,0.001589337553169108
1469.5681195046168,1469.5681195046168,0.9990547452024975,0.0015892598450694402
1469.575064045803,1469.575064045803,0.9996679143009647,0.001589781778181982
1469.582008586989,1469.582008586989,0.9976124566064286,0.0015883915344276195
1469.5889531279888,1469.5889531279888,1.0007865567151069,0.001589674137085758
1469.5958976688953,1469.5958976688953,1.000922899692484,0.0015889023489589211
1469.602842209802,1469.602842209802,1.0020017462247064,0.0015891616342092237
1469.6097867503363,1469.6097867503363,1.000219779059812,0.0015887495809806633
1469.6167312912428,1469.6167312912428,1.002407676790421,0.0015903238944719254
1469.623675831777,1469.623675831777,0.997980007143588,0.0015888111831135973
1469.6306203719384,1469.6306203719384,1.0002143859986052,0.0015894583760555382
1469.6375649124727,1469.6375649124727,0.9963412099628697,0.0015891546950987938
1469.6445094526346,1469.6445094526346,1.001661702487702,0.0015905432591510002
1469.6514539927962,1469.6514539927962,0.9992284135836508,0.0015891746559094076
1469.6583985327718,1469.6583985327718,1.0024540041006271,0.0015907823891118105
1469.665343072747,1469.665343072747,0.9991344228101461,0.0015890401149840367
1469.6722876125355,1469.6722876125355,0.9994397419002409,0.0015895117582139244
1469.6792321522316,1469.6792321522316,0.999629876642012,0.0015890500132672506
1469.6861766919278,1469.6861766919278,0.9992708636672496,0.0015883232277805574
1469.6931212314373,1469.6931212314373,0.9994660193030294,0.0015888175709574028
1469.7000657708543,1469.7000657708543,1.0006992783378508,0.001588770194549484
1469.70701031027,1469.70701031027,1.0000804322871455,0.0015882343081084368
1469.7139548494076,1469.7139548494076,1.0016417720262123,0.001588867628039178
1469.7208993884517,1469.7208993884517,0.9998508782217351,0.0015886707350075506
1469.7278439275888,1469.7278439275888,1.0003230160203593,0.0015882305487033034
1469.7347884664466,1469.7347884664466,1.0004397067396105,0.0015892724403319067
1469.7417330053045,1469.7417330053045,1.0014767567436844,0.0015894072402899875
1469.7486775439756,1469.7486775439756,0.9984407616985556,0.0015883602250695908
1469.7556220826475,1469.7556220826475,0.997803785732439,0.0015881280815925071
1469.7625666211325,1469.7625666211325,1.0005102526746388,0.0015879230393655221
1469.769511159618,1469.769511159618,0.9990908424090522,0.001587688418149122
1469.77645569801,1469.77645569801,0.997069161619293,0.0015872747497348134
1469.7834002362156,1469.7834002362156,1.001490662206255,0.0015883463794688051
1469.7903447743288,1469.7903447743288,1.000827588138804,0.0015888857273780167
1469.7972893121616,1469.7972893121616,0.9987489548250155,0.001588388110448737
1469.8042338501814,1469.8042338501814,1.0029622449204774,0.0015899844419163093
1469.811178388015,1469.811178388015,1.0007513796707925,0.0015897350266418531
1469.8181229256616,1469.8181229256616,0.9977961465487144,0.0015880753321293052
1469.8250674633086,1469.8250674633086,0.9996566529998386,0.0015872202833135817
1469.8320120008625,1469.8320120008625,0.999875329815907,0.0015870591940999076
1469.8389565383234,1469.8389565383234,0.9986844073115003,0.0015872001004031023
1469.8459010755982,1469.8459010755982,0.9999042802989211,0.0015876663147989332
1469.8528456127794,1469.8528456127794,1.0004230760942716,0.0015883087379715665
1469.8597901498676,1469.8597901498676,1.000513654304448,0.0015892538946273207
1469.8667346868624,1469.8667346868624,1.0015777450835384,0.0015881592879877927
1469.8736792238576,1469.8736792238576,1.0007242169457489,0.0015885916661746342
1469.8806237606668,1469.8806237606668,1.0008700426068622,0.0015904493278108595
1469.8875682973826,1469.8875682973826,0.9981835987009913,0.0015889085680250135
1469.8945128340051,1469.8945128340051,0.9999354653884177,0.0015896910496602718
1469.9014573705344,1469.9014573705344,0.9995612006766101,0.001590719802168697
1469.9084019068775,1469.9084019068775,0.9998014072046516,0.0015911906037994676
1469.915346443221,1469.915346443221,1.0006002247017634,0.0015920944235391053
1469.9222909793775,1469.9222909793775,1.0013519336588579,0.0015926378480019127
1469.9292355156279,1469.9292355156279,0.9986997536155202,0.001591868439880088
1469.9361800515987,1469.9361800515987,1.0000309614625436,0.0015925199031225346
1469.943124587476,1469.943124587476,0.9975435208443452,0.0015918962384652523
1469.9500691233534,1469.9500691233534,1.0004385543505152,0.001591544783318876
1469.957013659045,1469.957013659045,0.9992080996673867,0.0015928298603401256
1469.9639581946433,1469.9639581946433,1.0019189592661129,0.0015918595980138634
1469.9709027301483,1469.9709027301483,1.0018179570752541,0.0015927360088525018
1469.9778472655598,1469.9778472655598,0.9982104912623948,0.0015921086622160626
1469.9847918007852,1469.9847918007852,1.0013423414385727,0.0015920596622163296
1469.9917363361042,1469.9917363361042,1.0002755988383512,0.001591783998043573
1469.9986808712367,1469.9986808712367,0.9983663611371633,0.001591638751458637
1470.0056254061828,1470.0056254061828,1.0004208427234114,0.0015907208839136065
1470.0125699411294,1470.0125699411294,0.9999086771603718,0.0015908550020500868
1470.0195144759823,1470.0195144759823,0.9975045215272745,0.0015907468775416007
1470.0264590106488,1470.0264590106488,0.9998847451303284,0.0015900654868274016
1470.0334035452227,1470.0334035452227,1.0019942820301597,0.0015909346154083792
1470.0403480797963,1470.0403480797963,0.9989050281040613,0.001590448461896185
1470.0472926141838,1470.0472926141838,1.003256859169559,0.001589835829256775
1470.0542371484783,1470.0542371484783,1.0014650425973548,0.0015913359278028126
