time,time,flux,flux_err
1624.9628650235138,1624.9628650235138,1.0001633063449589,0.0005432644160698296
1624.971198591412,1624.971198591412,1.0000056479876467,0.0005453700111166836
1624.979532158999,1624.979532158999,0.9998267732975187,0.0005471394485878366
1624.9878657265092,1624.9878657265092,1.0001596813120495,0.0005486957751113665
1624.9955048297065,1624.9955048297065,1.0000498394473907,0.0005022143179505304
1625.002449469011,1625.002449469011,0.9994835015741668,0.0005036937358263484
1625.0093941082223,1625.0093941082223,0.9999439197626042,0.0005053564599971579
1625.0163387471544,1625.0163387471544,1.0005838731319656,0.0005071487228352155
1625.0232833860857,1625.0232833860857,0.999982966369584,0.0005092331379878424
1625.0302280248313,1625.0302280248313,0.9996889169837901,0.0005114764195588905
1625.0371726634837,1625.0371726634837,1.000115520183552,0.0005140864960385056
1625.044117302043,1625.044117302043,1.0002210166417371,0.0005169393907369517
1625.0510619405095,1625.0510619405095,0.9995030144696045,0.0005197134653020578
1625.0580065789752,1625.0580065789752,0.9999760991670748,0.000522639352818785
1625.0649512171617,1625.0649512171617,0.9990864243043907,0.0005253980682494432
1625.071895855442,1625.071895855442,1.0005963353094296,0.0005284151444178804
1625.0788404936288,1625.0788404936288,1.0006534915411895,0.0005308599359044108
1625.085785131629,1625.085785131629,1.0008999796680644,0.000533232214644627
1625.0927297696296,1625.0927297696296,0.9996776383460493,0.0005351999801109456
1625.0996744075371,1625.0996744075371,0.9994772454163756,0.0005371285626672635
1625.1066190455374,1625.1066190455374,1.0003952633929134,0.0005393769184351903
1625.1135636833517,1625.1135636833517,0.9993947105848846,0.0005412503508127181
1625.120508321073,1625.120508321073,0.9993257849501859,0.0005433334259509196
1625.1274529587936,1625.1274529587936,1.0001093529689888,0.0005454506399813512
1625.1343975964219,1625.1343975964219,0.9997787759065476,0.0005474980287616008
1625.1413422340497,1625.1413422340497,1.0000685246432395,0.0005498119399362352
1625.148286871771,1625.148286871771,1.0009020043553878,0.0005520125189092287
1625.1552315093054,1625.1552315093054,1.0006767237067657,0.0005541115589792175
1625.1621761468405,1625.1621761468405,1.0000129409623242,0.000556641835812149
1625.1691207843753,1625.1691207843753,0.9997587436275948,0.0005587473488353562
1625.1760654218174,1625.1760654218174,0.9993811374968893,0.0005611155270702881
1625.184121201283,1625.184121201283,0.999659154646522,0.0005638460688089842
1625.1913436243003,1625.1913436243003,0.9994571563576372,0.0005661810046444051
1625.198288261742,1625.198288261742,1.0001140419003858,0.0005685539971524025
1625.205232899091,1625.205232899091,1.0000135714471665,0.00057051363571273
1625.2121775364392,1625.2121775364392,1.0005070729349848,0.0005729326698606475
1625.2202333159048,1625.2202333159048,1.000482562321027,0.0005755764167831364
1625.2288446663365,1625.2288446663365,1.0006967619460125,0.0005782569667310018
1625.2357893036856,1625.2357893036856,0.999775709958428,0.0005804996563024566
1625.2438450830577,1625.2438450830577,0.9988986002696929,0.0005827999624605227
1625.2510675059825,1625.2510675059825,1.0001807977150254,0.00058541597887216
1625.258012143424,1625.258012143424,0.9991524164212138,0.0005874682191319519
1625.264956780866,1625.264956780866,1.0001282621825816,0.000589562425576056
1625.2730125603316,1625.2730125603316,1.0001632347551817,0.0005926794973773364
1625.2802349832562,1625.2802349832562,1.0005095229649463,0.0005954052762836353
1625.2871796206978,1625.2871796206978,1.0014421177565296,0.0005978313335225329
1625.2941242581396,1625.2941242581396,0.9997520479672515,0.0006000235682423548
1625.3013466811567,1625.3013466811567,0.9994295790695954,0.0006033180939231064
1625.310791388223,1625.310791388223,0.9997221145281532,0.0006070230226127319
1625.3177360257578,1625.3177360257578,0.9999893616331732,0.0006101438702388318
1625.3257918053173,1625.3257918053173,0.9998748410534908,0.000613966867979552
1625.3330142285206,1625.3330142285206,0.9999679224714033,0.0006174496071808658
1625.3399588661487,1625.3399588661487,1.0001299886668578,0.00062038779881868
1625.3469035037765,1625.3469035037765,1.0001241175292712,0.0006236368885577201
1625.3538481415908,1625.3538481415908,0.9985733268484436,0.0006268288408934412
1625.3607927793116,1625.3607927793116,1.0000728402707701,0.0006299190257534164
1625.367737417033,1625.367737417033,1.0004767462725135,0.000632910640667786
1625.374682054847,1625.374682054847,1.0000473245452532,0.0006360615876560688
1625.3816266927547,1625.3816266927547,1.0003756242433772,0.0006384337394853353
1625.3885713305688,1625.3885713305688,0.9990083305587973,0.0006412710067661398
1625.395515968476,1625.395515968476,1.000878336776934,0.0006441761147832492
1625.402460606383,1625.402460606383,1.0000169036740327,0.0006462899291013247
1625.4094052443838,1625.4094052443838,0.9998109900755168,0.0006490223778962956
1625.4163498824776,1625.4163498824776,0.9997435057673032,0.0006513874062664861
1625.423294520478,1625.423294520478,0.99971043653475,0.0006536709878454509
1625.4302391586643,1625.4302391586643,0.9999159080785365,0.0006561345217823071
1625.437183796665,1625.437183796665,1.000111693420107,0.0006584196297283068
1625.4441284349448,1625.4441284349448,1.0010125955132925,0.000660726926296882
1625.4510730731317,1625.4510730731317,1.0011840894175237,0.0006628531337606626
1625.4580177114117,1625.4580177114117,0.9994626757106744,0.0006648096476068413
1625.4649623498776,1625.4649623498776,1.0001323218220786,0.0006670403905188523
1625.4719069881576,1625.4719069881576,0.9990854516043477,0.0006691889846068248
1625.479962768648,1625.479962768648,0.9997695058543126,0.0006718684213581006
1625.4871851927833,1625.4871851927833,0.9990591173265665,0.0006740335229534075
1625.494129831249,1625.494129831249,0.9999479521769776,0.0006760344888285341
1625.5010744699016,1625.5010744699016,1.0003457926554131,0.0006781193696798431
1625.508019108461,1625.508019108461,1.0006272469578226,0.0006805456439723447
1625.5149637471131,1625.5149637471131,1.0005147722197876,0.0006825088645876468
1625.5219083857658,1625.5219083857658,0.99909293472976,0.0006842124084955036
1625.5288530246041,1625.5288530246041,0.9989145712940145,0.0006858914921143697
1625.5357976633497,1625.5357976633497,1.001541549988266,0.0006879314533642021
1625.5427423021886,1625.5427423021886,0.9997770597533865,0.0006892612689852494
1625.5496869411204,1625.5496869411204,0.999701190803594,0.0006907893386849693
1625.5566315800522,1625.5566315800522,1.0010367277338463,0.0006922085501261711
1625.56357621917,1625.56357621917,0.9999190666820301,0.0006935626735488132
1625.5705208581019,1625.5705208581019,0.9997444898080128,0.0006946073904343767
1625.5774654972197,1625.5774654972197,0.9998763992377008,0.000695766863814589
1625.5844101364312,1625.5844101364312,0.9990196682715513,0.0006966357601281911
1625.5913547756422,1625.5913547756422,1.0004719981844858,0.0006974491398465077
1625.5982994147603,1625.5982994147603,0.9997406406364074,0.0006984591182384117
1625.6052440541578,1625.6052440541578,1.0005875642829407,0.0006992744637961055
1625.6121886935553,1625.6121886935553,0.9999185009822199,0.0007000608831086809
1625.619133332953,1625.619133332953,1.000057310544431,0.0007007414054199929
1625.6260779723502,1625.6260779723502,0.999974045745564,0.0007016053158071275
1625.6330226117477,1625.6330226117477,0.9995562811948162,0.0007024978074040755
1625.6399672515176,1625.6399672515176,1.000712648850207,0.0007033275122996327
1625.6469118910084,1625.6469118910084,1.000510883571954,0.0007048159837678408
1625.653856530685,1625.653856530685,1.0005443108989538,0.0007060515612951126
1625.6608011703615,1625.6608011703615,0.9990875647818512,0.0007073903804024194
1625.6677458101317,1625.6677458101317,1.0004229163838994,0.0007091635722356775
1625.6746904499948,1625.6746904499948,1.0009048805509395,0.000710909209357808
1625.6816350897648,1625.6816350897648,1.0008163367515366,0.0007125758667047913
1625.6885797297214,1625.6885797297214,1.0012229863044813,0.000714508448011916
1625.6955243696773,1625.6955243696773,0.9993508174574879,0.0007163339129289013
1625.7024690096337,1625.7024690096337,0.9986806522147946,0.0007184752869120613
1625.709413649683,1625.709413649683,1.0005386544725856,0.0007206795497417676
1625.7163582898256,1625.7163582898256,0.9997292066537741,0.0007228352636025581
1625.723302929968,1625.723302929968,1.0002015693850963,0.000725178428689502
1625.7302475701104,1625.7302475701104,0.9987297255969547,0.0007275740346890095
1625.7371922104392,1625.7371922104392,1.0007136247245076,0.000730104396058117
1625.744136850675,1625.744136850675,0.9998324130912266,0.0007326602182416494
1625.751081491097,1625.751081491097,1.0020593836209761,0.0007354318726466918
1625.758026131519,1625.758026131519,0.9994462380424144,0.0007376192040545581
1625.7649707718479,1625.7649707718479,0.9993743548685835,0.0007400572943489123
1625.7719154123627,1625.7719154123627,1.0005851423400058,0.0007423490804948739
1625.778860052971,1625.778860052971,1.0003815068202084,0.0007447917761504271
1625.7858046934857,1625.7858046934857,0.9993432364652554,0.0007467677404729559
1625.7927493340942,1625.7927493340942,0.9995876293601634,0.0007488320995137934
1625.7996939748884,1625.7996939748884,1.0001167319350182,0.0007505024534159493
1625.8066386154967,1625.8066386154967,0.9993478003058882,0.0007520174380835316
1625.8135832562907,1625.8135832562907,1.001479081806633,0.0007537515439408067
1625.8205278970854,1625.8205278970854,1.0015117809576857,0.000755298876634508
1625.8274725379729,1625.8274725379729,0.9991546165568485,0.0007562481367344479
1625.8344171789538,1625.8344171789538,0.9998082573347018,0.0007574218692011432
1625.8413618199343,1625.8413618199343,0.9999916255646276,0.0007583960719473492
1625.848306460822,1625.848306460822,0.9998211309147468,0.0007587549161515018
1625.8552511018956,1625.8552511018956,0.9997119474630385,0.0007589839699055319
1625.8621957429693,1625.8621957429693,1.000660357521248,0.0007592906544461713
1625.8691403841362,1625.8691403841362,0.9999792401920267,0.0007591462369678045
1625.8760850253036,1625.8760850253036,1.0008183476618782,0.0007587265913410067
1625.8830296664703,1625.8830296664703,0.9991439756113994,0.000758218806415296
1625.8899743077307,1625.8899743077307,1.0005695648947317,0.0007576446688501766
1625.8969189490838,1625.8969189490838,0.9993591468466058,0.000756457957141451
1625.903863590437,1625.903863590437,1.000054022691682,0.0007553334970012487
1625.9108082318837,1625.9108082318837,0.9997935575635968,0.0007538144308034233
1625.9177528731434,1625.9177528731434,1.0002758617346619,0.0007520038309942795
1625.9246975146832,1625.9246975146832,0.9995240653689343,0.0007502119072369317
1625.931642156129,1625.931642156129,1.000307719470031,0.0007481801925273521
1625.9385867978551,1625.9385867978551,0.9997649996926421,0.0007457712144006013
1625.9455314393015,1625.9455314393015,0.9998720971568114,0.0007437236388745871
1625.952476080841,1625.952476080841,0.9995408866935762,0.0007413465868320195
1625.9594207225668,1625.9594207225668,1.0000211803015968,0.0007392090162218455
1625.9663653642924,1625.9663653642924,0.9999830588778836,0.0007367338466729404
1625.973310006018,1625.973310006018,1.0005131633243545,0.000734389318806465
1625.980254647744,1625.980254647744,0.9999881909281918,0.0007319511455644712
1625.987199289749,1625.987199289749,0.9991123945567286,0.0007293978427809651
1625.9941439316613,1625.9941439316613,1.0000664988876438,0.0007272464087241468
1626.0010885733866,1626.0010885733866,0.9994906305190792,0.0007247231055729734
1626.008033215485,1626.008033215485,0.9992683110482513,0.0007224143792843526
1626.0149778573038,1626.0149778573038,0.9992482449035249,0.0007198524674718546
1626.0219224994955,1626.0219224994955,1.0008162320671834,0.0007176522200930166
1626.0288671415005,1626.0288671415005,1.0003254426113597,0.0007154937656287489
1626.0358117835056,1626.0358117835056,1.0005864459492986,0.0007133037330334278
1626.0427564256968,1626.0427564256968,1.0003779629173208,0.0007112812918494434
1626.049701067795,1626.049701067795,0.9996118983622694,0.0007092247391303507
1626.0566457100801,1626.0566457100801,1.0004988536648962,0.0007075598684371028
1626.0635903522714,1626.0635903522714,0.9997559111221529,0.0007055230187575513
1626.070534994556,1626.070534994556,0.9991279246303625,0.0007036737560423926
1626.0774796368403,1626.0774796368403,0.9996999319255531,0.0007020593724977873
1626.084424279125,1626.084424279125,0.9997196641198428,0.000700446767379966
1626.0913689215959,1626.0913689215959,0.9994520897907652,0.0006989555409746944
1626.0983135638805,1626.0983135638805,0.9999747294336446,0.0006973106645438811
1626.1052582064442,1626.1052582064442,0.9999558281541248,0.0006955413529929268
1626.1122028487287,1626.1122028487287,1.000705779082817,0.0006938404720723036
1626.1191474912926,1626.1191474912926,1.0000184006905284,0.000692067603887896
1626.1260921338567,1626.1260921338567,1.0009722100338785,0.0006904979956587874
1626.1330367764208,1626.1330367764208,1.000489192351289,0.0006886556110726149
1626.1399814189847,1626.1399814189847,1.0001271345084566,0.0006870117038658135
1626.1469260616416,1626.1469260616416,0.9996615319394092,0.0006854709296156869
1626.1538707042987,1626.1538707042987,1.0003137025705224,0.0006835492693807207
1626.1608153469556,1626.1608153469556,1.0000540294876372,0.0006818127659548186
1626.1677599896127,1626.1677599896127,0.9997204056410153,0.0006799121327685484
1626.174704632456,1626.174704632456,0.9997245409513738,0.000677888718608027
1626.1816492751132,1626.1816492751132,1.0000275559960188,0.0006758096813210858
1626.1885939180495,1626.1885939180495,1.0003192507912702,0.0006735500631162698
1626.1955385607066,1626.1955385607066,0.9998580184323765,0.0006712845467584582
1626.20248320355,1626.20248320355,0.9999826081892731,0.0006688538959365815
1626.2094278464863,1626.2094278464863,0.9999386525921856,0.0006663584323006397
1626.21637248933,1626.21637248933,1.0010240631569556,0.0006641995125777154
1626.2233171323594,1626.2233171323594,1.0004692995617614,0.0006616452826227584
1626.230261775389,1626.230261775389,1.0000519427567929,0.0006591809217766123
1626.2372064182323,1626.2372064182323,0.9993897909493323,0.00065667698534516
1626.2441510613548,1626.2441510613548,0.99927630413691,0.0006540972342055079
1626.2510957043846,1626.2510957043846,1.0009556788305716,0.0006518009672234435
1626.2580403474144,1626.2580403474144,1.001832157960662,0.0006494658592975167
1626.264984990537,1626.264984990537,0.9999272812149108,0.0006467987590001495
1626.2719296336597,1626.2719296336597,0.9987583161777567,0.0006439352406717406
1626.278874276782,1626.278874276782,1.0000483599255277,0.0006414749069048549
1626.285818919998,1626.285818919998,1.0001111905424434,0.000638965298164244
1626.2927635631208,1626.2927635631208,1.0004289879013668,0.0006367940526168786
1626.29970820643,1626.29970820643,1.0003073231919026,0.0006344187103547508
1626.306652849646,1626.306652849646,0.9994077618000723,0.0006320382626519102
1626.3135974927686,1626.3135974927686,0.999617571333775,0.0006297181658896946
1626.3205421361704,1626.3205421361704,0.999850115936666,0.0006278849350507575
1626.3274867794794,1626.3274867794794,0.9999357032543266,0.0006259250572786557
1626.3344314227886,1626.3344314227886,0.9992694900979535,0.0006238193485793269
1626.3413760660978,1626.3413760660978,1.0005216614960901,0.0006224556281911175
1626.3483207095,1626.3483207095,1.000837186781028,0.000620569301271919
1626.3552653529018,1626.3552653529018,1.0010142868523992,0.0006190330073041189
1626.362209996304,1626.362209996304,1.0004802166607085,0.0006175878467588558
1626.369154639706,1626.369154639706,0.9999432755823827,0.000615958090785235
1626.376099283201,1626.376099283201,0.9999775222167004,0.0006147637730082983
1626.3830439266965,1626.3830439266965,0.999926530826215,0.000613170471674406
1626.389988570192,1626.389988570192,0.9993179237805799,0.0006119519472776935
1626.3969332136871,1626.3969332136871,1.0003556782723884,0.0006107706223039049
1626.4038778571826,1626.4038778571826,0.9989296897653246,0.0006096418145322093
1626.4108225007708,1626.4108225007708,0.9999120906888695,0.0006086189419174332
1626.417767144359,1626.417767144359,1.0001799036207624,0.0006076736134082346
1626.4247117879472,1626.4247117879472,1.0007665873501175,0.0006065577015354356
1626.431656431536,1626.431656431536,0.999935518104978,0.0006055377842779788
1626.4386010751243,1626.4386010751243,0.9993887411464755,0.0006042169441045216
1626.4455457188055,1626.4455457188055,1.0014160519234776,0.0006033081226690881
1626.4524903623937,1626.4524903623937,1.0000579906986495,0.0006023062557021417
1626.4594350060756,1626.4594350060756,0.9999503128815931,0.0006013310279139489
1626.466379649757,1626.466379649757,0.9996847776750888,0.000600519688106812
1626.4733242935317,1626.4733242935317,0.9995048101639945,0.000599636272775686
1626.4802689372136,1626.4802689372136,1.0004963198661811,0.0005987454548700862
1626.4872135808946,1626.4872135808946,1.0001959293354779,0.0005979936058146336
1626.4941582247625,1626.4941582247625,1.000589990316962,0.0005973280061836134
1626.5011028684444,1626.5011028684444,0.9993598634995319,0.0005965229917004549
1626.508047512219,1626.508047512219,0.9998812213698354,0.0005958319234735086
1626.5149921560865,1626.5149921560865,1.0001286822376085,0.0005950785581632252
1626.5219367997681,1626.5219367997681,0.9992548770585188,0.0005945553927174514
1626.528881443729,1626.528881443729,1.001108697580737,0.0005941141792389375
1626.5358260875037,1626.5358260875037,0.9997029550068983,0.0005933214160759541
1626.5427707313715,1626.5427707313715,0.9991376714537591,0.0005925424748524562
1626.549715375239,1626.549715375239,0.999909522237813,0.0005921768838167156
1626.5566600190136,1626.5566600190136,1.0013609869983053,0.0005916221194083494
1626.5636046630677,1626.5636046630677,0.9988636976639024,0.0005905825797640231
1626.5705493069358,1626.5705493069358,1.0006114839044995,0.000590256033538558
1626.5774939507105,1626.5774939507105,1.0007937078449518,0.000589834305537373
1626.5844385947642,1626.5844385947642,0.9996079041118646,0.00058910524633715
1626.5913832388183,1626.5913832388183,0.9997875288910401,0.0005886360291691894
1626.5983278824997,1626.5983278824997,1.0000453412849135,0.0005880256840831893
1626.6052725264608,1626.6052725264608,0.9990282064329392,0.0005874945783155574
1626.6122171705144,1626.6122171705144,0.9997923797368301,0.000586869673445671
1626.619161814569,1626.619161814569,0.9996927929384016,0.0005864051986652225
1626.6261064586229,1626.6261064586229,1.0016239672043536,0.0005861265328254192
1626.633051102677,1626.633051102677,0.9995356823721954,0.0005851021678041554
1626.639995746731,1626.639995746731,1.000281837166406,0.0005846743959935046
1626.6469403904125,1626.6469403904125,1.0013353644611864,0.0005843140162002792
1626.6538850343734,1626.6538850343734,1.0000826405886998,0.0005836157799591925
1626.6608296784273,1626.6608296784273,0.9989816281678706,0.0005828450597699379
1626.6677743224816,1626.6677743224816,0.9998425562438008,0.0005822694601512069
1626.6747189665357,1626.6747189665357,1.0003063138218093,0.000581916270136898
1626.6816636105898,1626.6816636105898,0.9993999681688621,0.0005814427864734233
1626.6886082546434,1626.6886082546434,1.0002089578789286,0.0005809959465327579
1626.6955528987908,1626.6955528987908,0.9999483430665596,0.0005804987475613066
1626.7024975432173,1626.7024975432173,0.9998969169271646,0.0005800844969191635
1626.7094421872712,1626.7094421872712,0.9996770963569063,0.000579876161945181
1626.7163868313255,1626.7163868313255,0.9994358171082082,0.0005796564516730708
1626.7233314753796,1626.7233314753796,1.0000804037934379,0.0005795198422591762
1626.7302761194335,1626.7302761194335,1.0002524179788856,0.0005792077387751244
1626.7372207634876,1626.7372207634876,1.000216420822809,0.0005789213661435346
1626.7441654075415,1626.7441654075415,1.0004737967928228,0.0005789382207271548
