time,time,flux,flux_err
1517.3667384145951,1517.3667384145951,1.0264397829545966,0.019153505953402032
1517.3753496367383,1517.3753496367383,1.0227206229525208,0.018356875468217525
1517.3825719524139,1517.3825719524139,1.0092170104204992,0.017757952433190595
1517.3895164871692,1517.3895164871692,1.016828320616942,0.01722899332796769
1517.396461022297,1517.396461022297,1.0022716936815144,0.016728173706196593
1517.4047944647295,1517.4047944647295,0.9985583915856517,0.016148853632994085
1517.4117390004162,1517.4117390004162,0.9902948962291342,0.015739647983694777
1517.418683536382,1517.418683536382,1.015311562640235,0.015371887875996134
1517.42562807272,1517.42562807272,1.0048697427208046,0.015022089754309121
1517.4325726092452,1517.4325726092452,0.9926772199159302,0.014708341028896052
1517.439517145956,1517.439517145956,1.0199310019041026,0.01442726831213761
1517.4464616831326,1517.4464616831326,0.9911650514851564,0.014148860945468916
1517.4534062204957,1517.4534062204957,1.0026023276563891,0.013896134140303629
1517.4603507580443,1517.4603507580443,1.0050303098020967,0.013663346205677693
1517.467295295873,1517.467295295873,1.0113371543349736,0.013449233431109417
1517.4742398337949,1517.4742398337949,1.0200696546589596,0.01323008169002476
1517.4811843721823,1517.4811843721823,0.9968346797571737,0.013055283721545487
1517.488128910663,1517.488128910663,0.9747815273772847,0.012840449798491868
1517.4950734492363,1517.4950734492363,1.010699114869857,0.012674763255015584
1517.5020179881824,1517.5020179881824,1.0018246334190661,0.012512265655170468
1517.5089625272217,1517.5089625272217,1.0101658048884643,0.012353274079219663
1517.515907066354,1517.515907066354,0.9851930069100661,0.012189982760131854
1517.5228516061384,1517.5228516061384,1.0132411041003013,0.01206089283622931
1517.5297961456433,1517.5297961456433,1.0078313689539824,0.011926594261817233
1517.5367406854275,1517.5367406854275,0.9936116180777704,0.011787432763416336
1517.5436852254911,1517.5436852254911,1.001814518055757,0.01166974885469106
1517.550629765555,1517.550629765555,0.9920247864354235,0.011562763521490556
1517.557574305898,1517.557574305898,0.9962510983882342,0.011432956685520147
1517.5645188463345,1517.5645188463345,1.0043083184817108,0.011325454246761457
1517.5714633868638,1517.5714633868638,0.9983929071440603,0.01122450027093665
1517.5784079276723,1517.5784079276723,1.0004783822736183,0.011121200542867107
1517.585352468575,1517.585352468575,0.9863739352617694,0.011022577617008925
1517.5922970094764,1517.5922970094764,0.9983564942666394,0.010921663162534965
1517.5992415506576,1517.5992415506576,1.010845850824666,0.010854493321108525
1517.6061860919322,1517.6061860919322,1.0002477901803766,0.010768203846628282
1517.6131306332063,1517.6131306332063,0.9885028951747898,0.010687902197221887
1517.6200751747606,1517.6200751747606,1.0034801068107473,0.010607504494350387
1517.6270197164074,1517.6270197164074,1.0138135825108907,0.010508919940317376
1517.6339642580542,1517.6339642580542,0.9882711079846679,0.010442739772881621
1517.6409087997943,1517.6409087997943,0.989347353901403,0.010365857478731966
1517.647853341814,1517.647853341814,0.98314696215301,0.010296421422278625
1517.6547978837402,1517.6547978837402,1.0122362338099389,0.01022888670579453
1517.661742425853,1517.661742425853,0.9970997133390614,0.010167468826402338
1517.6686869679656,1517.6686869679656,1.0122525516440974,0.010110656834371474
1517.6756315101713,1517.6756315101713,1.0059416678737088,0.010031413582176104
1517.6825760525633,1517.6825760525633,1.0043994658945055,0.00998017065101595
1517.6895205949552,1517.6895205949552,1.0056937667236512,0.009917468444875534
1517.6964651373478,1517.6964651373478,0.9859579836783586,0.009854765515278372
1517.7034096799257,1517.7034096799257,1.0004456785667544,0.009778518547163367
1517.710354222597,1517.710354222597,1.012095451679237,0.009718861876688936
1517.7172987651752,1517.7172987651752,0.9855606312894902,0.009650400605968525
1517.72424330794,1517.72424330794,1.0057932645514325,0.00959945906758971
1517.7311878507976,1517.7311878507976,1.000735480897284,0.009531840405440058
1517.7381323935624,1517.7381323935624,0.994292075774986,0.00947801322227124
1517.7450769364198,1517.7450769364198,1.0058346902382729,0.009440294626090638
1517.7520214792773,1517.7520214792773,1.0111644159939075,0.009393741421327536
1517.7589660222282,1517.7589660222282,1.000367036136255,0.009329962047960765
1517.7659105652722,1517.7659105652722,1.0086410152814096,0.009285563243429187
1517.7728551083164,1517.7728551083164,0.9975807450752135,0.009234151835269813
1517.77979965136,1517.77979965136,0.9894446062987473,0.00917749682601727
1517.7867441944973,1517.7867441944973,0.9939814366858244,0.009124315703626224
1517.793688737634,1517.793688737634,0.9801445690247285,0.009073589510539768
1517.8006332806785,1517.8006332806785,0.9876993163977461,0.009039345643707637
1517.8075778239083,1517.8075778239083,1.006858683168106,0.00899760180291019
1517.8145223671386,1517.8145223671386,0.9995266652673112,0.00894660516794781
1517.8214669103688,1517.8214669103688,1.006610568578908,0.008918774179953749
1517.828411453692,1517.828411453692,1.00293353537922,0.00884876856635559
1517.8353559968293,1517.8353559968293,1.0029354711235345,0.008787318464512202
1517.8423005402456,1517.8423005402456,0.9936518795732269,0.008727460956754092
1517.849245083383,1517.849245083383,0.9917427643715302,0.00866693167105034
1517.856189626799,1517.856189626799,0.9969938947219242,0.008608984599566234
1517.8631341700295,1517.8631341700295,0.9959806201506831,0.008546716159207567
1517.8700787133525,1517.8700787133525,0.9923667830462641,0.008527506088582484
1517.8770232566762,1517.8770232566762,1.004921752879099,0.008478504731773358
1517.8839677999993,1517.8839677999993,1.0136835646882545,0.008442252859451924
1517.8909123433227,1517.8909123433227,1.0069156041471063,0.008404291031893264
1517.897856886553,1517.897856886553,0.9953138408503459,0.00838190245274572
1517.9048014299694,1517.9048014299694,0.9972002556987578,0.008339775851971945
1517.9117459731067,1517.9117459731067,1.0076305464261481,0.008324829348397431
1517.9186905165232,1517.9186905165232,0.9988179881650934,0.008311079830041788
1517.92563505966,1517.92563505966,0.9907735726929598,0.008283188489166914
1517.9325796030764,1517.9325796030764,0.998681707204206,0.008271009381903865
1517.9395241462137,1517.9395241462137,0.9972486225891931,0.008264243260527354
1517.9475798164797,1517.9475798164797,0.9969050255573493,0.008245527737615992
1517.9548021414691,1517.9548021414691,1.0047215867464634,0.008235818359611274
1517.9617466846062,1517.9617466846062,0.9975454831254819,0.008190700067299082
1517.9686912277434,1517.9686912277434,1.0077445888737053,0.008174349319071
1517.9756357708807,1517.9756357708807,0.999162676015429,0.008161866001781214
1517.9825803141105,1517.9825803141105,1.0007031384135014,0.008128505961528433
1517.9895248571545,1517.9895248571545,1.0008408505372515,0.00809603558975271
1517.9964694002917,1517.9964694002917,0.9935918121205543,0.008086204962164346
1518.003413943335,1518.003413943335,1.0014250234882083,0.008067079067195542
1518.0103584863796,1518.0103584863796,0.9995834244058891,0.008059318225691557
1518.0173030293304,1518.0173030293304,0.9984269456869705,0.008037304445331595
1518.0242475722812,1518.0242475722812,1.0136166099158483,0.008025143496921875
1518.0311921153252,1518.0311921153252,0.9940283550777174,0.007998116287951983
1518.0381366581828,1518.0381366581828,0.9979722633864941,0.007985093134717205
1518.0450812011336,1518.0450812011336,0.9981634019227357,0.007966091879478845
1518.0520257439912,1518.0520257439912,0.9922110528427177,0.007953482174923721
1518.058970286849,1518.058970286849,0.9969342898028911,0.00793715143382907
1518.06591482952,1518.06591482952,0.9989624254604248,0.00791475844241791
1518.0728593721917,1518.0728593721917,1.0078234288728534,0.007919400880209964
1518.0798039149563,1518.0798039149563,1.005606088657641,0.007894595020549771
1518.0867484576277,1518.0867484576277,0.9942737173502894,0.007889412731193875
1518.0936930002058,1518.0936930002058,1.0060422448326618,0.007876443199249438
1518.1006375427842,1518.1006375427842,0.9931127797013343,0.007850324444332526
1518.1075820852693,1518.1075820852693,0.9956933603728227,0.007824571809708632
1518.114526627754,1518.114526627754,0.9901806685563296,0.007812367968381031
1518.1214711701464,1518.1214711701464,1.0060689701339833,0.007815084347277946
1518.1284157125383,1518.1284157125383,1.007892319192854,0.007792717448545455
1518.1353602549304,1518.1353602549304,1.0001190579875496,0.007789513565001611
1518.142304797229,1518.142304797229,0.9999193368618903,0.0077607258096821854
1518.1492493394348,1518.1492493394348,0.9990007744804814,0.007748195728412953
1518.1561938816408,1518.1561938816408,0.9996706330491627,0.007727295720062655
1518.163138423753,1518.163138423753,0.9990140980092491,0.007714740601431581
1518.170082965866,1518.170082965866,1.0045328947276841,0.007701264961993822
1518.1770275078857,1518.1770275078857,0.9948124355513418,0.007669777997833723
1518.1839720499052,1518.1839720499052,1.001515022518064,0.007660419906675544
1518.1909165917382,1518.1909165917382,0.9934669304524766,0.007652067467904656
1518.1978611337577,1518.1978611337577,0.9967493829182406,0.00763705864852819
1518.2048056754975,1518.2048056754975,1.0083500959980172,0.0076318974683269505
1518.2117502171445,1518.2117502171445,1.001479039349194,0.0076271368956576146
1518.218694758792,1518.218694758792,1.002803133415496,0.007599220174029334
1518.2256393004384,1518.2256393004384,1.0041014798640302,0.007607350114066333
1518.2325838420857,1518.2325838420857,1.0059974126851152,0.007590279049021621
1518.2395283837327,1518.2395283837327,0.996204773193182,0.007578223163746357
1518.246472925193,1518.246472925193,1.0006405969873884,0.007576443227288792
1518.253417466561,1518.253417466561,0.9942660774220679,0.007569487024744059
1518.2603620078353,1518.2603620078353,1.002682908772561,0.00756139285459613
1518.2675843308684,1518.2675843308684,1.0040691824349068,0.007564020979969442
1518.2756399986204,1518.2756399986204,1.0025963329163559,0.007571688310846822
1518.2825845398015,1518.2825845398015,0.9992952842733318,0.007565184259773268
1518.2895290808895,1518.2895290808895,0.9943718194811788,0.007544890788396627
1518.2964736217918,1518.2964736217918,1.0031598369583061,0.0075360627685399344
1518.3034181628798,1518.3034181628798,0.9927626630302069,0.007531724492114375
1518.3103627036883,1518.3103627036883,1.0008601798123293,0.007514369445055169
1518.3186961526403,1518.3186961526403,1.0103266650039877,0.007500688393325598
1518.3256406933558,1518.3256406933558,0.9932095080212449,0.007489516382065578
1518.3325852339785,1518.3325852339785,0.9942775148018403,0.007479789016666731
1518.3395297746938,1518.3395297746938,0.998774533602132,0.007480540256544911
1518.346474315223,1518.346474315223,0.9992666713487337,0.007473173456013201
1518.3534188556598,1518.3534188556598,1.0123669732373461,0.007469709231676193
1518.3603633959096,1518.3603633959096,1.007535975228317,0.007479083950107983
1518.367307936346,1518.367307936346,0.9995685841386388,0.007447861738027655
1518.374252476596,1518.374252476596,0.9982060996444357,0.007448745955794603
1518.3811970167526,1518.3811970167526,0.999135234492108,0.007466272326192132
1518.3881415568162,1518.3881415568162,0.9905538227879337,0.0074470517772360426
1518.3950860968803,1518.3950860968803,0.9970622074518335,0.0074388105926156915
1518.4020306367572,1518.4020306367572,0.9996776649809285,0.00745338639279335
1518.4089751767283,1518.4089751767283,1.0053856989623413,0.0074364939457098695
1518.416753061324,1518.416753061324,0.9999898716506888,0.007440715864285148
1518.4242531641605,1518.4242531641605,0.9983541547446769,0.007431744483562307
1518.431197703852,1518.431197703852,0.9980279980463174,0.007422520305425827
1518.4381422434499,1518.4381422434499,1.0012491732060649,0.007397374088943245
1518.4450867829541,1518.4450867829541,1.0015298839787579,0.007393706810107703
1518.4520313222733,1518.4520313222733,1.0005532813005156,0.007378551362673397
1518.4589758615919,1518.4589758615919,0.9961216220931612,0.007380362327032879
1518.4673093087745,1518.4673093087745,1.0052512862011684,0.007360609953014889
1518.4742538480928,1518.4742538480928,0.9994495759483355,0.0073686774099937956
1518.481198386946,1518.481198386946,0.9957332581374342,0.007361171887509054
1518.4881429260781,1518.4881429260781,1.0023979042610645,0.007363515305259649
1518.4950874650244,1518.4950874650244,0.9998657074203454,0.007364598540449771
1518.5020320038773,1518.5020320038773,1.010175977341002,0.007377354877402832
1518.5089765426371,1518.5089765426371,1.000454283688796,0.007365655838731973
1518.515921081397,1518.515921081397,0.9987837860363694,0.007362491805709362
1518.5228656199706,1518.5228656199706,0.9952263326337689,0.00734586169089846
1518.5298101585443,1518.5298101585443,0.9947672636498034,0.007365170396732669
1518.5367546970242,1518.5367546970242,0.9893000592018723,0.0073487352110468114
1518.5436992353184,1518.5436992353184,0.9973486247231408,0.007362569130289182
1518.5506437737063,1518.5506437737063,1.0046890642018842,0.007366786328041214
1518.5575883119072,1518.5575883119072,1.0089696099034529,0.007356295969215077
1518.5645328500154,1518.5645328500154,1.013992919618518,0.007351738088579765
1518.5714773881232,1518.5714773881232,0.9960221718476248,0.007340519235872675
1518.5784219260447,1518.5784219260447,1.001553082488096,0.00734062534758442
1518.5853664639665,1518.5853664639665,0.9920682687505172,0.007348708384195446
1518.592311001795,1518.592311001795,1.0018557652003202,0.007341001700873187
1518.5992555394369,1518.5992555394369,0.991605311583846,0.007343355728639362
1518.6062000771726,1518.6062000771726,0.9932956788802081,0.007329402055410024
1518.6131446147217,1518.6131446147217,1.0040097746445507,0.007353302361059624
1518.6200891521773,1518.6200891521773,1.0065491587320137,0.007356752863508055
1518.6270336895404,1518.6270336895404,1.004203536059859,0.007345751759044415
1518.63397822681,1518.63397822681,0.9948061387250651,0.0073468073559368
1518.6409227641732,1518.6409227641732,0.998426568136374,0.0073350924943883745
1518.6478673012566,1518.6478673012566,1.008104513762724,0.007335232767711167
1518.654811838247,1518.654811838247,0.9973182955893553,0.00733547802242413
1518.661756375237,1518.661756375237,0.9980606808818312,0.007330255723204737
1518.6687009122275,1518.6687009122275,1.0052916494155095,0.007326712491516865
1518.6756454488454,1518.6756454488454,0.9879491599442144,0.0073101836221331085
1518.6825899856492,1518.6825899856492,1.0086401358076738,0.007331446908449562
1518.689534522267,1518.689534522267,0.9915109115189837,0.007302934294362877
1518.6964790586985,1518.6964790586985,0.9877916900811542,0.007292671449486121
1518.7034235952235,1518.7034235952235,1.0057252283222344,0.007309102043794471
1518.7103681315614,1518.7103681315614,1.0054084869780722,0.007300132137905852
1518.7173126679002,1518.7173126679002,0.9932196344154498,0.007303384718172996
1518.7242572040523,1518.7242572040523,1.0084563327728775,0.007302992266119956
1518.7312017401114,1518.7312017401114,1.0007352995851024,0.007304363737347552
1518.7381462761705,1518.7381462761705,0.9970722457555665,0.007284351850649603
1518.7450908120431,1518.7450908120431,1.0066368016224172,0.007288643216336803
1518.7520353478226,1518.7520353478226,1.0020872499981919,0.007300200735022498
1518.7589798836955,1518.7589798836955,0.9946870593613711,0.007297358295263889
1518.765924419289,1518.765924419289,0.9944196696041256,0.007306410775803213
1518.7728689547887,1518.7728689547887,1.0008180843005665,0.007310500991383778
1518.7798134903824,1518.7798134903824,0.9961619704236805,0.007310290925045479
1518.7867580256964,1518.7867580256964,1.0107386752803573,0.007320734864566159
1518.79370256101,1518.79370256101,0.9975268723522788,0.00733488344321203
1518.8006470962312,1518.8006470962312,1.0000011343946746,0.007324673106396565
1518.8075916313587,1518.8075916313587,0.9929852054609223,0.0073251799932195685
1518.814536166393,1518.814536166393,1.0008173876412159,0.007334356082893343
1518.8214807013344,1518.8214807013344,1.0070491379149435,0.007340369820257373
1518.8284252359967,1518.8284252359967,0.9977054947090863,0.007313339603484943
1518.8353697711243,1518.8353697711243,0.9954954813163779,0.007316210501950261
1518.8423143057867,1518.8423143057867,1.0009075722406673,0.0073239053173815806
1518.8492588400757,1518.8492588400757,1.0011254768991946,0.007329568972357611
1518.856203374645,1518.856203374645,0.9997162579840714,0.007327070671634498
1518.8631479090277,1518.8631479090277,1.0049391210108873,0.007321691044368209
1518.8700924433167,1518.8700924433167,0.9975110020691105,0.007317590178350467
1518.8770369775132,1518.8770369775132,1.000192068813443,0.0073121091517351884
1518.8839815117094,1518.8839815117094,1.0029454124450385,0.007322882044288792
1518.8909260457197,1518.8909260457197,0.998374711985566,0.007314939231609217
1518.8978705796364,1518.8978705796364,0.9977353975746668,0.007310753938307379
1518.9048151134605,1518.9048151134605,0.9933398320735203,0.007317515172696615
1518.911759647191,1518.911759647191,1.0001130924610302,0.0073199145553824565
1518.9187041809214,1518.9187041809214,1.0127971457544038,0.007335032654888223
1518.925648714373,1518.925648714373,0.9959260818967142,0.007309039965340419
1518.9325932479173,1518.9325932479173,0.9942867072511211,0.007296640603669112
1518.9395377813685,1518.9395377813685,0.9993666667534894,0.007298996357770487
1518.946482314634,1518.946482314634,1.0007961243847765,0.007294693092996227
1518.9534268478055,1518.9534268478055,1.0017715410262362,0.007297977741566909
1518.9603713808847,1518.9603713808847,1.0023424053977186,0.007288619260699411
1518.9673159139631,1518.9673159139631,1.0029510487179742,0.007299663785168949
1518.9742604468559,1518.9742604468559,1.0039841639359042,0.007295204515281073
1518.9812049796553,1518.9812049796553,0.9927536845505551,0.007284157989573159
1518.9881495123616,1518.9881495123616,0.9938951253924708,0.007301483763873828
1518.9950940450676,1518.9950940450676,1.0038699806409266,0.007291832497103461
1519.0020385774017,1519.0020385774017,1.0013736372262603,0.007291869166762603
1519.008983110201,1519.008983110201,0.9985646661442396,0.0072860625745924
1519.0159276425343,1519.0159276425343,1.0016566834750709,0.007290977046097815
1519.0228721745889,1519.0228721745889,1.0019221531760727,0.007307532308471663
1519.0298167067363,1519.0298167067363,0.997305215448667,0.0072908790013422094
1519.0367612388836,1519.0367612388836,0.9939144325999241,0.007284229390266783
1519.0437057708448,1519.0437057708448,1.006357322517617,0.0073114083771025394
1519.050650302713,1519.050650302713,1.008349886652646,0.007306483482806954
1519.0575948344879,1519.0575948344879,0.9935786086543077,0.007312093182328278
1519.0645393662626,1519.0645393662626,0.9977170301909384,0.007317280259256145
1519.0714838977578,1519.0714838977578,1.0033796309186986,0.007309636092230898
1519.0784284292536,1519.0784284292536,0.9970022498566635,0.007316986425450535
1519.085372960656,1519.085372960656,0.9980395018197352,0.007312640277130203
1519.0923174920583,1519.0923174920583,1.0026154534144485,0.0073060917903605485
1519.0992620231814,1519.0992620231814,0.994405794674498,0.007288932184032754
1519.1062065543974,1519.1062065543974,1.0024608200451788,0.007303952479791915
1519.113151085334,1519.113151085334,0.9987603228236113,0.0072954664669310654
1519.1200956162709,1519.1200956162709,1.0053403896211308,0.007292651145347581
1519.1270401471143,1519.1270401471143,0.9955513310134922,0.00727734934510809
1519.133984677865,1519.133984677865,1.0041628890005472,0.007291724890681352
1519.140929208522,1519.140929208522,1.004076040294419,0.007280094301886501
1519.1478737389934,1519.1478737389934,1.0006926474025357,0.0072812695635713215
1519.1548182694646,1519.1548182694646,1.0011626482492018,0.007280946855235768
1519.1617627998426,1519.1617627998426,0.9914269299450448,0.007288996937727601
