time,time,flux,flux_err
1544.4448351919634,1544.4448351919634,0.9993333175404936,0.001104743607910393
1544.453168550123,1544.453168550123,1.0004755861071726,0.0011006417368712058
1544.4608074614855,1544.4608074614855,0.999977523756176,0.0010022442911910843
1544.4677519263598,1544.4677519263598,0.9994838755878543,0.0010005068193620877
1544.4746963912346,1544.4746963912346,1.0010932837021747,0.0009986285787682394
1544.4816408561092,1544.4816408561092,1.0007567286314203,0.000996232254458157
1544.4885853209835,1544.4885853209835,0.9997913407345337,0.0009945283193529624
1544.4955297858583,1544.4955297858583,0.9998496280632642,0.0009939322224155275
1544.5024742507328,1544.5024742507328,1.0000385488549626,0.0009923586203959363
1544.5094187155141,1544.5094187155141,0.9983864950563459,0.0009900326263770905
1544.5163631800165,1544.5163631800165,1.0005721514630337,0.000989902699648509
1544.523307644798,1544.523307644798,1.0002639623876834,0.0009883904518411897
1544.5302521093001,1544.5302521093001,0.9995711914310832,0.0009872800330441023
1544.5371965738022,1544.5371965738022,1.0003960752225916,0.0009857826328129398
1544.5441410383971,1544.5441410383971,1.0002717967880175,0.0009854626722766591
1544.5510855028065,1544.5510855028065,0.9997811928590542,0.0009841490628714129
1544.5580299672151,1544.5580299672151,0.9997884077396053,0.0009837188810987905
1544.564974431624,1544.564974431624,0.9999759427290466,0.0009817468593072492
1544.57191889594,1544.57191889594,1.0012505818869648,0.0009809108592430085
1544.5788633601626,1544.5788633601626,0.9995730894890578,0.0009794393129367149
1544.5858078243853,1544.5858078243853,0.9995382975624667,0.0009784287317688494
1544.5927522885147,1544.5927522885147,1.0012696306095468,0.0009778319140345405
1544.5996967527376,1544.5996967527376,0.999828246569135,0.0009765366604783596
1544.6066412166806,1544.6066412166806,0.9995905547983313,0.0009753766870847384
1544.6135856808103,1544.6135856808103,0.9995449301338551,0.0009744727490003796
1544.6205301447535,1544.6205301447535,0.9994937943143496,0.0009740093151488667
1544.627474608697,1544.627474608697,0.9998109519977854,0.0009735324429878372
1544.6344190725467,1544.6344190725467,1.0009916050392471,0.0009730173324047585
1544.6421968720892,1544.6421968720892,1.0006167124480716,0.0009723318508869765
1544.6496968929428,1544.6496968929428,1.0001977583901076,0.0009718744839380719
1544.6566413566068,1544.6566413566068,0.999079562573496,0.0009706455160666926
1544.6635858203636,1544.6635858203636,0.9993239175666643,0.0009703897980071479
1544.6705302839343,1544.6705302839343,1.0001863508978728,0.0009691263792369353
1544.6774747475051,1544.6774747475051,1.0006823464071066,0.0009687524502815464
1544.684419210983,1544.684419210983,1.000554291634346,0.0009679392081370048
1544.691363674367,1544.691363674367,0.9983408358309533,0.00096574921517815
1544.698308137845,1544.698308137845,0.9991753061496447,0.000965540245125522
1544.7052526011362,1544.7052526011362,1.00088641126421,0.0009651527964002844
1544.7121970645205,1544.7121970645205,1.0004886852933461,0.0009644059640566106
1544.7191415276259,1544.7191415276259,0.9999747485828749,0.0009617573867467047
1544.726085990917,1544.726085990917,1.0010837433572972,0.0009605198144706864
1544.733030453929,1544.733030453929,1.0001319315948158,0.0009605276170463719
1544.739974917034,1544.739974917034,0.9995985813381447,0.0009597918795830841
1544.746919380046,1544.746919380046,1.0010798756337613,0.0009593062153009171
1544.753863842965,1544.753863842965,0.9992031844810674,0.0009583053772705232
1544.7608083058835,1544.7608083058835,0.9987712487369231,0.0009572299356853256
1544.7677527687097,1544.7677527687097,1.0003592980742821,0.000956918434966973
1544.7746972314421,1544.7746972314421,0.9984399330455618,0.000956063223363822
1544.7816416939881,1544.7816416939881,1.0005052120034232,0.0009558432287888607
1544.788586157,1544.788586157,1.0000267073050617,0.0009559464834619752
1544.7955306195465,1544.7955306195465,1.0006834298539782,0.000954619263955451
1544.8024750820928,1544.8024750820928,1.000621090770398,0.0009541886383636112
1544.8094195444523,1544.8094195444523,1.0004146116246193,0.0009536569318354254
1544.81636400672,1544.81636400672,0.9998095581703337,0.0009530576753446031
1544.8233084692656,1544.8233084692656,0.9998545887162681,0.000951823967151078
1544.8302529314396,1544.8302529314396,0.9998893806074914,0.0009515521426209769
1544.8371973937067,1544.8371973937067,0.9992709295341349,0.0009507086295192972
1544.8441418558803,1544.8441418558803,0.9994097032534872,0.0009501081009136551
1544.851086317961,1544.851086317961,1.000696470622125,0.0009498423645105858
1544.8580307800416,1544.8580307800416,1.0004561170893844,0.0009491213701511459
1544.864975242029,1544.864975242029,1.0009230089699384,0.0009478663579045541
1544.8719197040166,1544.8719197040166,0.9997880662835847,0.0009468608836801127
1544.8788641657243,1544.8788641657243,0.9995897453333171,0.0009456297226168502
1544.885808627619,1544.885808627619,1.000326767882568,0.0009449075296873429
1544.892753089327,1544.892753089327,0.9990285606444607,0.0009433889560862302
1544.8996975510352,1544.8996975510352,0.9998681146651744,0.0009420021773217097
1544.9066420126505,1544.9066420126505,1.000006643288311,0.0009418570111638369
1544.9135864740788,1544.9135864740788,0.9992851378197564,0.0009405392682629016
1544.9205309356937,1544.9205309356937,1.0008969100662262,0.0009403058313167314
1544.9274753971222,1544.9274753971222,1.000020394090497,0.0009395024134337505
1544.934419858458,1544.934419858458,0.9998704357629921,0.0009380549994510488
1544.9413643196071,1544.9413643196071,1.0006685102908799,0.0009379895781410654
1544.9483087808499,1544.9483087808499,1.0003019019097168,0.0009362855865210964
1544.955253241999,1544.955253241999,0.99976119785483,0.0009356950567723064
1544.9621977031486,1544.9621977031486,1.0001203037893482,0.0009357082608729032
1544.9691421641112,1544.9691421641112,1.000853020433104,0.0009342896668264851
1544.9760866250745,1544.9760866250745,1.000141284907416,0.0009329443989328776
1544.9830310859445,1544.9830310859445,0.9988530534385192,0.0009320671896581268
1544.989975546814,1544.989975546814,0.9996549885453814,0.0009314579725941778
1544.996920007498,1544.996920007498,0.9996251282026357,0.000930996611968489
1545.0038644681815,1545.0038644681815,0.9994416671915152,0.000930834800460636
1545.0108089287717,1545.0108089287717,1.0007909431854825,0.000929545233560459
1545.0177533893625,1545.0177533893625,1.0001746889050058,0.0009300497238416826
1545.0246978497667,1545.0246978497667,0.9999549078122101,0.0009285289363998766
1545.0316423102638,1545.0316423102638,1.0001000849822184,0.000928246281352008
1545.0385867704822,1545.0385867704822,0.9994452785827764,0.0009272020151461148
1545.0455312307,1545.0455312307,1.000992583444597,0.0009270723256296843
1545.052475690918,1545.052475690918,0.9999089309517775,0.0009259902379754017
1545.0594201511358,1545.0594201511358,1.000790386682792,0.0009245897880430425
1545.0663646112607,1545.0663646112607,0.9986664977201309,0.0009242313569511166
1545.0733090711062,1545.0733090711062,0.9997115008116909,0.000924139404818925
1545.080253531138,1545.080253531138,0.9995409213278215,0.0009228266438329197
1545.0871979909832,1545.0871979909832,1.0000570460746026,0.0009220203146405674
1545.0941424507357,1545.0941424507357,1.0006835697816536,0.0009218889705138042
1545.1010869103945,1545.1010869103945,0.999919660204505,0.0009212913402287489
1545.108031370054,1545.108031370054,1.001149795313858,0.0009206336728839661
1545.11497582962,1545.11497582962,0.9996845911497289,0.0009199237805692384
1545.121920289093,1545.121920289093,0.9996852877369573,0.0009189577651717792
1545.1288647484726,1545.1288647484726,1.0000010541367181,0.000918218130441258
1545.1358092078526,1545.1358092078526,0.9999231653892828,0.0009187049489509051
1545.1427536671392,1545.1427536671392,0.998794046927164,0.0009165744298041031
1545.1496981264256,1545.1496981264256,0.999889954218302,0.0009173616359594422
1545.156642585433,1545.156642585433,1.0006640149405597,0.0009166560741931748
1545.1635870445332,1545.1635870445332,0.9996729369264703,0.0009159511354191171
1545.1705315035408,1545.1705315035408,1.00078667087621,0.0009152682573896128
1545.1774759624545,1545.1774759624545,0.9999745339440214,0.0009146105705339878
1545.1844204212757,1545.1844204212757,0.9996603255555592,0.0009142677843632045
1545.191364880097,1545.191364880097,1.0026280322520382,0.0009145592460093582
1545.1983093387316,1545.1983093387316,1.0004662568230867,0.0009136228179165062
1545.2052537973661,1545.2052537973661,0.9988239510398866,0.0009129407650268417
1545.2121982559077,1545.2121982559077,0.9883046343213764,0.0009098544038470761
1545.219142714356,1545.219142714356,0.9778197958974205,0.0009070939159311179
1545.2260871728045,1545.2260871728045,0.9742192407262993,0.0009065247825038947
1545.2330316310665,1545.2330316310665,0.9745132451767751,0.0009057412026825627
1545.2399760893288,1545.2399760893288,0.9774295066820567,0.0009058731672740258
1545.2469205475911,1545.2469205475911,0.9824693545655345,0.0009077244630963681
1545.253865005574,1545.253865005574,0.9969225871002789,0.0009110406138674998
1545.2608094634638,1545.2608094634638,1.0017808504832995,0.0009114595448927136
1545.2677539216327,1545.2677539216327,0.9987665315004366,0.0009103374880239514
1545.2746983792429,1545.2746983792429,1.001160218840711,0.0009103014006684107
1545.2816428371325,1545.2816428371325,1.000794224137188,0.0009098455653116981
1545.2885872950221,1545.2885872950221,1.0001549566097325,0.0009094772739143614
1545.2955317525395,1545.2955317525395,0.9995427812839399,0.0009092659226498956
1545.3024762102427,1545.3024762102427,1.0014510845221032,0.0009096760813536395
1545.309420667667,1545.309420667667,1.0001998792198994,0.000908391854426653
1545.3163651250911,1545.3163651250911,1.0005561109694572,0.0009088304229205556
1545.3233095824219,1545.3233095824219,0.9990550112317834,0.0009075535723863288
1545.3302540397522,1545.3302540397522,0.9993150758308869,0.0009073467001778277
1545.337198496804,1545.337198496804,1.000294679136007,0.000907810838800549
1545.3441429539484,1545.3441429539484,0.9993331882188965,0.0009061469301887397
1545.3510874110002,1545.3510874110002,0.9986831489898282,0.0009050046179786663
1545.3580318679583,1545.3580318679583,1.001419405281744,0.0009059981713196216
1545.3649763248234,1545.3649763248234,1.0002491635407909,0.0009050914619691911
1545.371920781689,1545.371920781689,1.0006749706730593,0.0009050419967794822
1545.3788652383678,1545.3788652383678,0.9988106953327904,0.0009032724555988672
1545.3858096950464,1545.3858096950464,0.9999741086126479,0.0009034809950535051
1545.3927541515393,1545.3927541515393,1.0010536491946245,0.0009032068471243537
1545.399698608032,1545.399698608032,0.999954304947883,0.000902469558743043
1545.4066430644314,1545.4066430644314,1.0002051647058383,0.0009028377211340334
1545.413587520738,1545.413587520738,0.9999918794800722,0.00090165259120824
1545.420531977044,1545.420531977044,1.000377265089369,0.0009018098257894683
1545.4274764331644,1545.4274764331644,1.000343452293883,0.0009014592131943687
1545.4344208892846,1545.4344208892846,0.9994933070409766,0.0009010946567224139
1545.4413653453116,1545.4413653453116,1.0005763988987975,0.0009010710772340187
1545.4483098013384,1545.4483098013384,0.9989873075570677,0.0009006159466336953
1545.4552542570866,1545.4552542570866,1.0017124294721036,0.0009010434553053945
1545.4621987129265,1545.4621987129265,0.9998581587596806,0.0009003268059856753
1545.4691431684882,1545.4691431684882,1.001739523596142,0.0009006003393549079
1545.4760876240496,1545.4760876240496,0.9997122674546702,0.0008998549554463294
1545.4830320796107,1545.4830320796107,0.9988971593286994,0.0009000843529018501
1545.4899765351722,1545.4899765351722,1.0010826775754627,0.0008996264589618181
1545.4969209906403,1545.4969209906403,0.9995078699582294,0.0008994067272430701
1545.5038654458294,1545.5038654458294,1.000178028462146,0.0008988153584013279
1545.510809901018,1545.510809901018,0.9992534533125508,0.0008999635189388523
1545.517754356207,1545.517754356207,1.0004887452568285,0.0008994453828884792
1545.5246988113026,1545.5246988113026,1.0005008300031264,0.0008991457643713339
1545.531643266305,1545.531643266305,1.0007418795949372,0.0008994472085105013
1545.5385877211215,1545.5385877211215,0.9995024038423223,0.0008991487743046503
1545.5455321759378,1545.5455321759378,0.9991248982524967,0.0008989135150197237
1545.5524766307537,1545.5524766307537,0.9996816575896933,0.0008992049477574736
1545.559421085291,1545.559421085291,1.0001344453194565,0.000899461623580434
1545.566365539921,1545.566365539921,1.0004609522321382,0.0008989928773032032
1545.573309994365,1545.573309994365,0.999297800120291,0.0008993587716418306
1545.5802544487149,1545.5802544487149,1.0005059067357784,0.0008991612206480034
1545.587198903159,1545.587198903159,1.000115541699109,0.0008987969876619815
1545.5941433573232,1545.5941433573232,0.9997798376624238,0.0008997330062394648
1545.6010878115808,1545.6010878115808,1.0004107108140778,0.0008993319739721426
1545.6080322655587,1545.6080322655587,0.9997106372297493,0.0008989600933652156
1545.6149767196298,1545.6149767196298,1.0007606971865541,0.0008987295849761052
1545.6219211735151,1545.6219211735151,1.0000535235595205,0.0008993689602788205
1545.6288656273998,1545.6288656273998,0.9982603457200604,0.0008979094696291422
1545.6358100810987,1545.6358100810987,1.0004038946754954,0.0008991990014160228
1545.6427545347976,1545.6427545347976,0.9997996942494609,0.0008986995760356803
1545.6496989884029,1545.6496989884029,1.0010603599028154,0.0008989452258529677
1545.6566434419153,1545.6566434419153,1.0003513184762396,0.0008985910438467283
1545.6635878953346,1545.6635878953346,0.9993008848606179,0.0008988678196327511
1545.6705323485676,1545.6705323485676,0.9997831006736707,0.0008989212351886531
1545.677476801801,1545.677476801801,0.9999334936211778,0.0008982769276917955
1545.6844212550338,1545.6844212550338,0.9997904264841762,0.0008987450645029374
1545.6913657082666,1545.6913657082666,1.0010251387636462,0.0008984476584217576
1545.6983101611272,1545.6983101611272,1.0004506652315057,0.000898301919684185
1545.705254614081,1545.705254614081,0.9997824613555568,0.0008983823981789995
1545.7121990669411,1545.7121990669411,0.9997669869276027,0.0008991701703925002
1545.719143519709,1545.719143519709,0.9999173000176562,0.0008990981971635677
1545.7260879723829,1545.7260879723829,0.999563916244527,0.0008986748430452022
1545.7330324249642,1545.7330324249642,0.999899402993227,0.0008985990587324558
1545.7399768774521,1545.7399768774521,0.9999021682408827,0.0008991527288280052
1545.7469213299403,1545.7469213299403,1.0003465712685882,0.0009001101288463699
1545.753865782242,1545.753865782242,0.999738417291274,0.0008994152176013306
1545.7608102344504,1545.7608102344504,0.9998473990974567,0.0008991931001656607
1545.767754686752,1545.767754686752,0.999673493184709,0.0008987821909586604
1545.7746991387744,1545.7746991387744,1.000591061963551,0.0008996015310750444
1545.7816435907034,1545.7816435907034,0.9998076714022546,0.0008987633957883096
1545.7885880426327,1545.7885880426327,1.0008437216373842,0.0008995333108895128
1545.7955324944687,1545.7955324944687,0.9996711011886997,0.0008988115035923026
1545.8024769462113,1545.8024769462113,0.9995483010223245,0.000899370471080867
1545.8094213978616,1545.8094213978616,1.001299362037525,0.0008991659803911208
1545.816365849511,1545.816365849511,0.9999419086808375,0.0008993224084829675
1545.8233103009748,1545.8233103009748,0.9990670957083833,0.0008993944666028821
1545.830254752345,1545.830254752345,1.0015906233840042,0.0008998964816891245
1545.8371992037153,1545.8371992037153,0.9990681648783836,0.0008999895853078367
1545.8441436549924,1545.8441436549924,0.9988091882832913,0.0008992428878139087
1545.8510881060838,1545.8510881060838,0.9988143656166286,0.0008995722465929293
1545.8580325570815,1545.8580325570815,1.0016576494480744,0.0008998175042962301
1545.864977008359,1545.864977008359,0.999701333413971,0.0008998966118723029
1545.8719214592636,1545.8719214592636,0.9988729334232177,0.0008989462031152231
1545.8788659097027,1545.8788659097027,0.9994862287729396,0.0008999112233000249
1545.8858103606071,1545.8858103606071,1.0007149086340932,0.0008990737597844379
1545.8927548112324,1545.8927548112324,1.0014209647626746,0.0008991724805323996
1545.8996992618581,1545.8996992618581,1.0004043773047693,0.0008996447164262884
1545.906643712297,1545.906643712297,1.0012400499755685,0.0008989789398945418
1545.913588162643,1545.913588162643,1.0000130434156282,0.0008995426041648066
1545.9205326129886,1545.9205326129886,0.9991870776426506,0.0008986997205702133
1545.9274770631487,1545.9274770631487,0.999348391916015,0.0008993757728171506
1545.9344215133078,1545.9344215133078,0.9985157973252411,0.0008994805488690856
1545.9413659633747,1545.9413659633747,0.9986118633789023,0.0008989126299597524
1545.9483104132546,1545.9483104132546,1.0002984905954893,0.0008995595436596561
1545.9552548632284,1545.9552548632284,1.0008556531768815,0.0008992454022365134
1545.9621993130154,1545.9621993130154,0.9999374604237581,0.0008999979943275871
1545.9691437627093,1545.9691437627093,1.0002031511240876,0.000899419559944821
1545.976088212217,1545.976088212217,0.9999851388046341,0.0008999887523393781
1545.983032661818,1545.983032661818,1.0009140079391963,0.0008996060088600907
1545.9899771112327,1545.9899771112327,0.9997004819235654,0.0008997244853596901
1545.996921560554,1545.996921560554,1.0005032772076667,0.0008998837886957945
1546.0038660098755,1546.0038660098755,1.0011383524629127,0.0008996291327233874
1546.0108104590108,1546.0108104590108,1.0001725143916393,0.0008993458573899772
1546.0177549080527,1546.0177549080527,1.0000124527924883,0.000899476843430907
1546.024699357095,1546.024699357095,0.9903017498740956,0.0008974456094230354
1546.0316438059504,1546.0316438059504,0.9769165122432968,0.0008937032684152906
1546.0385882548997,1546.0385882548997,0.9742773963557211,0.00089312959211002
1546.0455327034758,1546.0455327034758,0.9734712804412439,0.0008933781807170599
1546.0524771520522,1546.0524771520522,0.9747323684357815,0.0008938906810085874
1546.0594216006289,1546.0594216006289,0.9821533428463504,0.0008953377385597395
1546.066366049205,1546.066366049205,0.9961984995880793,0.000899892644260392
1546.0733104977814,1546.0733104977814,0.9996675962677152,0.0009000148221952557
1546.0802549458926,1546.0802549458926,1.0007876431177187,0.0008997215942684944
1546.0871993941892,1546.0871993941892,1.000675747668462,0.0009001050820028101
1546.0941438423001,1546.0941438423001,1.0014620222417894,0.0009010616100949577
1546.1010882904106,1546.1010882904106,1.0000040991580033,0.0009009101437621707
1546.108032738242,1546.108032738242,0.9994363127533183,0.0008998990088166959
1546.1149771861667,1546.1149771861667,1.0005932559410222,0.0009002005250189299
1546.1219216339045,1546.1219216339045,0.9991232821530627,0.0008998833705548155
1546.128866081643,1546.128866081643,0.9994446474553429,0.0008991734020825492
1546.135810529288,1546.135810529288,0.9994709691802799,0.0008990924863718101
1546.1427549766536,1546.1427549766536,1.0004325325820769,0.0009000488123542408
1546.1496994241124,1546.1496994241124,0.9997904074219919,0.0008994763072273079
1546.1566438714783,1546.1566438714783,1.0003462262549219,0.0009000331232326275
1546.1635883187505,1546.1635883187505,1.000100396174632,0.000899951193447846
1546.1705327659304,1546.1705327659304,0.9997222266486663,0.0008994534677984395
1546.1774772129233,1546.1774772129233,1.0007953884214433,0.0009000164469680719
1546.1844216599166,1546.1844216599166,1.0000646240070057,0.0008998917993959056
1546.1913661069098,1546.1913661069098,0.9994580457745788,0.0008996751575722958
1546.198310553717,1546.198310553717,1.0006595122966735,0.0008989298147482735
1546.205255000337,1546.205255000337,1.00094478120116,0.0008997664632981195
1546.2121994469578,1546.2121994469578,0.9998033419076167,0.0008991887781006255
