time,time,flux,flux_err
1410.9096099704504,1410.9096099704504,0.9997951633214707,0.00025381761778957935
1410.9172489491493,1410.9172489491493,1.0000376364320662,0.0002317562201498459
1410.9241934752467,1410.9241934752467,1.0001554527567496,0.00023175033495378673
1410.93113800125,1410.93113800125,0.9999945212788767,0.0002317356226773731
1410.9380825271612,1410.9380825271612,1.000347470021867,0.00023174398943737315
1410.945027053025,1410.945027053025,0.9998493589896287,0.00023169693626147927
1410.9519715788424,1410.9519715788424,0.9997294940996555,0.00023167832167503383
1410.9589161045674,1410.9589161045674,1.0000658161150626,0.0002317072951360531
1410.9672495353711,1410.9672495353711,1.000021986346074,0.00023167517776730514
1410.9833608345284,1410.9833608345284,1.0002536937877406,0.0002316727431095101
1410.990860921959,1410.990860921959,0.9995807647055601,0.00023161966368233215
1411.0005832574236,1411.0005832574236,1.0009367242179281,0.0002315825422164278
1411.0103055927489,1411.0103055927489,1.0002228687347774,0.00023171231233192922
1411.0172501178677,1411.0172501178677,0.999653201421957,0.0002316148990916709
1411.0241946429403,1411.0241946429403,1.0001215893289737,0.00023165798645701546
1411.0311391678736,1411.0311391678736,0.9997147781494693,0.0002315953138838914
1411.038083692759,1411.038083692759,1.0001746246989345,0.00023164964940027466
1411.045028217553,1411.045028217553,0.999843402538185,0.00023161953507536527
1411.0530838663162,1411.0530838663162,0.9997786955394756,0.00023160105385025887
1411.0603061718928,1411.0603061718928,1.0000773663093727,0.00023166973087849186
1411.0672506964995,1411.0672506964995,1.000487540884118,0.0002316702331131457
1411.0741952209662,1411.0741952209662,1.0003539389352314,0.00023167276115188857
1411.0811397453874,1411.0811397453874,0.9998604845715466,0.00023160266066010634
1411.0880842696213,1411.0880842696213,0.999907771567694,0.0002316219265298835
1411.0950287938556,1411.0950287938556,1.0001196488329436,0.00023166572728565917
1411.1019733180901,1411.1019733180901,0.999850818353768,0.00023162545565608167
1411.1089178421378,1411.1089178421378,0.9998241656921454,0.00023160382619426536
1411.1158623661402,1411.1158623661402,1.0000441360168013,0.00023164665642042486
1411.1228068900014,1411.1228068900014,0.999927661594801,0.00023165200002444637
1411.1297514138635,1411.1297514138635,1.0000398263835475,0.00023160579814219214
1411.1366959375855,1411.1366959375855,1.000002663126304,0.00023162484057238737
1411.1436404612143,1411.1436404612143,0.9998766654294078,0.00023159500680552478
1411.1505849847972,1411.1505849847972,1.0002094883183772,0.00023161447601135462
1411.1575295083326,1411.1575295083326,0.9998028780617497,0.00023157070361054993
1411.1644740316824,1411.1644740316824,1.0001797535917996,0.0002316027816060863
1411.1714185549852,1411.1714185549852,1.0002086047558199,0.00023158491945606983
1411.178363078148,1411.178363078148,1.0002719584020174,0.00023161545111404741
1411.1853076012194,1411.1853076012194,0.9999394430807864,0.00023155947075156487
1411.1922521242889,1411.1922521242889,1.0002741102960024,0.0002315916338676842
1411.199196647359,1411.199196647359,0.9996616925389828,0.00023153424226316313
1411.20614117015,1411.20614117015,0.9999870920967225,0.00023155867845884673
1411.2130856929405,1411.2130856929405,1.000079966082562,0.00023154937202815012
1411.2200302156386,1411.2200302156386,0.9998111580664023,0.00023151230854631812
1411.2269747382427,1411.2269747382427,0.9997789646803756,0.00023150642455221148
1411.2339192607542,1411.2339192607542,1.0000650107689761,0.00023155192596612727
1411.240863783126,1411.240863783126,1.0003459760358715,0.00023156109505295463
1411.2478083054507,1411.2478083054507,0.9998376587587188,0.0002315678210713391
1411.2547528276834,1411.2547528276834,1.0003067565159924,0.00023159900924291592
1411.2616973498684,1411.2616973498684,1.000799367194779,0.0002316472842936484
1411.2686418718679,1411.2686418718679,1.0001321991387813,0.00023157993161782158
1411.2755863939135,1411.2755863939135,0.9999835940511874,0.00023155615533799486
1411.2825309156792,1411.2825309156792,0.9999195260742558,0.00023153933209286697
1411.2894754374927,1411.2894754374927,0.9996880510527208,0.00023150484983695759
1411.296419959119,1411.296419959119,0.9998422315006549,0.00023158722990839934
1411.303364480746,1411.303364480746,1.0001792127225049,0.0002316010001363877
1411.3103090022328,1411.3103090022328,1.000121593417899,0.00023162771414099396
1411.3172535236265,1411.3172535236265,0.9999940754018943,0.0002315978542056615
1411.3241980449277,1411.3241980449277,0.9998063421321305,0.00023159880769666003
1411.3311425661348,1411.3311425661348,1.0000120525930665,0.00023160208929836327
1411.3380870872493,1411.3380870872493,0.9999237314928007,0.000231576271572551
1411.3450316082703,1411.3450316082703,1.0003094034185802,0.00023163626609969102
1411.3519761291986,1411.3519761291986,0.999779136668761,0.00023160095304699044
1411.3589206500337,1411.3589206500337,0.9999462686820391,0.0002315968152551573
1411.3658651707751,1411.3658651707751,1.0000915959106522,0.00023157809384161744
1411.372809691378,1411.372809691378,1.0000623253255791,0.00023157539976255623
1411.379754211933,1411.379754211933,0.9996562453351672,0.00023156639801692026
1411.3866987323959,1411.3866987323959,1.0000335805540463,0.0002315815561002323
1411.393643252719,1411.393643252719,1.000138202538426,0.0002315754578409998
1411.4005877729946,1411.4005877729946,1.0001564012247937,0.00023158470670783812
1411.407532293178,1411.407532293178,1.0002286387695072,0.0002315813575315024
1411.4144768132212,1411.4144768132212,1.0004253779622843,0.00023159949913268628
1411.4214213331718,1411.4214213331718,1.000104272535792,0.00023154829275961547
1411.4283658530753,1411.4283658530753,0.9999529570238135,0.0002316056080606184
1411.4353103728386,1411.4353103728386,0.9999646466748302,0.00023157509400961664
1411.4422548924172,1411.4422548924172,0.9997444646184664,0.00023149985799214432
1411.4491994119944,1411.4491994119944,1.0001026885873314,0.0002315578014255709
1411.4561439315723,1411.4561439315723,1.0000866882992032,0.0002316224575681772
1411.463088450964,1411.463088450964,1.0003017793500208,0.00023164764507204474
1411.470032970262,1411.470032970262,0.9999866582668966,0.00023159907375328763
1411.4769774894678,1411.4769774894678,0.9999018308199867,0.00023159449688445167
1411.4839220085328,1411.4839220085328,0.9999251432196757,0.00023157471111305328
1411.490866527552,1411.490866527552,0.9999597448262059,0.0002316381355355986
1411.4978110464776,1411.4978110464776,0.9998418185376556,0.0002316243927979541
1411.5047555652634,1411.5047555652634,1.0001396478593096,0.00023161349587300204
1411.511700083957,1411.511700083957,0.9999818562137364,0.00023155382284768526
1411.518644602603,1411.518644602603,0.9997818164218272,0.00023156704340456408
1411.5255891210634,1411.5255891210634,1.0002871425750592,0.0002316436499117221
1411.532533639477,1411.532533639477,1.0000900408212612,0.00023164333202457818
1411.5394781578436,1411.5394781578436,1.00002855865145,0.00023162688528252233
1411.5464226760248,1411.5464226760248,0.9999757268549031,0.00023160458241157475
1411.5533671941587,1411.5533671941587,1.0002730210253727,0.00023164797457063806
1411.5603117122002,1411.5603117122002,1.0001612062816287,0.0002316456401024114
1411.5672562301013,1411.5672562301013,0.9999253422434291,0.000231607579083624
1411.5742007479098,1411.5742007479098,0.9992564063704357,0.0002315698606042907
1411.5811452656712,1411.5811452656712,1.0000940546310972,0.00023164572752619315
1411.588089783293,1411.588089783293,0.9997761872760487,0.00023163014458853093
1411.5950343008224,1411.5950343008224,1.0002916682614733,0.00023168863311473476
1411.6019788182573,1411.6019788182573,0.9997956963675408,0.00023164401257525063
1411.6089233355074,1411.6089233355074,1.0003825606328602,0.00023170051802984362
1411.6158678527565,1411.6158678527565,0.9997894235618687,0.00023165220184098056
1411.6228123700055,1411.6228123700055,1.0001626340669107,0.00023164759246463304
1411.6297568869766,1411.6297568869766,1.0003323368568329,0.00023168825392312658
1411.6367014039458,1411.6367014039458,0.9995791753092647,0.00023163701914147105
1411.6436459207766,1411.6436459207766,1.0001706128531904,0.00023164385563798241
1411.6505904375601,1411.6505904375601,1.0000373538841647,0.00023166889468104055
1411.657534954204,1411.657534954204,1.0002212293172756,0.00023168449949078224
1411.6644794707088,1411.6644794707088,0.9998637689490091,0.00023166040437969337
1411.671423987166,1411.671423987166,0.9997898114604109,0.0002316601827460048
1411.6783685035311,1411.6783685035311,1.0001816892073607,0.00023167213980910872
1411.6853130198026,1411.6853130198026,0.9998152688227014,0.0002316228011055949
1411.692257535981,1411.692257535981,0.999899948179096,0.00023166820272340965
1411.6992020520665,1411.6992020520665,1.0001645240412433,0.000231698886931903
1411.7061465679185,1411.7061465679185,0.9997916391654463,0.00023162098490573502
1411.7130910838182,1411.7130910838182,0.9998335272545921,0.00023165002156965187
1411.7200355995305,1411.7200355995305,1.0001976588139843,0.00023170701970259459
1411.7269801152434,1411.7269801152434,1.0002136202935403,0.00023169463655931558
1411.733924630816,1411.733924630816,0.9998758373788619,0.00023166145531981
1411.7408691462497,1411.7408691462497,0.9998094746054742,0.00023164174714470224
1411.7478136616367,1411.7478136616367,1.0002555786633769,0.00023169265012635125
1411.7547581768833,1411.7547581768833,1.0001866238219925,0.00023168306366994898
1411.7617026920846,1411.7617026920846,1.000071408227862,0.00023169968105345062
1411.7686472070984,1411.7686472070984,1.0000168923011952,0.00023168638705535534
1411.7755917220197,1411.7755917220197,0.9997618070084613,0.00023165237296822816
1411.7825362369408,1411.7825362369408,0.9999776133462113,0.00023172385088760186
1411.7894807517682,1411.7894807517682,1.0002562580800123,0.00023173677615450305
1411.7964252664574,1411.7964252664574,0.9997851460391931,0.00023171196126240868
1411.8033697810051,1411.8033697810051,0.9997589505019366,0.00023173283481349314
1411.8103142955074,1411.8103142955074,1.000368914494012,0.00023175418455670334
1411.81725880987,1411.81725880987,1.0004394656120534,0.00023177426306935167
1411.8242033241854,1411.8242033241854,0.9998919587969421,0.00023174223055934828
1411.8311478383623,1411.8311478383623,1.000000142572649,0.00023175155517339875
1411.8380923524444,1411.8380923524444,1.00022791460821,0.00023176163420004502
1411.8450368664348,1411.8450368664348,0.9994427007966735,0.0002317020687434748
1411.8519813803312,1411.8519813803312,0.9999174204843883,0.00023174433122483056
1411.8589258940879,1411.8589258940879,1.0001884797570733,0.00023177724083891838
1411.865870407845,1411.865870407845,1.0004988073003978,0.00023178818079800848
1411.8728149214155,1411.8728149214155,1.00019860055465,0.00023176478502533984
1411.8797594349403,1411.8797594349403,0.9995910902332705,0.00023168635465214572
1411.886703948324,1411.886703948324,0.9998532426130545,0.00023174116375180616
1411.8936484616627,1411.8936484616627,1.000383180637662,0.00023179817291867365
1411.900592974814,1411.900592974814,0.9999446839120895,0.00023176126337595058
1411.9075374879658,1411.9075374879658,0.9996363813408866,0.00023170485009272457
1411.9144820009776,1411.9144820009776,0.9999849749881029,0.00023173528069071305
1411.921426513896,1411.921426513896,0.999994444700395,0.0002317333976664594
1411.9283710267223,1411.9283710267223,1.000051263338832,0.00023175137663530051
1411.9353155393612,1411.9353155393612,0.9999432818018027,0.00023176082217403934
1411.9422600519545,1411.9422600519545,1.000245019357991,0.00023175281164336466
1411.949204564547,1411.949204564547,0.9998309955930681,0.00023172846353474314
1411.9561490770463,1411.9561490770463,0.9999990347855828,0.0002317708862259467
1411.9630935893606,1411.9630935893606,1.0002560476835067,0.00023175258897254754
1411.97003810158,1411.97003810158,1.000128086489453,0.00023174216415619282
1411.9769826137078,1411.9769826137078,0.9998618210366008,0.00023171439459459858
1411.9839271257881,1411.9839271257881,0.9994707102621273,0.00023167828187982474
1411.9908716377292,1411.9908716377292,1.0001756881394386,0.00023175780589242156
1411.9978161495771,1411.9978161495771,0.999859782507426,0.0002317062339615583
1412.004760661285,1412.004760661285,1.0001900355164675,0.00023179493749230022
1412.0117051729935,1412.0117051729935,1.0001543574035456,0.00023174952211387764
1412.0186496844683,1412.0186496844683,1.0001223537713255,0.0002317566986490657
1412.0255941960836,1412.0255941960836,0.9998418596294355,0.00023172777399639712
1412.032538707279,1412.032538707279,1.0003173783551862,0.00023177005148035637
1412.039483218615,1412.039483218615,0.9998645953208427,0.00023172402493289724
1412.0464277297638,1412.0464277297638,0.9995477709829508,0.00023162991111135445
1412.0533722408666,1412.0533722408666,1.0003028481584546,0.0002317664026775745
1412.06031675183,1412.06031675183,0.9998056888068232,0.00023170655191474175
1412.0672612627461,1412.0672612627461,0.9998338851111332,0.00023174092300301836
1412.0742057734767,1412.0742057734767,1.0002050410430003,0.00023176689269155886
1412.08115028416,1412.08115028416,1.000286465921279,0.00023175475486102523
1412.088094794797,1412.088094794797,0.9996809261153979,0.0002316890060428599
1412.095039305248,1412.095039305248,0.9999556498916456,0.00023172850341586127
1412.101983815745,1412.101983815745,1.0002423247031635,0.00023174889273535772
1412.10892832601,1412.10892832601,0.9999183826850946,0.00023172672180278635
1412.1158728362275,1412.1158728362275,1.0002585035375113,0.00023175493686615188
1412.122817346306,1412.122817346306,0.9999092440536602,0.00023174334555020547
1412.1297618562915,1412.1297618562915,0.9998930294672143,0.00023175636028192531
1412.1367063662296,1412.1367063662296,1.000154465902208,0.00023175384523377814
1412.1436508760753,1412.1436508760753,1.0000146939572225,0.00023175166469071866
1412.1505953857807,1412.1505953857807,0.9999209038587538,0.00023174125689292744
1412.1575398954403,1412.1575398954403,1.0000157662229465,0.00023179190047107392
1412.1644844049592,1412.1644844049592,1.0001813078043462,0.00023177934954700854
1412.171428914386,1412.171428914386,0.9994620858853225,0.00023173314422283612
1412.1783734237654,1412.1783734237654,0.9998989969094776,0.00023174323521956376
1412.1853179330524,1412.1853179330524,1.0000777496653828,0.00023177070163483672
1412.1922624421995,1412.1922624421995,1.0002045972027465,0.0002317929501480283
1412.1992069512994,1412.1992069512994,0.9996846058783871,0.00023173424934402556
1412.2061514601678,1412.2061514601678,1.0002707473244807,0.0002317838452896898
1412.213095969081,1412.213095969081,1.0000340538788213,0.00023174949117555277
1412.2200404778093,1412.2200404778093,1.0002357457582125,0.0002317534024382042
1412.226984986537,1412.226984986537,0.999781381984118,0.0002317268650164033
1412.2339294951253,1412.2339294951253,1.0001822718309836,0.00023173986879588822
1412.2408740036203,1412.2408740036203,1.0002238985448904,0.00023173901704509926
1412.2478185120217,1412.2478185120217,0.9999680117766456,0.00023171352232054473
1412.25559636133,1412.25559636133,0.9994523505028194,0.0002316726130556509
1412.26420755145,1412.26420755145,0.9999323499259312,0.00023162598686581114
1412.2742076430645,1412.2742076430645,1.0001176417767845,0.00023165611925966777
1412.2855966360803,1412.2855966360803,0.99996638562599,0.0002316223469219765
1412.293652265053,1412.293652265053,1.0008342447167506,0.00023163341106141258
1412.3005967728031,1412.3005967728031,1.0001377147843575,0.00023171266475300556
1412.3075412803669,1412.3075412803669,1.000074841035532,0.00023170420346516318
1412.3144857878372,1412.3144857878372,1.0001417108398865,0.00023169150045384347
1412.3214302952147,1412.3214302952147,0.9998344733249116,0.0002316794188693298
1412.328374802592,1412.328374802592,1.0000753425626132,0.00023167961847377996
1412.3353193097835,1412.3353193097835,1.000110174806828,0.00023176161567471133
1412.3422638169282,1412.3422638169282,1.0001000797896014,0.00023172233980178807
1412.3492083239332,1412.3492083239332,0.9994273670093428,0.0002316448713511118
1412.356152830891,1412.356152830891,1.00070943645649,0.000232061694764344
1412.3630973376635,1412.3630973376635,1.0002100633014939,0.00023172798175685776
1412.3700418444355,1412.3700418444355,1.0000647363818558,0.00023176666414914795
1412.3769863511143,1412.3769863511143,0.9996281310773589,0.0002317390531373309
1412.383930857654,1412.383930857654,0.9998890459554316,0.00023175630267125132
1412.3908753641458,1412.3908753641458,1.0002431663830236,0.00023181363950896581
1412.3978198704997,1412.3978198704997,0.9996274117077693,0.00023173424678256616
1412.4047643768058,1412.4047643768058,0.9996790017202638,0.0002317332537712878
1412.4117088829726,1412.4117088829726,1.0006639523100653,0.00023179873369027023
1412.418653389046,1412.418653389046,1.0003073726571219,0.0002317332723089761
1412.4255978950264,1412.4255978950264,0.9999372886075044,0.00023178319246237167
1412.4325424010071,1412.4325424010071,0.9999975088946383,0.00023179298656221805
1412.439486906801,1412.439486906801,0.9999405577773043,0.00023175318253113465
1412.4464314125494,1412.4464314125494,0.9997238556480156,0.00023169874445726083
1412.4533759182498,1412.4533759182498,1.000164165340355,0.00023177704915848014
1412.460320423625,1412.460320423625,0.9996546473831873,0.00023169454494327584
1412.4672649291397,1412.4672649291397,0.9998432523567999,0.00023170707920236949
1412.474209434515,1412.474209434515,1.000170120342069,0.00023172825539092504
1412.4811539397501,1412.4811539397501,1.0001237057294847,0.00023167058272938055
1412.4880984449387,1412.4880984449387,1.000012103898218,0.00023176006994402222
1412.4950429499888,1412.4950429499888,1.000221589480503,0.0002317652254421636
1412.5019874549903,1412.5019874549903,1.000344421348964,0.0002317645676570028
1412.5089319599006,1412.5089319599006,0.9999947692434017,0.00023176211739026672
1412.5158764646699,1412.5158764646699,1.0001216192174518,0.00023175388342819124
1412.5228209693935,1412.5228209693935,0.9995159102171451,0.00023173456851943887
1412.52976547407,1412.52976547407,0.9992763088484194,0.00023166751790322445
1412.53670997856,1412.53670997856,1.0000867029100422,0.00023178832813712936
1412.543654483004,1412.543654483004,1.0003151458418151,0.00023177634067550235
1412.550598987354,1412.550598987354,1.0001726716475992,0.0002317874563815999
1412.5575434916123,1412.5575434916123,0.9999567906855477,0.00023177324013031546
1412.5644879957763,1412.5644879957763,0.9999800879355988,0.00023173823082747828
1412.571432499848,1412.571432499848,1.0004993043781587,0.00023181472742057674
1412.5783770038256,1412.5783770038256,0.9998181416291615,0.00023171468922667549
1412.5853215077575,1412.5853215077575,0.9998626247125179,0.00023175157048168645
1412.5922660115027,1412.5922660115027,1.0000282440814952,0.0002317847307884304
1412.5992105152013,1412.5992105152013,0.9999486339985362,0.00023175345239641803
1412.6061550188538,1412.6061550188538,0.9998129421174887,0.00023174392749347725
1412.6130995223655,1412.6130995223655,1.00015338553668,0.00023174528386936622
1412.6200440258322,1412.6200440258322,0.9999853911316181,0.00023175064506426906
1412.6269885291113,1412.6269885291113,0.9998896956451127,0.0002317100280109162
1412.6339330323913,1412.6339330323913,1.0000655436287373,0.00023177584984357223
1412.6408775355778,1412.6408775355778,1.000022691988661,0.00023178520529843933
1412.6478220386246,1412.6478220386246,1.0002838624833257,0.00023180824881568877
1412.654766541625,1412.654766541625,1.0003276906907166,0.00023181586006325948
1412.6617110444852,1412.6617110444852,0.9996967935959272,0.00023177161419272573
1412.6686555473461,1412.6686555473461,0.9999813824918068,0.00023177581025140342
1412.6756000500197,1412.6756000500197,0.99969403219452,0.00023174492684707024
1412.6825445526479,1412.6825445526479,0.999680407865489,0.00023170184423734595
