time,time,flux,flux_err
1325.2996310048384,1325.2996310048384,1.000306262536056,0.0004738631329669657
1325.307964477832,1325.307964477832,0.999306039485408,0.00047382681008816517
1325.3162979510007,1325.3162979510007,1.000384162113937,0.00047426178084950053
1325.3246314243531,1325.3246314243531,0.9999516709029731,0.00047452015359660937
1325.3322704417428,1325.3322704417428,1.000131049574572,0.0004335131311812607
1325.339215003129,1325.339215003129,1.000002563374077,0.0004338696445321995
1325.346159564638,1325.346159564638,0.9999626223147798,0.00043420049259312225
1325.3531041262515,1325.3531041262515,1.000325150326113,0.0004347132626183276
1325.3600486879986,1325.3600486879986,0.9999980685513924,0.0004351380888191469
1325.366993249851,1325.366993249851,0.999462636187903,0.0004355091064345803
1325.3739378118134,1325.3739378118134,0.9997300983131556,0.0004360341480558025
1325.3808823738752,1325.3808823738752,0.9999069740782529,0.00043656676175444836
1325.387826936065,1325.387826936065,1.0001537893846382,0.0004372479462298729
1325.3947714983535,1325.3947714983535,1.0002093661741096,0.0004377963372081405
1325.401716060753,1325.401716060753,1.0001352278390616,0.000438293402649352
1325.4086606232568,1325.4086606232568,1.0007004512832776,0.00043889286838211033
1325.4156051858658,1325.4156051858658,0.9995893964089069,0.0004393628998202237
1325.4225497485736,1325.4225497485736,0.9996526805379755,0.00044003445393882924
1325.42949431138,1325.42949431138,1.0000874828646038,0.0004408067530572421
1325.4364388742974,1325.4364388742974,0.9996533301280754,0.00044150400313914314
1325.4433834373078,1325.4433834373078,1.0003653221922981,0.00044240831093479086
1325.4503280004058,1325.4503280004058,1.000097663655996,0.000443256033449182
1325.457272563614,1325.457272563614,0.9995299115215627,0.0004441568064020458
1325.4642171269156,1325.4642171269156,1.0000649047579082,0.00044518062877284904
1325.4711616902982,1325.4711616902982,0.9995956358705838,0.0004462444046997143
1325.4781062537863,1325.4781062537863,1.0006749940336712,0.00044759583783029284
1325.4850508173554,1325.4850508173554,0.9999177094834192,0.000448776460064689
1325.4919953810181,1325.4919953810181,0.9996029854444941,0.00045002128109857627
1325.4989399447736,1325.4989399447736,1.0004297382367946,0.00045147969882634376
1325.5058845086103,1325.5058845086103,1.000269190450665,0.00045290203968045655
1325.5128290725347,1325.5128290725347,0.9997076747002474,0.0004541121385503817
1325.5197736365403,1325.5197736365403,1.0002727321179652,0.00045571154353085664
1325.5267182006392,1325.5267182006392,0.9996039491715889,0.00045688510234974795
1325.533662764808,1325.533662764808,1.0000721439624563,0.00045837909593904314
1325.5406073290756,1325.5406073290756,0.9998138825407045,0.0004595647513255317
1325.547551893408,1325.547551893408,1.0004903233657751,0.0004609964934719723
1325.5544964578207,1325.5544964578207,0.9998136004535969,0.00046209863311430353
1325.5614410223159,1325.5614410223159,1.0002580134877297,0.0004632990437975134
1325.5683855868922,1325.5683855868922,0.9995587089623557,0.0004642920585852364
1325.5753301515322,1325.5753301515322,1.0004748547499238,0.00046543783119378277
1325.5822747162601,1325.5822747162601,0.9996440555857994,0.00046614903140966237
1325.589219281051,1325.589219281051,0.99989191806143,0.00046687390889193147
1325.596163845913,1325.596163845913,1.0000517713684243,0.0004675883987002672
1325.6031084108556,1325.6031084108556,1.0009950975201338,0.0004681535220222875
1325.610052975857,1325.610052975857,0.9992060866747462,0.0004681464323092046
1325.6169975409455,1325.6169975409455,1.0004684981021008,0.00046864518927555796
1325.6239421060864,1325.6239421060864,1.0004601377469702,0.00046880878045840507
1325.630886671303,1325.630886671303,1.0004390246533532,0.0004687239962265965
1325.6378312365837,1325.6378312365837,0.9999111918989978,0.0004686344824581663
1325.6447758019278,1325.6447758019278,1.0001501416148273,0.0004685555383826219
1325.6517203673366,1325.6517203673366,0.9999800736713815,0.0004684753737873396
1325.6586649328092,1325.6586649328092,0.9996932742847952,0.00046832947838666635
1325.6656094983516,1325.6656094983516,1.0004412969292722,0.0004681978227869951
1325.6725540639463,1325.6725540639463,0.9997992615200347,0.0004679794208365219
1325.6794986296113,1325.6794986296113,0.9994763254944645,0.0004678532018052666
1325.6864431953286,1325.6864431953286,0.9999022195064917,0.0004679370221628621
1325.6933877611034,1325.6933877611034,1.0011836645374121,0.00046812902722502363
1325.7003323269432,1325.7003323269432,0.9995444341416478,0.0004679769556094991
1325.707276892829,1325.707276892829,1.0000682804417962,0.0004682799368220389
1325.7142214587846,1325.7142214587846,0.9998257670822746,0.0004682629692456841
1325.721166024787,1325.721166024787,1.0000342685572536,0.0004685343453118316
1325.7281105908476,1325.7281105908476,1.0002251896543823,0.00046884138734393075
1325.7350551569548,1325.7350551569548,0.9997097316819821,0.00046893782449328815
1325.7419997231257,1325.7419997231257,0.9996177882207649,0.000469269128155443
1325.7489442893375,1325.7489442893375,1.0000777661872884,0.00046962615920983456
1325.755888855602,1325.755888855602,0.9996560828982313,0.0004699201027755973
1325.7628334219303,1325.7628334219303,0.9995911489880906,0.00047033210512038143
1325.7697779882876,1325.7697779882876,1.0008330439878865,0.00047087389220199644
1325.776722554709,1325.776722554709,1.0002759130348493,0.0004710763092930858
1325.7836671211712,1325.7836671211712,0.999827149204279,0.0004713304292167696
1325.7906116876798,1325.7906116876798,1.0002249406208914,0.00047174368268818105
1325.797556254241,1325.797556254241,1.0001384111683067,0.00047199189123001974
1325.804500820849,1325.804500820849,0.9997309456599455,0.00047213032485195786
1325.8114453874973,1325.8114453874973,0.9998343855312009,0.0004724083418697512
1325.8183899541923,1325.8183899541923,0.9996688465453548,0.00047253154674557123
1325.8253345209337,1325.8253345209337,1.0000675522402052,0.00047258416648474956
1325.8322790877162,1325.8322790877162,1.0013093944430846,0.00047291626026333436
1325.8392236545335,1325.8392236545335,0.9995719565431453,0.0004726920311122126
1325.846168221397,1325.846168221397,0.9997126152720371,0.00047253928936373014
1325.8531127882954,1325.8531127882954,0.9996498627822679,0.00047231885839861787
1325.860057355247,1325.860057355247,0.9991703605763893,0.0004719987320311599
1325.867001922233,1325.867001922233,1.000675925168221,0.00047184741434898385
1325.8739464892599,1325.8739464892599,1.0005464639780273,0.0004711629039835568
1325.8808910563273,1325.8808910563273,1.000170878530116,0.0004705244775234566
1325.8878356234181,1325.8878356234181,0.998983595051542,0.00046990062362618724
1325.8947801905554,1325.8947801905554,1.0002850167905162,0.00046957023085810855
1325.9017247577278,1325.9017247577278,1.0003285101621446,0.0004692095919520036
1325.908669324941,1325.908669324941,1.0002616616382014,0.0004687891883661796
1325.915613892177,1325.915613892177,0.9995941842514492,0.0004682964498981289
1325.92255845946,1325.92255845946,1.0005564637733029,0.00046811694481617243
1325.9295030267779,1325.9295030267779,0.9994765148136804,0.0004676662619100522
1325.9364475941131,1325.9364475941131,1.0005564159035558,0.0004676592276407558
1325.9433921615007,1325.9433921615007,1.0000863250613756,0.0004671735318136508
1325.950336728906,1325.950336728906,0.9996054696832593,0.00046692984299472425
1325.9572812963577,1325.9572812963577,0.9995877684013592,0.00046674196468931976
1325.9653369946286,1325.9653369946286,0.999586192010048,0.0004664949727221517
1325.9725593448388,1325.9725593448388,1.0000317886502663,0.00046637475832572294
1325.9795039123776,1325.9795039123776,1.0003763443876288,0.0004663968409922703
1325.98644847994,1325.98644847994,1.0004750968508376,0.00046640754688184315
1325.993393047543,1325.993393047543,0.9998715184922713,0.0004663052948714631
1326.0003376151697,1326.0003376151697,1.0004540766867227,0.00046629841764862806
1326.0072821828246,1326.0072821828246,0.9993840282837546,0.0004663715015733907
1326.0142267505094,1326.0142267505094,0.9995107286396869,0.0004665928693912945
1326.0211713182173,1326.0211713182173,1.000166748288999,0.00046695953899614847
1326.0281158859484,1326.0281158859484,1.0000056554919186,0.00046725480180033447
1326.0350604537143,1326.0350604537143,1.0006144780378028,0.00046722613369871324
1326.0420050215093,1326.0420050215093,1.0001261463768405,0.0004669185227438815
1326.0489495893105,1326.0489495893105,1.000433524036418,0.000466870258426334
1326.055894157152,1326.055894157152,1.0001760171845562,0.0004667514780603393
1326.0628387250053,1326.0628387250053,0.9995884951604175,0.0004666592674272605
1326.0697832928877,1326.0697832928877,0.9999361900929238,0.0004667333741900649
1326.076727860799,1326.076727860799,0.998799016265977,0.0004664915835438959
1326.0836724287226,1326.0836724287226,1.0004930276906987,0.000466601895551885
1326.090616996675,1326.090616996675,0.9999842275063697,0.00046653177261365703
1326.0975615646505,1326.0975615646505,0.9999358200827361,0.0004664125347787095
1326.1045061326436,1326.1045061326436,0.9992326515528169,0.00046616460417817155
1326.1114507006596,1326.1114507006596,1.0005382502640328,0.000466269200913318
1326.1183952686995,1326.1183952686995,1.0011349281524031,0.0004662958373747171
1326.1253398367503,1326.1253398367503,0.9997668022109263,0.00046587071707339465
1326.1322844048252,1326.1322844048252,1.0001487578998085,0.0004658199230145882
1326.1392289729288,1326.1392289729288,0.9998981151428505,0.0004656314402975162
1326.1461735410385,1326.1461735410385,0.9998538100910179,0.00046551058072980044
1326.1531181091652,1326.1531181091652,0.9997079717237934,0.0004652706087063616
1326.160062677321,1326.160062677321,0.99945797223652,0.0004651628604482514
1326.167007245489,1326.167007245489,1.0001666499184854,0.0004650700245413257
1326.1739518136735,1326.1739518136735,1.0001854802653236,0.0004648581281082348
1326.1808963818767,1326.1808963818767,1.0001363233051008,0.00046474288260898566
1326.1878409501023,1326.1878409501023,0.9998053490036224,0.0004645563253545799
1326.1947855183396,1326.1947855183396,1.0003424019573142,0.0004645277377330029
1326.2017300865775,1326.2017300865775,0.9998469218516266,0.00046426934151989495
1326.2086746548498,1326.2086746548498,0.9997927456766373,0.0004640953526966264
1326.215619223128,1326.215619223128,1.0000629590843448,0.00046397902843755016
1326.2225637914296,1326.2225637914296,0.9993466223928253,0.000463698835145023
1326.2295083597369,1326.2295083597369,1.000246382506262,0.00046375727432337703
1326.236452928056,1326.236452928056,1.0004570046694383,0.00046366037063262227
1326.2433974963978,1326.2433974963978,1.0002515378522976,0.0004634906839254842
1326.2503420647524,1326.2503420647524,0.9993363241517557,0.00046312888214671043
1326.257286633118,1326.257286633118,1.0003241420458078,0.00046314138501460606
1326.264231201501,1326.264231201501,1.0003920732856293,0.00046307210578367243
1326.271175769884,1326.271175769884,1.0004595392479305,0.00046281676421155635
1326.27812033829,1326.27812033829,0.9998859722386035,0.0004624844248641561
1326.2850649067025,1326.2850649067025,0.9991485056413401,0.0004622249567180654
1326.2920094751316,1326.2920094751316,0.9998612953271315,0.00046221815815973636
1326.2989540435672,1326.2989540435672,1.0006916518989852,0.00046216178230114107
1326.3058986120257,1326.3058986120257,0.9997441755911878,0.000461912022371757
1326.3128431804791,1326.3128431804791,0.9996458020524909,0.0004617059868023063
1326.3197877489492,1326.3197877489492,1.0004606286936124,0.000461751938133793
1326.3267323174252,1326.3267323174252,0.9998476918648173,0.00046161551876718835
1326.333676885919,1326.333676885919,0.9996177848431909,0.0004614984879026185
1326.3406214544184,1326.3406214544184,1.000434218894336,0.0004616326251414656
1326.3486771538883,1326.3486771538883,1.0000952392364246,0.00046161653151779596
1326.3572884188518,1326.3572884188518,1.0007305516048608,0.0004617083590798706
1326.3642329873805,1326.3642329873805,0.9995321482632002,0.0004615781125055096
1326.3711775559207,1326.3711775559207,1.000351359025923,0.00046173142538568366
1326.3781221244667,1326.3781221244667,0.9998881072780786,0.00046165497012824513
1326.385066693024,1326.385066693024,0.9997157271430754,0.0004615958394710158
1326.3920112615876,1326.3920112615876,1.0001251653289354,0.0004616825257877235
1326.3989558301514,1326.3989558301514,0.9993959108102658,0.00046158314896276855
1326.4059003987263,1326.4059003987263,0.9994926926088163,0.0004616276343720909
1326.4128449673137,1326.4128449673137,0.9997911386368431,0.00046166423594637266
1326.419789535906,1326.419789535906,1.000474763371301,0.00046183993338380863
1326.4267341044924,1326.4267341044924,1.0003126338330293,0.0004617841538550486
1326.4336786730967,1326.4336786730967,1.0003275117936459,0.0004617776948380984
1326.4406232417127,1326.4406232417127,0.999902579771647,0.0004616881106595149
1326.4475678103227,1326.4475678103227,1.0008554865507457,0.00046180034520713756
1326.4545123789383,1326.4545123789383,0.999845966810949,0.0004616443794905558
1326.461456947566,1326.461456947566,0.999371325897148,0.00046154427971818377
1326.4684015161934,1326.4684015161934,0.9998128776633193,0.0004616825332205357
1326.4753460848326,1326.4753460848326,1.0000467399152533,0.0004616434940504603
1326.482290653466,1326.482290653466,1.0002053249736766,0.00046176970412458996
1326.489235222111,1326.489235222111,1.000040116665951,0.00046174698673443734
1326.496179790762,1326.496179790762,0.9997773296142738,0.0004616513536147575
1326.5031243594065,1326.5031243594065,1.0007427645220008,0.0004617851291133311
1326.5100689280634,1326.5100689280634,0.9997160394750878,0.00046167049936516995
1326.5170134967257,1326.5170134967257,0.9998154189505699,0.00046167771305007967
1326.5239580653765,1326.5239580653765,1.0002828737417795,0.0004618036891613023
1326.5309026340449,1326.5309026340449,0.9997829359010414,0.00046180089702514145
1326.5378472027187,1326.5378472027187,0.9998473783857678,0.0004618231345500168
1326.544791771393,1326.544791771393,1.0003792277126728,0.0004620735090202258
1326.551736340067,1326.551736340067,0.999677680071845,0.00046210050260723855
1326.558680908741,1326.558680908741,1.0010553699222793,0.00046228393271998574
1326.565625477415,1326.565625477415,0.9995717438003467,0.0004619248925710622
1326.5725700460891,1326.5725700460891,0.9998154724039428,0.00046191032568808485
1326.5795146147634,1326.5795146147634,1.0000562026379425,0.00046191901628420243
1326.5864591834372,1326.5864591834372,1.0000077311380666,0.0004619176997148965
1326.593403752135,1326.593403752135,1.000128380578511,0.00046192220868779813
1326.6003483208146,1326.6003483208146,0.9994281849893486,0.0004618451217263883
1326.6072928894944,1326.6072928894944,1.0003091545647689,0.00046200250531770726
1326.6142374581918,1326.6142374581918,0.9998942762574604,0.00046193152526254066
1326.6211820268657,1326.6211820268657,1.0001506532549282,0.0004619148313061202
1326.6281265955633,1326.6281265955633,1.0001217346927627,0.00046181960358824783
1326.635071164243,1326.635071164243,0.9993396749732859,0.0004615826361632913
1326.6420157329346,1326.6420157329346,1.0002315138169176,0.00046161660385808146
1326.6489603016205,1326.6489603016205,0.9993210431066923,0.000461322294979271
1326.6559048703061,1326.6559048703061,1.0005281299381683,0.0004614128656684838
1326.6628494389977,1326.6628494389977,1.0005600938387116,0.00046119266292849587
1326.6697940076715,1326.6697940076715,1.0004234210147627,0.0004609738455405016
1326.6767385763749,1326.6767385763749,0.9998527030349932,0.00046073981174972554
1326.6836831450487,1326.6836831450487,0.9995372756316385,0.0004604032484863218
1326.6920166274697,1326.6920166274697,1.0007830805365519,0.0004603691010764127
1326.698961196161,1326.698961196161,0.9992440709085535,0.0004598994653076498
1326.705905764835,1326.705905764835,0.9996615979144767,0.00045971337886699935
1326.7136836817501,1326.7136836817501,0.9998917996880315,0.00045956643035516536
1326.7211838159183,1326.7211838159183,1.0002297494714385,0.00045941104250089024
1326.728128384592,1326.728128384592,1.0007255032127365,0.00045935538304181154
1326.7350729532661,1326.7350729532661,0.9997232542285254,0.0004589443097382337
1326.7420175219406,1326.7420175219406,0.9994620262054091,0.00045865515474137724
1326.748962090614,1326.748962090614,1.0002578850251223,0.00045867011626118915
1326.7559066592883,1326.7559066592883,0.999050030398057,0.0004582803497719744
1326.762851227951,1326.762851227951,1.000390812659186,0.0004582693134769011
1326.7697957966075,1326.7697957966075,1.0002851468785,0.0004581573357003302
1326.7767403652697,1326.7767403652697,1.0002032110528893,0.0004579974984763328
1326.7836849339262,1326.7836849339262,1.000169652520061,0.0004578654540276216
1326.7906295025775,1326.7906295025775,1.0004204184109855,0.0004579236246211115
1326.7975740712277,1326.7975740712277,0.9998658391044748,0.0004577125181184887
1326.8045186398735,1326.8045186398735,1.000083562402439,0.0004577579104378741
1326.8114632085178,1326.8114632085178,0.9994889870485381,0.00045768445190202625
1326.818407777157,1326.818407777157,1.0001039593849443,0.00045774666115739476
1326.8253523457904,1326.8253523457904,1.0002023367222033,0.0004577235483305559
1326.832296914424,1326.832296914424,1.0002701985534312,0.0004576904402222155
1326.8392414830455,1326.8392414830455,0.9995805639356746,0.0004575188726116901
1326.846186051673,1326.846186051673,0.9994722189707478,0.0004573558871298707
1326.8531306202945,1326.8531306202945,1.000086286786441,0.0004572832657760372
1326.8600751889105,1326.8600751889105,1.0004544515978435,0.0004572163993337299
1326.8670197575207,1326.8670197575207,1.0000079287491672,0.000456968418494293
1326.8739643261308,1326.8739643261308,0.9995122839744013,0.0004566110341225118
1326.8809088947287,1326.8809088947287,1.0003717979505038,0.00045645557069693224
1326.8878534633218,1326.8878534633218,0.9997413522988307,0.0004560501983587466
1326.8947980319197,1326.8947980319197,0.9999638894385903,0.00045576348792064224
1326.9017426005012,1326.9017426005012,0.9998641995679989,0.00045535258130702944
1326.9086871690877,1326.9086871690877,1.0004579671722373,0.000455120129313079
1326.9156317376628,1326.9156317376628,1.0003260751428225,0.0004546610614199604
1326.922576306232,1326.922576306232,0.9995600639311922,0.0004541659899033329
1326.9295208747958,1326.9295208747958,1.0000643569530854,0.00045391196928765907
1326.936465443359,1326.936465443359,1.0006355559980098,0.0004536218168465874
1326.9434100119165,1326.9434100119165,0.999430754171156,0.0004531335354700947
1326.950354580463,1326.950354580463,1.0002393895221,0.00045295642185450377
1326.957299149003,1326.957299149003,1.000057633509623,0.0004525778112440316
1326.9642437175316,1326.9642437175316,0.9995087203318874,0.00045211522267019555
1326.9711882860602,1326.9711882860602,0.999581469946707,0.0004519601142889058
1326.9781328545885,1326.9781328545885,1.0001707797809152,0.0004518505903329562
1326.9850774231174,1326.9850774231174,1.0000683397817525,0.00045154532899625296
1326.9920219916285,1326.9920219916285,1.0004535926462146,0.00045144590864699426
1326.9989665601338,1326.9989665601338,1.0003137924429528,0.00045119394525506846
1327.0059111286332,1327.0059111286332,1.0003277766237437,0.0004511607795926127
1327.0128556971267,1327.0128556971267,0.9997762628754412,0.0004509338733120349
1327.0198002656084,1327.0198002656084,0.9994562697254541,0.0004507751835430409
1327.0267448340906,1327.0267448340906,0.9999855101652388,0.0004508803665637721
1327.033689402561,1327.033689402561,0.9998627305115534,0.00045082349832245355
1327.040633971025,1327.040633971025,0.9998425914104505,0.00045068756958788236
1327.0475785394901,1327.0475785394901,0.9998423316619451,0.00045071775846311686
1327.0545231079311,1327.0545231079311,0.9999757062040964,0.0004507031656304594
1327.0625788073257,1327.0625788073257,1.0004137072240624,0.00045079647970043036
1327.0698011584961,1327.0698011584961,1.000378177970963,0.0004508370236456214
