time,time,flux,flux_err
1544.4447348302367,1544.4447348302367,0.9999475452097459,0.00017111286231945123
1544.45306826298,1544.45306826298,0.9999977892518821,0.00017088660041615194
1544.4607072428876,1544.4607072428876,0.9997466753636391,0.00015581415972569767
1544.4676517701605,1544.4676517701605,1.0000584002833974,0.0001557167185600892
1544.474596297248,1544.474596297248,1.0001058676770982,0.00015564447378231276
1544.4815408244278,1544.4815408244278,1.0002190887323834,0.00015555401429383832
1544.4884853516076,1544.4884853516076,1.0000418159847333,0.00015547402308985865
1544.4954298786947,1544.4954298786947,1.0003256457635261,0.00015543800312618186
1544.5023744056884,1544.5023744056884,0.9997785258044969,0.0001553467869268844
1544.5093189327754,1544.5093189327754,0.9999042133106176,0.0001552478697184302
1544.5162634597696,1544.5162634597696,1.0000154130175587,0.00015523140909767368
1544.5232079866703,1544.5232079866703,0.9998362956290856,0.00015516754598706234
1544.530152513664,1544.530152513664,1.000021510683886,0.00015518605693738187
1544.537097040658,1544.537097040658,1.0001267328985586,0.00015511175009428295
1544.5440415674652,1544.5440415674652,1.0000913508871652,0.00015509426986006698
1544.550986094273,1544.550986094273,0.99990242898419,0.0001550134969614644
1544.5579306210802,1544.5579306210802,1.0001367206808356,0.00015502412264505763
1544.564875147888,1544.564875147888,0.9998855951010587,0.00015490977473069063
1544.5718196746025,1544.5718196746025,0.9999989037399247,0.00015490259043846665
1544.5787642014097,1544.5787642014097,0.9999349140939688,0.0001548504024187321
1544.5857087280312,1544.5857087280312,0.999989682907447,0.00015479656877703335
1544.5926532545593,1544.5926532545593,0.9997584754336195,0.00015471279879263197
1544.5995977811806,1544.5995977811806,1.0003339114381784,0.000154745794229535
1544.6065423077084,1544.6065423077084,0.9998329369937146,0.00015466345845014488
1544.6134868343302,1544.6134868343302,1.0005369031299591,0.0001546701435953841
1544.620431360765,1544.620431360765,1.0000241617160393,0.00015460995889396485
1544.6273758872,1544.6273758872,1.000128109460913,0.00015459312819236313
1544.634320413635,1544.634320413635,0.9998637008238737,0.00015455150909064475
1544.6420982832128,1544.6420982832128,0.9999690690540838,0.0001545344822778227
1544.649598371494,1544.649598371494,1.0000269065917462,0.0001544588802303227
1544.656542897836,1544.656542897836,1.0000388439710108,0.00015447771034691926
1544.6634874240847,1544.6634874240847,1.0001921128029607,0.0001544620436234027
1544.6704319502403,1544.6704319502403,0.9999234343572259,0.00015442180090701263
1544.677376476396,1544.677376476396,0.999767366263038,0.00015436045555676238
1544.6843210024585,1544.6843210024585,0.9998861000401593,0.00015433670241323785
1544.691265528521,1544.691265528521,1.0002106012366714,0.0001543105571276267
1544.6982100545836,1544.6982100545836,1.0000908969501574,0.0001542819905091321
1544.7051545805527,1544.7051545805527,0.9999827818700494,0.0001541995952253293
1544.712099106429,1544.712099106429,0.9996335081835056,0.00015415451132093626
1544.7190436323053,1544.7190436323053,1.000117988978936,0.00015416526000273036
1544.7259881581813,1544.7259881581813,1.0001383848758736,0.00015408145293469797
1544.7329326840577,1544.7329326840577,1.000002572551259,0.00015408856599355972
1544.7398772097476,1544.7398772097476,1.000103682743476,0.00015406363408435156
1544.7468217353444,1544.7468217353444,0.9996073121634703,0.00015398035952170243
1544.7537662611278,1544.7537662611278,1.0002695118228682,0.00015400221544266588
1544.760710786631,1544.760710786631,1.0000289037647097,0.00015396710527872497
1544.767655312042,1544.767655312042,1.0000074364902392,0.00015393328994903319
1544.7745998379182,1544.7745998379182,1.0001271020231381,0.00015390859850739348
1544.7815443633285,1544.7815443633285,0.9999320649236338,0.00015390007353731532
1544.788488888739,1544.788488888739,0.9997936020508525,0.00015385916585967913
1544.7954334141498,1544.7954334141498,1.0001068186087814,0.00015381959252247818
1544.8023779390946,1544.8023779390946,1.000105147652539,0.00015381118458324868
1544.809322464505,1544.809322464505,0.9999499430274768,0.00015372130129062225
1544.816266989823,1544.816266989823,0.9999384386102441,0.0001537229032850723
1544.8232115148603,1544.8232115148603,0.9999549529912702,0.00015369129821949377
1544.8301560399918,1544.8301560399918,0.9999725095147858,0.00015366232331683987
1544.837100565123,1544.837100565123,1.000086167491944,0.00015364790744456873
1544.8440450900678,1544.8440450900678,1.0002202744598554,0.00015361995188395728
1544.8509896150128,1544.8509896150128,1.0001318242334372,0.00015357348177387297
1544.8579341398645,1544.8579341398645,0.9995960488832051,0.00015350317487016914
1544.8648786648093,1544.8648786648093,1.000059599199271,0.00015345319740442306
1544.871823189568,1544.871823189568,1.000086801930549,0.00015341464685917564
1544.8787677142332,1544.8787677142332,1.0002119393901967,0.00015341323365201674
1544.8857122390853,1544.8857122390853,0.9999159331380543,0.00015333094413132477
1544.8926567636577,1544.8926567636577,0.999987378190224,0.00015327844819002268
1544.8996012881369,1544.8996012881369,0.9999274821497265,0.0001532361501522326
1544.9065458127095,1544.9065458127095,0.9999766753195092,0.00015320234674302626
1544.9134903371883,1544.9134903371883,1.0001968318281385,0.00015319729835034718
1544.9204348616677,1544.9204348616677,1.0000017858670573,0.00015315000191390353
1544.9273793859604,1544.9273793859604,0.9997788437547415,0.00015306074008103815
1544.9343239103468,1544.9343239103468,0.999985128891225,0.0001531111723198246
1544.9412684346394,1544.9412684346394,1.0000411825986844,0.00015302229565841713
1544.9482129586534,1544.9482129586534,1.0002541054629028,0.00015299326348775622
1544.9551574828529,1544.9551574828529,0.9998292663682017,0.0001528887324061389
1544.96210200696,1544.96210200696,0.999948650730137,0.0001528815270950013
1544.9690465309732,1544.9690465309732,0.9997937239350115,0.00015284470916359692
1544.975991054987,1544.975991054987,1.0000913111213525,0.00015281174203973466
1544.9829355788145,1544.9829355788145,0.9999821471951338,0.00015279020938219646
1544.9898801026416,1544.9898801026416,0.9998696126902769,0.00015271852305455874
1544.9968246264689,1544.9968246264689,1.000218921032785,0.00015267385729734345
1545.0037691502032,1545.0037691502032,0.9997572720810824,0.0001526161900893006
1545.0107136738438,1545.0107136738438,1.000248951164949,0.00015261583527227088
1545.0176581974852,1545.0176581974852,1.000233832165235,0.00015258980294946493
1545.0246027210328,1545.0246027210328,0.9999392498812287,0.00015252232476118877
1545.0315472445807,1545.0315472445807,0.9998844358210361,0.00015252431892634512
1545.0384917679428,1545.0384917679428,0.9998811483774876,0.00015245478221570502
1545.045436291211,1545.045436291211,1.0000709971045936,0.00015244618606477628
1545.052380814759,1545.052380814759,0.9999398239643341,0.0001524126761510501
1545.059325337841,1545.059325337841,1.0000776647460161,0.00015237047935938908
1545.0662698609235,1545.0662698609235,0.9999732391174513,0.0001523250225297335
1545.0732143840057,1545.0732143840057,0.9997296316300371,0.00015229396042263244
1545.080158907088,1545.080158907088,1.0001892526430025,0.0001522707345501582
1545.0871034301701,1545.0871034301701,0.9997390643782612,0.00015218241523984959
1545.0940479532524,1545.0940479532524,0.9998296616607034,0.00015216940962298477
1545.1009924761481,1545.1009924761481,0.9998303286137471,0.00015216122111426134
1545.1079369989513,1545.1079369989513,1.000162198437431,0.00015212499368556228
1545.114881521661,1545.114881521661,1.0004736276986377,0.00015213921294180552
1545.1218260443707,1545.1218260443707,1.0001360059791904,0.00015208165057711967
1545.128770566987,1545.128770566987,0.9999491872666443,0.00015200386730832228
1545.135715089604,1545.135715089604,1.0002075482735875,0.00015202460141989726
1545.1426596121273,1545.1426596121273,0.9998247122877897,0.00015193605804401908
1545.1496041344642,1545.1496041344642,0.9999801999696825,0.0001519573027649291
1545.156548656988,1545.156548656988,0.9998026184826285,0.00015187731437083662
1545.1634931792319,1545.1634931792319,0.9996127216638617,0.0001518688827451425
1545.170437701383,1545.170437701383,0.9997603811343645,0.0001518375290087385
1545.1773822236269,1545.1773822236269,1.000134940199334,0.00015183387994755477
1545.1843267457778,1545.1843267457778,1.0000530637159661,0.00015181877176145955
1545.1912712678359,1545.1912712678359,1.0003181097099523,0.00015180000795966375
1545.1982157898005,1545.1982157898005,1.0001305245809222,0.00015173572000047706
1545.2051603117648,1545.2051603117648,1.0000491085271197,0.00015168866814053815
1545.2121048336362,1545.2121048336362,0.9998760479171709,0.0001516813399866852
1545.2190493553214,1545.2190493553214,1.000239177214981,0.0001516900955058406
1545.2259938770999,1545.2259938770999,1.0000424833012427,0.00015162599697898625
1545.2329383987849,1545.2329383987849,0.9997203274959403,0.00015162231135286744
1545.2398829202841,1545.2398829202841,0.9999725131891196,0.0001516204759218584
1545.2468274417831,1545.2468274417831,1.000069746032673,0.00015160044721076988
1545.2537719633754,1545.2537719633754,0.9997796382331527,0.0001515909985401143
1545.2607164846881,1545.2607164846881,0.9999478300090384,0.00015160868083374893
1545.267661006001,1545.267661006001,1.0000891819135014,0.00015158269241593303
1545.2746055273135,1545.2746055273135,0.999749141145679,0.0001515578660302636
1545.281550048533,1545.281550048533,1.0002340094005766,0.0001515595305152741
1545.2884945696594,1545.2884945696594,0.9999546381093574,0.00015151518473408156
1545.2954390906,1545.2954390906,1.0000903506322474,0.00015149944768602736
1545.3023836117263,1545.3023836117263,1.000027103520755,0.00015148381851732084
1545.3093281324805,1545.3093281324805,0.9999739909943492,0.00015145868431040783
1545.3162726532344,1545.3162726532344,0.9998546523681583,0.00015137938502410216
1545.3232171739883,1545.3232171739883,0.999842230670539,0.00015139475049981234
1545.3301616947417,1545.3301616947417,1.0003510326195584,0.00015138162491779174
1545.337106215496,1545.337106215496,1.000248375754635,0.00015138364965807617
1545.3440507362498,1545.3440507362498,1.0000501191486044,0.00015133262192786867
1545.3509952565382,1545.3509952565382,0.9998943357800811,0.0001513024306396032
1545.357939777106,1545.357939777106,1.0000849755107453,0.00015130276719203518
1545.364884297487,1545.364884297487,0.9999856117498656,0.00015125654184620812
1545.3718288177756,1545.3718288177756,0.999942802533211,0.00015125357532433652
1545.3787733379709,1545.3787733379709,0.9997231817837628,0.00015123051980260629
1545.3857178581654,1545.3857178581654,1.0001794257674745,0.00015122628168520632
1545.3926623781747,1545.3926623781747,0.9998175661449411,0.00015121260051133875
1545.3996068982765,1545.3996068982765,1.0000867017438035,0.00015121847540834334
1545.4065514181923,1545.4065514181923,0.9999829117343106,0.00015118458481590058
1545.4134959380149,1545.4134959380149,0.9997993021513245,0.00015115966206920674
1545.4204404578372,1545.4204404578372,0.9999160021728614,0.00015113415320038224
1545.4273849775668,1545.4273849775668,1.0002301878093753,0.0001511442583592368
1545.4343294972964,1545.4343294972964,1.000061542991719,0.00015110108232707574
1545.441274016933,1545.441274016933,1.0001670202096897,0.00015108129034304256
1545.4482185362897,1545.4482185362897,1.00003667781213,0.00015106321998467552
1545.4551630558333,1545.4551630558333,0.9999667167770188,0.00015103224883930666
1545.4621075751895,1545.4621075751895,0.999587995421134,0.00015098674263162133
1545.4690520944537,1545.4690520944537,1.0002267184954274,0.00015101549500636056
1545.4759966136244,1545.4759966136244,0.999816038794339,0.00015096057825813685
1545.4829411328878,1545.4829411328878,0.9999898516082689,0.00015095918528035444
1545.4898856518726,1545.4898856518726,0.9999751872470807,0.00015094523026584116
1545.49683017095,1545.49683017095,1.0004387069303042,0.00015098723972425363
1545.5037746899347,1545.5037746899347,0.9998214172041007,0.0001509230125355495
1545.5107192087326,1545.5107192087326,1.000014954798467,0.00015095263660838405
1545.517663727624,1545.517663727624,1.000162565927967,0.00015094933970138344
1545.5246082462359,1545.5246082462359,0.9996767061053285,0.0001509208693473778
1545.5315527649407,1545.5315527649407,1.0000654323846936,0.000150935531539183
1545.5384972833665,1545.5384972833665,0.9998733304901821,0.00015094012446940368
1545.545441801792,1545.545441801792,1.0002464270073363,0.00015096564865162487
1545.5523863202175,1545.5523863202175,1.0000440306021534,0.00015092665195304487
1545.5593308386433,1545.5593308386433,0.9999237977463137,0.00015091936352425715
1545.5662753570691,1545.5662753570691,0.9997871463980992,0.00015090080070608914
1545.5732198753085,1545.5732198753085,1.0003828965196675,0.00015096172905513418
1545.5801643934542,1545.5801643934542,1.0000512136112705,0.00015092597492847023
1545.5871089114146,1545.5871089114146,0.9997674329035806,0.00015090969146773953
1545.5940534294673,1545.5940534294673,1.000068635819563,0.00015092644208968616
1545.6009979473342,1545.6009979473342,0.9999006447292956,0.0001509236696720081
1545.6079424651077,1545.6079424651077,1.0000579514238557,0.00015095002329813811
1545.6148869829744,1545.6148869829744,1.0001033872032319,0.00015094017547344108
1545.6218315005622,1545.6218315005622,0.9998383652384387,0.00015091042778333916
1545.6287760182427,1545.6287760182427,0.9997970880749965,0.00015088957855030762
1545.635720535737,1545.635720535737,0.9998585554003462,0.00015089799436609255
1545.6426650532317,1545.6426650532317,1.0001679040749438,0.00015092255473986836
1545.6496095706323,1545.6496095706323,1.0001674961882023,0.00015094450179306936
1545.6565540878473,1545.6565540878473,1.000267957163093,0.00015092844201160678
1545.6634986051554,1545.6634986051554,0.9999143864691209,0.0001509171418586501
1545.670443122277,1545.670443122277,0.9998682537112528,0.00015091172772588942
1545.6773876393993,1545.6773876393993,1.0001431553111633,0.0001509491337788387
1545.6843321563344,1545.6843321563344,0.9999416952455267,0.0001509136352295813
1545.6912766733628,1545.6912766733628,0.9998529599631055,0.00015090107247352672
1545.6982211901122,1545.6982211901122,0.9997519888217561,0.00015089401685986417
1545.7051657068616,1545.7051657068616,0.9999631307086254,0.0001509257447206293
1545.7121102236104,1545.7121102236104,1.0002879296890743,0.0001509436776669692
1545.719054740267,1545.719054740267,1.0000756190006328,0.00015093949409719832
1545.7259992567365,1545.7259992567365,1.000117222192836,0.00015095917598059516
1545.7329437732064,1545.7329437732064,1.0000759155938805,0.00015093610170841662
1545.7398882897694,1545.7398882897694,0.9998745682895145,0.0001509460097967455
1545.746832805867,1545.746832805867,0.9997713315574572,0.0001509622374375901
1545.7537773222436,1545.7537773222436,0.9997957532994718,0.0001509165456813813
1545.760721838527,1545.760721838527,1.0000196477272376,0.00015092226538012174
1545.767666354624,1545.767666354624,1.000141987563461,0.00015092551240919986
1545.774610870349,1545.774610870349,1.0001758268716352,0.0001509401414695127
1545.7815553863531,1545.7815553863531,1.0001981032235747,0.00015094781008047957
1545.7884999022642,1545.7884999022642,0.9997604282586771,0.00015090394076571352
1545.795444418082,1545.795444418082,1.0002227678449878,0.00015096739527517826
1545.8023889337135,1545.8023889337135,1.0000064610495163,0.00015092657252086347
1545.8093334492526,1545.8093334492526,0.9998368372619455,0.00015092509987550077
1545.8162779647905,1545.8162779647905,0.9999291186838111,0.0001509294586607564
1545.8232224803294,1545.8232224803294,0.9997713888123329,0.0001509210963226631
1545.8301669956813,1545.8301669956813,1.0000253604246698,0.00015094758375159021
1545.8371115109405,1545.8371115109405,1.0001115072218791,0.000150945524496664
1545.8440560261995,1545.8440560261995,1.0001743775440946,0.00015096804999678085
1545.851000541366,1545.851000541366,1.000180408495566,0.00015095101266077968
1545.8579450564387,1545.8579450564387,1.0000670050397193,0.00015096083052898234
1545.8648895715116,1545.8648895715116,0.9997908500525792,0.00015090682586308443
1545.8718340863982,1545.8718340863982,0.9998632290610713,0.00015092540753813033
1545.8787786010985,1545.8787786010985,0.9999276720114946,0.00015093675603485503
1545.8857231158916,1545.8857231158916,1.0000632191156344,0.0001509147652280363
1545.8926676305919,1545.8926676305919,0.9997791487247157,0.00015090843419868875
1545.8996121452924,1545.8996121452924,1.0000347990789682,0.00015092717611211746
1545.9065566596203,1545.9065566596203,1.0001693217678747,0.00015095916546410587
1545.9135011742273,1545.9135011742273,1.0001024314787295,0.00015093907399708282
1545.9204456884618,1545.9204456884618,1.0000595349787116,0.0001509274522665758
1545.9273902027899,1545.9273902027899,1.000197168822173,0.00015094120247888314
1545.934334717024,1545.934334717024,1.0000392102476652,0.0001509067390485865
1545.9412792310727,1545.9412792310727,0.999935742269415,0.00015091903051289368
1545.9482237452141,1545.9482237452141,0.9997455011225039,0.00015090189016952576
1545.9551682589833,1545.9551682589833,0.9997311793246098,0.00015091343143698677
1545.9621127729383,1545.9621127729383,1.0000053314248531,0.00015094062225397433
1545.969057286987,1545.969057286987,1.0001100942053855,0.0001509503612736508
1545.9760018002903,1545.9760018002903,1.0000527695590773,0.0001509543466635421
1545.9829463140593,1545.9829463140593,1.000187508048115,0.00015098080178877133
1545.989890827735,1545.989890827735,0.9998737399963907,0.00015093229772708243
1545.9968353411316,1545.9968353411316,1.0000754176032127,0.00015094815788464197
1546.003779854528,1546.003779854528,1.0001909787917387,0.00015095722393731583
1546.0107243679245,1546.0107243679245,0.999796849468054,0.00015094296120378122
1546.0176688811346,1546.0176688811346,1.0000470229835023,0.00015093586992829272
1546.0246133942517,1546.0246133942517,0.9998873566309576,0.00015092659168248958
1546.0315579073686,1546.0315579073686,1.0000416605884461,0.00015093340443430797
1546.0385024202997,1546.0385024202997,1.0000414196666578,0.0001509360897698054
1546.0454469332303,1546.0454469332303,1.0001868668218175,0.00015094788576824962
1546.0523914460678,1546.0523914460678,0.9998083269038691,0.00015094143928425419
1546.0593359589056,1546.0593359589056,0.999886706966787,0.0001509188035299516
1546.0662804714636,1546.0662804714636,0.9999780363196937,0.00015096772089388954
1546.0732249841153,1546.0732249841153,0.9996874988757737,0.00015091889909789945
1546.0801694965808,1546.0801694965808,1.0002174016453957,0.00015096309775254873
1546.0871140090453,1546.0871140090453,1.0002941435479789,0.00015099141730962143
1546.0940585213245,1546.0940585213245,1.000014764357423,0.00015094829908865733
1546.10100303351,1546.10100303351,1.000093707116295,0.00015100360856748973
1546.1079475457889,1546.1079475457889,1.0000497518229143,0.00015098362220082373
1546.1148920578817,1546.1148920578817,0.9998632163366207,0.0001509503316490391
1546.121836569974,1546.121836569974,0.999845577331528,0.0001509458768021333
1546.1287810817873,1546.1287810817873,1.0002783510257722,0.00015098096788605103
1546.1357255936937,1546.1357255936937,0.999637488176625,0.00015091972842108025
1546.1426701055068,1546.1426701055068,0.9999386080106956,0.000150959400901295
1546.1496146170407,1546.1496146170407,0.9999012181531196,0.00015095510232962641
1546.156559128854,1546.156559128854,1.0001418860410909,0.00015094985424871
1546.1635036403875,1546.1635036403875,1.0000000151808537,0.00015096542918652616
1546.1704481518286,1546.1704481518286,1.0001377693491453,0.00015095716226842462
1546.1773926631759,1546.1773926631759,0.9998983111763093,0.00015094764186588931
1546.184337174244,1546.184337174244,0.9998545748058619,0.00015098018495166287
1546.1912816855915,1546.1912816855915,1.000008869446678,0.00015095681462040065
