time,time,flux,flux_err
1570.684112935438,1570.684112935438,0.9999215123482798,0.0002080557905396521
1570.6924464155402,1570.6924464155402,1.0001155748530872,0.00020783965915018116
1570.7007798957204,1570.7007798957204,1.00001799378859,0.00020772555162972326
1570.7084189191032,1570.7084189191032,0.9998388541408051,0.00018941664893400305
1570.7153634860288,1570.7153634860288,0.9999812939780067,0.00018929342310928073
1570.722308053047,1570.722308053047,1.0001652601253754,0.00018922196777132854
1570.7292526197862,1570.7292526197862,1.0003037084674056,0.0001890347221409347
1570.7361971868982,1570.7361971868982,1.0000889311969212,0.00018886202984870755
1570.7431417537314,1570.7431417537314,0.9997605640273936,0.00018872845497659756
1570.750086320936,1570.750086320936,1.0000880734034376,0.00018855160804568752
1570.7570308878617,1570.7570308878617,0.9997614946489056,0.0001884058271217095
1570.7639754548798,1570.7639754548798,0.9998098876980211,0.00018822154702989358
1570.7709200220847,1570.7709200220847,1.000286443091194,0.00018815590030653718
1570.7778645892909,1570.7778645892909,1.000458402061739,0.00018801849461694587
1570.7848091564952,1570.7848091564952,1.0000159654139624,0.00018790341620620606
1570.7917537237001,1570.7917537237001,0.9999473978643181,0.00018780466937384134
1570.7986982909047,1570.7986982909047,1.0001581459633584,0.00018770981857980148
1570.8056428581094,1570.8056428581094,0.9996354615346753,0.0001875515252499819
1570.8125874253158,1570.8125874253158,1.0001486308688914,0.00018750602279170886
1570.8195319925203,1570.8195319925203,0.9996988030853761,0.00018731412695612725
1570.8264765601903,1570.8264765601903,0.9996197332759452,0.00018722732560514518
1570.8334211273952,1570.8334211273952,0.9998674782010983,0.00018721129524143574
1570.8403656946,1570.8403656946,1.0002921169884071,0.00018717097304394721
1570.8473102622715,1570.8473102622715,1.0003357633856917,0.0001870895387079166
1570.8542548294765,1570.8542548294765,1.0001006589227,0.00018692309299140443
1570.8611993970535,1570.8611993970535,1.000080116312852,0.00018689061814393564
1570.8681439643515,1570.8681439643515,0.9997790225930633,0.00018682109972186926
1570.875088532022,1570.875088532022,0.999959110401948,0.0001867349561322313
1570.8831442302599,1570.8831442302599,0.9999443709715067,0.0001867257844447921
1570.8903665804323,1570.8903665804323,1.0000858062327695,0.0001866311608970073
1570.8973111480095,1570.8973111480095,0.9997170324063474,0.00018651889188693366
1570.9042557155867,1570.9042557155867,1.000036441970291,0.00018649570587016414
1570.9112002831641,1570.9112002831641,0.9999158119722743,0.0001864382745705066
1570.9181448507427,1570.9181448507427,1.0001534799125553,0.00018636239352584248
1570.9250894183199,1570.9250894183199,0.9995809547343342,0.00018628424434755558
1570.93203398599,1570.93203398599,1.0000834209280112,0.00018613132641645517
1570.9389785536605,1570.9389785536605,1.000230014376867,0.00018618741421779045
1570.9459231213311,1570.9459231213311,1.0000147969727533,0.00018606186863050333
1570.9528676890027,1570.9528676890027,1.0000280006806048,0.00018596203718576892
1570.959812256673,1570.959812256673,1.0000822632728792,0.00018595574730727465
1570.9667568243433,1570.9667568243433,0.999737428054123,0.00018581234749554773
1570.9737013920142,1570.9737013920142,1.0002127354035903,0.00018574264043855378
1570.9806459597776,1570.9806459597776,1.0004712372590228,0.0001857257405379051
1570.987590527449,1570.987590527449,0.9996243718670286,0.00018564293592152642
1570.9945350952125,1570.9945350952125,0.9998602580516689,0.00018554510096592167
1571.001479662976,1571.001479662976,0.9998521621626223,0.0001854626677661078
1571.0084242307396,1571.0084242307396,0.9997269906537584,0.0001854051689238319
1571.0153687985032,1571.0153687985032,1.0004131214924143,0.0001853083879719303
1571.0223133662676,1571.0223133662676,1.0003819879171139,0.00018525316242450266
1571.0292579340316,1571.0292579340316,1.0001995941785546,0.0001851759278337155
1571.036202501795,1571.036202501795,1.0001485198037088,0.00018510202417311732
1571.0431470696512,1571.0431470696512,1.000666754183174,0.0001851061511925172
1571.0500916374149,1571.0500916374149,0.9994727411096024,0.00018478262255184705
1571.0570362052727,1571.0570362052727,0.9997739681554243,0.00018479824677841318
1571.0639807731295,1571.0639807731295,1.0000112461765205,0.00018475703702430796
1571.0709253408932,1571.0709253408932,0.9998697540969694,0.00018468815881844789
1571.07786990875,1571.07786990875,0.9999929588786515,0.00018457072445141512
1571.0848144766064,1571.0848144766064,0.99993249483852,0.0001845229919861186
1571.0917590443705,1571.0917590443705,0.9999549644694028,0.00018446489174740196
1571.0987036122278,1571.0987036122278,0.9998965068857544,0.00018440478832221685
1571.1056481800845,1571.1056481800845,1.0000402307717695,0.00018433012890024849
1571.1125927479413,1571.1125927479413,1.0003347514786594,0.0001842733081113789
1571.1195373157045,1571.1195373157045,1.0000931631224377,0.00018418005891722956
1571.1264818836546,1571.1264818836546,0.9996026752682869,0.00018406255594260367
1571.1334264514192,1571.1334264514192,1.0001123827553398,0.00018405348315307955
1571.140371019369,1571.140371019369,1.0000712951664288,0.00018400941748197359
1571.1473155871329,1571.1473155871329,1.0001039338146682,0.0001839509010215504
1571.1542601549893,1571.1542601549893,0.999841199152675,0.0001838743521737767
1571.161204722846,1571.161204722846,0.9997892249917995,0.0001838342190805365
1571.1681492907035,1571.1681492907035,0.9997686899550411,0.000183782078958921
1571.1750938584676,1571.1750938584676,1.0003784809511245,0.00018373986715478774
1571.1820384264172,1571.1820384264172,1.0004504724967596,0.00018373770469712995
1571.1889829941806,1571.1889829941806,0.9999979978024109,0.00018366029616931383
1571.1959275620372,1571.1959275620372,0.9999653456828375,0.00018360114662564002
1571.202872129895,1571.202872129895,0.9998462213828324,0.0001835845434644807
1571.2098166976589,1571.2098166976589,0.999816790948795,0.00018354439933487428
1571.2167612656087,1571.2167612656087,1.0002361133102426,0.00018357078420633673
1571.223705833372,1571.223705833372,0.99971524125878,0.00018341936961979022
1571.2306504011353,1571.2306504011353,1.0000878032734442,0.00018347224407620863
1571.2375949689927,1571.2375949689927,0.9999111517460261,0.00018341967173079112
1571.24453953685,1571.24453953685,1.0000735759481638,0.00018340980828981588
1571.2514841046136,1571.2514841046136,1.000254890846191,0.0001833642223170657
1571.2584286723772,1571.2584286723772,0.9997082937166525,0.00018333253343450382
1571.2653732402334,1571.2653732402334,1.000173057009921,0.00018329535804633362
1571.2723178079973,1571.2723178079973,0.9999551970406404,0.00018323350012624604
1571.2792623757618,1571.2792623757618,0.9998437797515054,0.00018316883979519594
1571.2862069435255,1571.2862069435255,1.0001689487801735,0.00018318593024422338
1571.2931515111961,1571.2931515111961,0.9998067907382462,0.00018312804085639516
1571.3000960790523,1571.3000960790523,0.9998935763180181,0.00018313558715374792
1571.307040646723,1571.307040646723,1.0001165586848475,0.00018304471209374155
1571.3139852144873,1571.3139852144873,0.9999278637416295,0.00018301325468977287
1571.3209297821581,1571.3209297821581,1.000030793392281,0.0001829528836880119
1571.3278743499218,1571.3278743499218,1.0001840159453743,0.00018290647006396915
1571.3348189175922,1571.3348189175922,1.0001327352073461,0.0001828602205724942
1571.3417634852626,1571.3417634852626,1.0000707118352274,0.00018284772419309848
1571.3487080530263,1571.3487080530263,1.0000384900198438,0.00018277111050785835
1571.3556526206976,1571.3556526206976,0.9998802433017836,0.00018275801963443778
1571.362597188275,1571.362597188275,0.9995982062461778,0.00018268088316044327
1571.3695417559454,1571.3695417559454,1.000174514664282,0.0001826467177559589
1571.3764863236156,1571.3764863236156,1.000089302531365,0.0001826347298884307
1571.383430891193,1571.383430891193,1.0001312738872847,0.00018263012988394166
1571.390375458771,1571.390375458771,0.9999535879244433,0.00018260208453414048
1571.3973200263488,1571.3973200263488,0.9999388718081967,0.00018254028453083154
1571.4042645940194,1571.4042645940194,1.0000808373402317,0.0001825043942207474
1571.411209161596,1571.411209161596,0.9997539884375926,0.0001824629331901864
1571.4181537290804,1571.4181537290804,1.000080677041968,0.00018243915191481792
1571.4250982965646,1571.4250982965646,0.9999736767177264,0.00018234869251089225
1571.432042864236,1571.432042864236,1.0001189229991776,0.00018239092269064372
1571.4389874317205,1571.4389874317205,0.999892905728812,0.00018235609678018952
1571.445931999111,1571.445931999111,0.9995751796748573,0.00018226874525761647
1571.4528765667817,1571.4528765667817,1.0004641230540603,0.0001822990327314707
1571.4598211340797,1571.4598211340797,0.9998978285950478,0.00018228665150799389
1571.4667657016573,1571.4667657016573,1.0002454807062158,0.00018231840449289263
1571.4737102688628,1571.4737102688628,0.9997060824005324,0.00018220281486460357
1571.4806548365332,1571.4806548365332,1.0003295352454598,0.0001822763812989307
1571.487599403738,1571.487599403738,1.000030124432517,0.00018224839464374727
1571.4945439712224,1571.4945439712224,0.999931213551134,0.00018222908904319567
1571.5014885386133,1571.5014885386133,0.9999257204687367,0.00018222073165213826
1571.5084331058192,1571.5084331058192,1.0001260418259705,0.00018225660709634945
1571.5153776731172,1571.5153776731172,0.9998114985691984,0.0001822426208140838
1571.5223222406942,1571.5223222406942,0.9999024354034687,0.00018219980183487987
1571.5292668078987,1571.5292668078987,0.9999886033938115,0.00018221801504075618
1571.5362113751037,1571.5362113751037,0.9999596885575801,0.00018221909928244618
1571.543155942309,1571.543155942309,1.000308557683089,0.0001822419902758478
1571.5501005095143,1571.5501005095143,0.999651600026503,0.00018216163101071055
1571.5570450767189,1571.5570450767189,0.9999647897901853,0.0001822035367698661
1571.5639896439238,1571.5639896439238,1.0002018397019814,0.0001822080465361245
1571.5709342111284,1571.5709342111284,0.9999950661126347,0.00018224621515962767
1571.577878778333,1571.577878778333,1.0001525493912418,0.0001822275342922226
1571.5848233455392,1571.5848233455392,1.0000081781317656,0.00018212285707230083
1571.5917679125573,1571.5917679125573,0.9998396540243266,0.0001821660840732548
1571.5987124794829,1571.5987124794829,1.000097026772371,0.00018215704186783029
1571.6056570466876,1571.6056570466876,0.9998257071136765,0.0001821215837597403
1571.6126016137991,1571.6126016137991,1.0000804519833604,0.00018212703669802849
1571.619546180632,1571.619546180632,1.0001412438431156,0.00018213367462063308
1571.6264907478376,1571.6264907478376,1.0001244346914961,0.00018216696159534455
1571.6334353145764,1571.6334353145764,0.9998856374738496,0.00018211401855376192
1571.6403798816882,1571.6403798816882,0.9998132734927603,0.0001820860236500545
1571.64732444852,1571.64732444852,0.9999972826739365,0.00018217739213808166
1571.6542690154456,1571.6542690154456,1.0001091541261218,0.0001820998511188775
1571.6612135824648,1571.6612135824648,0.9998125457965503,0.00018209918794928338
1571.6681581492044,1571.6681581492044,0.9999585948076343,0.00018211735331718704
1571.6751027160367,1571.6751027160367,1.000033715398542,0.0001821102764921323
1571.682047282869,1571.682047282869,1.0001918336773625,0.00018206681934491973
1571.6889918496076,1571.6889918496076,0.999960896545861,0.00018206927775132054
1571.69593641644,1571.69593641644,1.0001988434293398,0.000182070624638646
1571.7028809831804,1571.7028809831804,1.0000858823944951,0.00018200446060514795
1571.7098255498263,1571.7098255498263,1.0000763396895154,0.00018199885466948623
1571.7167701165654,1571.7167701165654,0.999907028077651,0.00018196181905853341
1571.723714683211,1571.723714683211,1.0002259012952184,0.0001819732809631038
1571.730659249764,1571.730659249764,0.9998868695264953,0.00018195176553514652
1571.7376038164105,1571.7376038164105,1.0002168240038167,0.00018197566630043935
1571.7445483830572,1571.7445483830572,0.9997270651960045,0.00018189903552056906
1571.751492949517,1571.751492949517,0.9998190839923998,0.00018190210853828958
1571.7584375160698,1571.7584375160698,1.0002957249959032,0.00018194064740712515
1571.7653820826222,1571.7653820826222,1.0000646541742746,0.00018190706073045604
1571.7723266490823,1571.7723266490823,0.9999212843618434,0.0001819001763510635
1571.7792712154492,1571.7792712154492,0.9998557863459065,0.00018184857096192555
1571.7862157819095,1571.7862157819095,1.0000714990738733,0.00018180113882717685
1571.7931603483692,1571.7931603483692,0.9998083196360396,0.00018182455196559657
1571.8001049146428,1571.8001049146428,1.000109025806823,0.0001818655900006709
1571.8070494810095,1571.8070494810095,0.9996802518898532,0.00018175913575298668
1571.8139940472824,1571.8139940472824,1.0001294021635547,0.0001817773566935901
1571.8209386135566,1571.8209386135566,1.0002180570963977,0.00018174957733905244
1571.8278831798307,1571.8278831798307,1.0002297080035294,0.00018176169552138363
1571.834827746011,1571.834827746011,1.0000236988420315,0.0001817129647260601
1571.8417723121913,1571.8417723121913,0.9998150383862539,0.00018167051026733158
1571.8487168783713,1571.8487168783713,1.0001781367649332,0.00018172322446211167
1571.8556614445515,1571.8556614445515,0.999730244651472,0.00018164898832448743
1571.8626060105466,1571.8626060105466,0.9999851936234027,0.00018164242732648687
1571.869550576634,1571.869550576634,1.0002315347235426,0.00018169651802081094
1571.8764951426278,1571.8764951426278,1.0000411164100047,0.00018164186252560293
1571.8834397087153,1571.8834397087153,1.0002576757626191,0.00018169581728080396
1571.890384274709,1571.890384274709,1.0002675905851166,0.00018167498706440216
1571.89732884061,1571.89732884061,0.9998061045450619,0.00018164557278031057
1571.904273406605,1571.904273406605,0.9997715314739173,0.0001816340650916556
1571.911217972413,1571.911217972413,0.9999000026329202,0.00018165897127913531
1571.9181625382212,1571.9181625382212,0.9999608345560735,0.000181642310928849
1571.9251071041217,1571.9251071041217,1.0001718738686234,0.00018169135608916455
1571.9320516698363,1571.9320516698363,1.0001840226042404,0.000181678848953518
1571.938996235551,1571.938996235551,1.0000837068819883,0.00018166965221258887
1571.9459408013595,1571.9459408013595,0.9999254259660212,0.00018164669326784988
1571.9528853670747,1571.9528853670747,1.000107411301501,0.00018168218688488228
1571.9598299326963,1571.9598299326963,0.99992496077277,0.0001816193471643967
1571.9667744983176,1571.9667744983176,0.9995859978487214,0.00018161867677949874
1571.973719063939,1571.973719063939,0.9998485383723505,0.00018162933692335645
1571.9806636294672,1571.9806636294672,1.0005708446805464,0.00018164740130863872
1571.9876081949965,1571.9876081949965,1.0001810507246656,0.0001816463685114345
1571.9945527605255,1571.9945527605255,1.000186370243928,0.0001816137438165633
1572.0014973259604,1572.0014973259604,1.0000998577396825,0.00018160643523661802
1572.0084418913025,1572.0084418913025,1.0000118450726991,0.0001815648987135103
1572.0153864567378,1572.0153864567378,0.999588039394881,0.00018152291231632764
1572.0223310220797,1572.0223310220797,0.9999726912590529,0.00018155741655013629
1572.029275587423,1572.029275587423,0.9999698899577687,0.0001815316828388757
1572.0362201526718,1572.0362201526718,0.9999437441622414,0.0001815200732990691
1572.043164717921,1572.043164717921,1.0000481186458194,0.00018151442959331705
1572.0501092830768,1572.0501092830768,0.9998771941996676,0.00018143338448991402
1572.057053848419,1572.057053848419,0.9998660251326775,0.00018147078760218368
1572.0639984134818,1572.0639984134818,1.0002301735631185,0.00018145517204597628
1572.070942978638,1572.070942978638,1.0002104672063292,0.00018145163124482717
1572.0778875436083,1572.0778875436083,1.0002434301626848,0.0001814181988738242
1572.0848321088574,1572.0848321088574,1.0000277173484649,0.00018143095539228916
1572.0917766737334,1572.0917766737334,0.9999256353833708,0.00018142862066648015
1572.09872123861,1572.09872123861,0.9999092197708549,0.00018143831855350816
1572.1056658034863,1572.1056658034863,0.9999063469618136,0.00018146574684176797
1572.1126103683634,1572.1126103683634,1.000313776450518,0.00018142750400067015
1572.1195549332408,1572.1195549332408,1.00023979353421,0.000181473773950328
1572.126499498117,1572.126499498117,1.0001109716119214,0.00018145052995502262
1572.133444062993,1572.133444062993,0.9996171533004496,0.0001813813492859029
1572.1403886278697,1572.1403886278697,0.9994644026347869,0.00018137792799816142
1572.1473331922805,1572.1473331922805,1.00011856928322,0.00018141025515406385
1572.1542777571572,1572.1542777571572,0.999911040737752,0.0001814066072754038
1572.161222321662,1572.161222321662,1.0000065335712247,0.00018140586654166003
1572.1681668864453,1572.1681668864453,1.0000036836599298,0.00018140240641802125
1572.1751114508559,1572.1751114508559,1.0003449366012644,0.00018143090898769095
1572.1820560154533,1572.1820560154533,1.0004399608464547,0.00018140989073211643
1572.189000579957,1572.189000579957,1.0000638607379575,0.00018139374811796798
1572.1959451443677,1572.1959451443677,0.999677672471939,0.00018133906911642984
1572.2028897087798,1572.2028897087798,0.9998181008394343,0.00018139226083033511
1572.2098342730974,1572.2098342730974,0.9998954649771049,0.0001813599194258894
1572.2167788375084,1572.2167788375084,0.9998111143181069,0.0001813778946599385
1572.223723401826,1572.223723401826,0.9997082283609645,0.00018133003442898364
1572.2306679659573,1572.2306679659573,1.000330606929911,0.00018139045910139692
1572.2376125302744,1572.2376125302744,1.000258962164549,0.0001813999565809346
1572.244557094314,1572.244557094314,0.9997814016153551,0.00018136034755263236
1572.2515016586322,1572.2515016586322,1.0002454502344027,0.0001813692840545137
1572.25844622267,1572.25844622267,0.9999120159461168,0.0001814016009997933
1572.2653907866152,1572.2653907866152,1.0002075258352268,0.00018141120693717774
1572.2723353507467,1572.2723353507467,1.0001544607817299,0.00018135517219088814
1572.2792799146916,1572.2792799146916,0.9998874657062433,0.00018135862617064518
1572.2862244786375,1572.2862244786375,0.9997084478758353,0.00018133028854213653
1572.2931690424898,1572.2931690424898,1.0000323156479682,0.00018133528953292387
1572.300113606435,1572.300113606435,1.0002064512888211,0.00018134930137660268
1572.3070581701008,1572.3070581701008,0.9999927624893227,0.00018133381195185524
1572.314002734046,1572.314002734046,0.999897958805702,0.00018131352280386428
1572.3209472978047,1572.3209472978047,0.9999380008706489,0.00018127985611413066
1572.3278918614706,1572.3278918614706,0.9999961236583779,0.00018129821890000637
1572.334836425044,1572.334836425044,0.999870873716921,0.00018124795470297701
1572.34178098871,1572.34178098871,1.0001318437259041,0.00018126255006906743
1572.3487255521898,1572.3487255521898,0.9999026358790765,0.00018125437888964394
1572.3556701157618,1572.3556701157618,1.0000174065671525,0.00018125923637026396
1572.3626146792415,1572.3626146792415,1.0004957226199758,0.0001813025514021806
1572.3695592427207,1572.3695592427207,0.999951313133832,0.00018122106349964949
1572.3765038061078,1572.3765038061078,1.0000804814927027,0.00018122156297360433
1572.383448369495,1572.383448369495,0.9995651937235369,0.00018123098118270951
1572.390392932881,1572.390392932881,0.9999735599222461,0.00018119071238799188
1572.397337496081,1572.397337496081,0.9999474162696071,0.00018120133999146375
1572.404282059374,1572.404282059374,1.0002054989241569,0.00018121285677146512
1572.4112266224809,1572.4112266224809,0.9997886100392861,0.0001812005473471665
1572.418171185588,1572.418171185588,1.0000069058736913,0.00018113645430846694
1572.4251157487893,1572.4251157487893,1.0000450055232684,0.00018114930548619455
1572.432060311896,1572.432060311896,0.999930856997269,0.0001811562616133489
1572.4390048749096,1572.4390048749096,1.000231808876558,0.00018117223507532117
