time,time,flux,flux_err
1325.2986450445003,1325.2986450445003,0.9996789980276478,0.0004627733508929245
1325.3069784489785,1325.3069784489785,1.000587080758505,0.00046323626994951745
1325.3146174033313,1325.3146174033313,0.9996875806221308,0.0004228948657505601
1325.3215619074704,1325.3215619074704,0.9996618256005283,0.00042312092988401796
1325.3285064118074,1325.3285064118074,0.9999678262279886,0.000423406564268744
1325.3354509163078,1325.3354509163078,1.0003021195449349,0.00042370454909878685
1325.3423954210175,1325.3423954210175,0.9997239791978624,0.0004239387143153236
1325.3493399258782,1325.3493399258782,1.0001933091350468,0.000424366799202808
1325.356284430914,1325.356284430914,1.0007719375407573,0.00042488940817304855
1325.3632289361242,1325.3632289361242,1.0000402152178824,0.00042510289026535054
1325.3701734415208,1325.3701734415208,0.9997024836454294,0.0004253938821628184
1325.3771179470684,1325.3771179470684,0.9996424572040356,0.0004257443803953189
1325.3840624527797,1325.3840624527797,0.9994285650982604,0.0004260887507600493
1325.3910069586882,1325.3910069586882,1.0004826261343207,0.000426659778824672
1325.3979514647247,1325.3979514647247,0.9995522495979816,0.00042685996047622105
1325.4048959709482,1325.4048959709482,1.0000381903582665,0.0004272976062684609
1325.4118404772987,1325.4118404772987,1.0003745321486899,0.00042772694626898165
1325.418784983825,1325.418784983825,1.0006297356084701,0.00042807182411573955
1325.4257294905135,1325.4257294905135,0.9990973568843297,0.0004282415301779197
1325.4326739973535,1325.4326739973535,1.0004171943437528,0.0004288022276535164
1325.4396185043452,1325.4396185043452,1.000016075574523,0.0004291991257077034
1325.446563011476,1325.446563011476,1.0004385319039968,0.00042964873929951053
1325.4535075187584,1325.4535075187584,0.9995050625453963,0.0004299307086879675
1325.4604520261921,1325.4604520261921,0.9992280731697646,0.00043034888191412966
1325.4673965337654,1325.4673965337654,1.0010936991027222,0.0004311554323867902
1325.4743410415024,1325.4743410415024,0.9999446527399136,0.00043158172644161146
1325.4812855493549,1325.4812855493549,0.9996832840001855,0.000432168503779002
1325.4882300573595,1325.4882300573595,1.0004777713512953,0.0004329033740757527
1325.4951745655035,1325.4951745655035,1.0000633212620096,0.00043364653496096836
1325.5021190737748,1325.5021190737748,0.999972183110728,0.0004343090689124374
1325.5090635821869,1325.5090635821869,0.9993955244107695,0.00043490972689988835
1325.516008090738,1325.516008090738,0.9998416763725905,0.00043567309235767313
1325.5229525994177,1325.5229525994177,1.0001367459296135,0.0004363389281861607
1325.5298971082364,1325.5298971082364,0.9998432063294536,0.00043698365033768
1325.536841617149,1325.536841617149,0.9994801331335872,0.0004376548739674784
1325.5437861262126,1325.5437861262126,1.00043681827358,0.00043849741521710813
1325.5507306353925,1325.5507306353925,1.0005443266198681,0.00043925334475627514
1325.5576751447122,1325.5576751447122,1.0000926495484017,0.00043985968939442454
1325.5646196541484,1325.5646196541484,0.9999035292073515,0.0004406095140933532
1325.5715641636893,1325.5715641636893,0.9998814979651712,0.0004413970889437801
1325.5785086733817,1325.5785086733817,1.0005926857548504,0.0004421718343293287
1325.585453183155,1325.585453183155,0.9995330169520035,0.00044282698444379146
1325.5923976930567,1325.5923976930567,0.9998225190689778,0.00044353525116004545
1325.5993422030751,1325.5993422030751,1.0003204597824702,0.0004443376147358842
1325.6062867132096,1325.6062867132096,0.9992014236863591,0.00044486540822481736
1325.6132312234724,1325.6132312234724,1.0004352311650329,0.0004457397429797837
1325.6201757338167,1325.6201757338167,1.0000275787921304,0.00044625622097082385
1325.6271202442654,1325.6271202442654,0.9992827091500576,0.0004466483372232872
1325.6340647548425,1325.6340647548425,1.0004146233298852,0.00044735300387798983
1325.6410092655246,1325.6410092655246,1.0002123768116504,0.0004478581775252327
1325.6479537763107,1325.6479537763107,1.0003212351438044,0.00044844007599757405
1325.6548982872023,1325.6548982872023,0.9999028285714029,0.0004489386307308849
1325.6618427981746,1325.6618427981746,1.000236198271528,0.00044967001837997197
1325.6687873092644,1325.6687873092644,1.000170712728908,0.00045021854142779925
1325.675731820458,1325.675731820458,0.9998683771503234,0.0004509239141694373
1325.6826763317454,1325.6826763317454,0.9996778216374891,0.0004516941044206819
1325.6896208431256,1325.6896208431256,1.0000232898653842,0.00045263809940366325
1325.6965653546106,1325.6965653546106,1.0000993323867005,0.00045344560782206896
1325.703509866189,1325.703509866189,1.0001480155788784,0.00045443203828886644
1325.71045437786,1325.71045437786,0.9995159134771946,0.0004553071386753344
1325.7173988896361,1325.7173988896361,1.0002470258390743,0.0004565731454267079
1325.7243434014704,1325.7243434014704,0.9994109439345624,0.0004575103156061218
1325.7312879133976,1325.7312879133976,1.000408707587599,0.00045876979678722017
1325.73823242543,1325.73823242543,0.9994613313709806,0.0004597461849429253
1325.7451769375552,1325.7451769375552,1.0003108298927987,0.0004610301005560114
1325.752121449762,1325.752121449762,1.0004063783500334,0.00046232707892824627
1325.759065962039,1325.759065962039,1.000292854249936,0.0004633810894664406
1325.7660104744198,1325.7660104744198,0.999731463106927,0.00046446819671163667
1325.7729549868832,1325.7729549868832,0.9996244686921422,0.0004657292657476647
1325.779899499427,1325.779899499427,1.0002063296884158,0.00046709299605193105
1325.786844012054,1325.786844012054,1.0002811097307585,0.00046829542633046694
1325.7937885247377,1325.7937885247377,1.0000867173173154,0.00046936439683402224
1325.8007330375265,1325.8007330375265,1.0001521382932808,0.0004705220821389079
1325.8076775503855,1325.8076775503855,0.9998813292752262,0.0004714885350498932
1325.814622063325,1325.814622063325,0.9995292960757169,0.0004724664251200412
1325.8215665763357,1325.8215665763357,0.9999559036828163,0.0004734013304835646
1325.828511089427,1325.828511089427,0.9999016431146052,0.00047436200974589277
1325.8354556025768,1325.8354556025768,0.9994828341582453,0.0004752440226854699
1325.84240011582,1325.84240011582,1.000216206679127,0.0004760215221343583
1325.8493446291207,1325.8493446291207,1.0009515038865646,0.00047667392586572593
1325.8562891425033,1325.8562891425033,1.0002166863325022,0.0004770751239416888
1325.8632336559674,1325.8632336559674,1.0001481951501838,0.00047745502095857087
1325.87017816949,1325.87017816949,1.0002358001152722,0.0004774670588037368
1325.8771226830588,1325.8771226830588,0.999479170641081,0.000477356229671156
1325.8840671967089,1325.8840671967089,0.9996787202114609,0.0004775312410946624
1325.8910117104294,1325.8910117104294,0.999722571577653,0.0004776172307869293
1325.8979562242191,1325.8979562242191,0.9993225951934406,0.0004777110494506809
1325.9049007380675,1325.9049007380675,0.9993513187527124,0.0004778905212089078
1325.9118452519972,1325.9118452519972,1.0013648169376554,0.00047834453613016274
1325.9187897659735,1325.9187897659735,1.0004003861151927,0.00047851244488394387
1325.9257342800083,1325.9257342800083,1.0000628526272828,0.0004786947201781733
1325.9326787941125,1325.9326787941125,0.9997481845561034,0.00047888529271761265
1325.9396233082869,1325.9396233082869,1.0004262247770108,0.00047938379265326263
1325.946567822531,1325.946567822531,0.9994198139958836,0.0004796600163644151
1325.9535123367982,1325.9535123367982,0.9998897186244218,0.00048004826638818187
1325.9610124123105,1325.9610124123105,0.9998982276075191,0.00048057543134287213
1325.9687902684332,1325.9687902684332,1.0004672706128575,0.0004811931553340821
1325.9757347829102,1325.9757347829102,0.9996546737286653,0.0004817379482241546
1325.982679297445,1325.982679297445,1.0002343645061758,0.0004824117567798091
1325.9896238120152,1325.9896238120152,0.9998593140229467,0.0004830351491741791
1325.996568326655,1325.996568326655,0.9997652144320218,0.0004838681055658285
1326.0035128413533,1326.0035128413533,0.9998533685811901,0.0004848008084930304
1326.0104573561098,1326.0104573561098,1.000051839509077,0.00048597903547964146
1326.0174018709008,1326.0174018709008,1.000913267841987,0.00048728651239625793
1326.0243463857503,1326.0243463857503,0.999018570688109,0.0004883377890560984
1326.0312909006698,1326.0312909006698,1.0000152986119508,0.0004895734346446897
1326.0382354155886,1326.0382354155886,1.0008719453539254,0.0004899848937508275
1326.0451799306247,1326.0451799306247,1.0003961025072234,0.0004903630920385121
1326.0521244456836,1326.0521244456836,0.9991620105817518,0.0004908944695570703
1326.0590689607657,1326.0590689607657,1.0004649138247832,0.0004919888442280195
1326.0660134759296,1326.0660134759296,1.0003007116918454,0.0004926877429185518
1326.0729579911163,1326.0729579911163,0.9997193167917965,0.000493407999202291
1326.0799025063855,1326.0799025063855,0.9995318197134673,0.0004940883617381242
1326.0868470216653,1326.0868470216653,0.9996232868899403,0.0004949028213360276
1326.0937915370039,1326.0937915370039,0.9995943076084505,0.0004955752003871268
1326.100736052377,1326.100736052377,0.9999900985286996,0.0004962222241754013
1326.1076805678083,1326.1076805678083,1.0007453833487356,0.0004970157816725588
1326.1146250832867,1326.1146250832867,0.999988349416492,0.0004974871176694271
1326.121569598811,1326.121569598811,1.0001634198501204,0.0004982459555059558
1326.1285141143708,1326.1285141143708,1.0004195961425513,0.0004987395838112214
1326.1354586299653,1326.1354586299653,0.9994410225354494,0.0004992353602874056
1326.1424031456063,1326.1424031456063,0.9996819919068025,0.0004997748151242913
1326.1493476612943,1326.1493476612943,1.0000907115293889,0.0005003430394389617
1326.1562921770162,1326.1562921770162,1.0005625875706285,0.0005008360817286819
1326.163236692786,1326.163236692786,0.9995886853804862,0.0005012135199592393
1326.1701812086012,1326.1701812086012,0.9991951614320534,0.0005017031946028551
1326.177125724452,1326.177125724452,1.000222135146042,0.0005023358116503233
1326.1840702403144,1326.1840702403144,1.0002882029443172,0.0005026961717577729
1326.1910147562344,1326.1910147562344,1.00111843768127,0.0005032449081706208
1326.197959272202,1326.197959272202,0.9990986169196509,0.0005035104482179667
1326.204903788192,1326.204903788192,1.0005026325419828,0.0005042361970693757
1326.2118483042293,1326.2118483042293,1.0003227415241074,0.0005046401377673293
1326.2187928203007,1326.2187928203007,0.9993977388254696,0.0005050578651260106
1326.225737336396,1326.225737336396,1.0003754788293147,0.0005057082798285245
1326.2326818525376,1326.2326818525376,1.0002372014053003,0.0005061624517692517
1326.2396263687253,1326.2396263687253,0.9995877764834822,0.0005065867961466869
1326.2465708849372,1326.2465708849372,0.9997215589138598,0.000507146989958283
1326.2535154011834,1326.2535154011834,0.9996357818710419,0.0005077677940008745
1326.2604599174651,1326.2604599174651,0.9992386363915088,0.0005082185797555198
1326.2674044337698,1326.2674044337698,1.000312470789184,0.0005086327523628289
1326.2743489501088,1326.2743489501088,1.000118252409603,0.0005090927024146659
1326.281293466484,1326.281293466484,1.0007140731378912,0.0005096723247852597
1326.288237982893,1326.288237982893,1.000532983280266,0.0005101418553735329
1326.2951824993258,1326.2951824993258,1.0001299646837907,0.0005106825343080613
1326.3021270158047,1326.3021270158047,0.9999149151923152,0.0005112897160763079
1326.3090715323076,1326.3090715323076,0.9998226473637779,0.0005119625834614681
1326.3160160488335,1326.3160160488335,0.9998509361872167,0.0005128496590541012
1326.3229605653937,1326.3229605653937,0.9992740819685622,0.0005135189880198603
1326.32990508199,1326.32990508199,0.9993990685876468,0.0005145014186026534
1326.3368495985972,1326.3368495985972,0.9995611601316108,0.0005154807956545566
1326.3437941152508,1326.3437941152508,0.999980875398143,0.0005166146120804209
1326.353516438606,1326.353516438606,1.0006378933276507,0.0005181457155159156
1326.3604609553063,1326.3604609553063,0.9996713060951936,0.0005191171867993701
1326.3674054720766,1326.3674054720766,1.0006300207063308,0.0005202781939712725
1326.374349988835,1326.374349988835,0.9997983957528934,0.0005213139126286078
1326.381294505629,1326.381294505629,0.9996289948063415,0.0005222233767825676
1326.3882390224576,1326.3882390224576,1.0005273987379684,0.0005233174238890447
1326.395183539321,1326.395183539321,0.9997951792590705,0.0005242437657349732
1326.4021280561842,1326.4021280561842,0.9993243916920267,0.0005252426492454071
1326.4090725730712,1326.4090725730712,0.999611012397476,0.0005263117360039483
1326.4160170900045,1326.4160170900045,1.0000220437255947,0.0005273280144844325
1326.4229616069492,1326.4229616069492,1.000115534959406,0.0005282862814299202
1326.429906123941,1326.429906123941,0.9999924200353186,0.0005291928165561433
1326.4368506409087,1326.4368506409087,1.0000554633010974,0.0005302034407856748
1326.443795157947,1326.443795157947,1.0001555833309737,0.0005311236586566973
1326.450739674985,1326.450739674985,1.0006917830636852,0.0005320463788405079
1326.4576841920577,1326.4576841920577,0.9998541402431019,0.0005329022987108766
1326.464628709154,1326.464628709154,0.9998267672727472,0.0005337614417058883
1326.4715732262623,1326.4715732262623,1.0002456101508201,0.0005347538728955229
1326.4785177433935,1326.4785177433935,1.000402758642369,0.0005357478205848123
1326.4854622605362,1326.4854622605362,0.9996687818401053,0.000536494440038729
1326.4924067777256,1326.4924067777256,1.0002060570286517,0.0005373537322094634
1326.4993512949268,1326.4993512949268,0.9999689671146619,0.0005382452317601455
1326.5062958121391,1326.5062958121391,0.9998937825630835,0.0005391396498850888
1326.513240329387,1326.513240329387,1.0002572182558773,0.0005402890360693223
1326.520184846646,1326.520184846646,0.9997831736545006,0.0005412620619771148
1326.527129363952,1326.527129363952,0.9987880346254808,0.0005422271582172083
1326.5340738812229,1326.5340738812229,1.0003404145215613,0.0005434270536433533
1326.5410183985637,1326.5410183985637,1.0005392120098395,0.0005448144025135225
1326.547962915881,1326.547962915881,1.0006909653324016,0.0005461240214290829
1326.554907433245,1326.554907433245,0.9995882063923759,0.0005468467562809288
1326.5618519506206,1326.5618519506206,1.0014981041967654,0.0005477915745891425
1326.5687964680196,1326.5687964680196,0.9991994884631745,0.0005480945927274086
1326.5757409854305,1326.5757409854305,0.9992343962984591,0.0005488477090132846
1326.5826855028638,1326.5826855028638,0.9997109752068564,0.000549643980003561
1326.5896300203099,1326.5896300203099,1.000011977140693,0.0005504580615263141
1326.5965745377785,1326.5965745377785,1.0008875240261979,0.0005512943896917469
1326.6035190552707,1326.6035190552707,0.9999722563476704,0.000551971910953008
1326.6104635727627,1326.6104635727627,1.0000795372802114,0.0005527573617382126
1326.6174080902895,1326.6174080902895,0.9994408311149001,0.0005533014387444533
1326.6243526078165,1326.6243526078165,0.9999951034830902,0.0005538085168827871
1326.6312971253667,1326.6312971253667,0.9998298452718796,0.0005542174760350131
1326.63824164294,1326.63824164294,0.9997167252445547,0.000554526321575468
1326.6451861605372,1326.6451861605372,0.999768141749769,0.00055480357824954
1326.652130678134,1326.652130678134,1.000468881258326,0.0005549975131564228
1326.6590751957312,1326.6590751957312,1.0002898790649561,0.0005549797644465491
1326.6660197133624,1326.6660197133624,1.0000543894961704,0.0005548851173285888
1326.6729642310063,1326.6729642310063,0.999979818351524,0.0005547051950094799
1326.679908748661,1326.679908748661,1.0000039972123358,0.0005546218996459722
1326.687686608451,1326.687686608451,0.9987931859859616,0.0005541674815499019
1326.6951866875602,1326.6951866875602,0.9997809239791223,0.000553948433824714
1326.7021312052618,1326.7021312052618,1.000284191535599,0.0005537882033572615
1326.7093535037027,1326.7093535037027,1.0000894507481077,0.0005534329617177148
1326.7174091442546,1326.7174091442546,1.000182163803879,0.0005531623672423003
1326.7243536620028,1326.7243536620028,0.9998969087829112,0.0005528171937537356
1326.7312981797743,1326.7312981797743,0.9995299058089231,0.0005526282617768324
1326.738242697546,1326.738242697546,0.9997627104405629,0.000552409889446994
1326.745187215329,1326.745187215329,0.9993609511619883,0.0005522966069915024
1326.7521317331234,1326.7521317331234,0.9995293555276754,0.0005522131265252183
1326.7590762509417,1326.7590762509417,1.0009457493855272,0.000552070019696561
1326.7660207687593,1326.7660207687593,1.000065700988219,0.0005518965798800439
1326.7729652865896,1326.7729652865896,1.0002163328468783,0.0005520789288965654
1326.7799098044422,1326.7799098044422,0.9998226283943004,0.0005521688101126769
1326.786854322307,1326.786854322307,1.0004823909451819,0.0005524070205480488
1326.7937988401948,1326.7937988401948,1.0006549775704938,0.0005528178087018369
1326.8007433580829,1326.8007433580829,1.0003704273497491,0.000553133972005567
1326.8076878759705,1326.8076878759705,0.999185217930377,0.0005535551051432705
1326.8146323938581,1326.8146323938581,0.9993301564184287,0.0005539374312321279
1326.821576911758,1326.821576911758,1.000075809770482,0.0005543242327987844
1326.8285214296925,1326.8285214296925,0.9997336326868644,0.0005545682227459674
1326.8354659476267,1326.8354659476267,1.0001026596303606,0.0005548889157698939
1326.842410465573,1326.842410465573,1.000276485494417,0.000555107058003333
1326.8493549835423,1326.8493549835423,1.000026529301495,0.0005550634954652263
1326.8562995015,1326.8562995015,1.0009773493649168,0.0005550971085017134
1326.8632440194813,1326.8632440194813,1.0001488801199874,0.000554604580180143
1326.8701885374624,1326.8701885374624,0.9999117792856334,0.000554112661403511
1326.8771330554548,1326.8771330554548,0.9993479887732194,0.0005533987656945254
1326.8840775734593,1326.8840775734593,0.999178740847608,0.0005525430758396076
1326.891022091475,1326.891022091475,0.9997240848227467,0.0005517683509420558
1326.897966609491,1326.897966609491,1.0007895115673997,0.0005508310728125554
1326.9049111275185,1326.9049111275185,1.00026427910526,0.0005495695941891954
1326.9118556455578,1326.9118556455578,0.9998146691531702,0.0005482411259218307
1326.9188001636205,1326.9188001636205,1.0001033369770254,0.0005469596183290003
1326.9257446816712,1326.9257446816712,1.0006499605957904,0.000545709601778625
1326.9326891997339,1326.9326891997339,0.9995690643161383,0.0005441804967067113
1326.9396337178077,1326.9396337178077,1.000537549577587,0.0005431077931254779
1326.9465782358934,1326.9465782358934,1.0005528809126056,0.000541955737422415
1326.9535227539795,1326.9535227539795,0.9998276540035478,0.000540729970371119
1326.960467272077,1326.960467272077,1.0002718537327433,0.00053964535521662
1326.9674117901745,1326.9674117901745,1.0006747679590215,0.0005388668836446749
1326.974356308295,1326.974356308295,0.9994117982891012,0.0005377809387047672
1326.981300826416,1326.981300826416,0.9999377202844245,0.0005370456604914863
1326.9882453445364,1326.9882453445364,0.9998129791973256,0.0005364801619592611
1326.9951898626691,1326.9951898626691,0.999949400582695,0.0005359095206984128
1327.0021343808012,1327.0021343808012,1.0002707895175638,0.0005355191132850801
1327.0090788989685,1327.0090788989685,1.0001198018161361,0.0005352131643445471
1327.0160234171008,1327.0160234171008,1.0003362570167387,0.0005352575147073398
1327.022967935268,1327.022967935268,0.9992801764955438,0.0005350720361105047
1327.0299124534472,1327.0299124534472,1.0007688787419433,0.0005353985091627871
1327.0368569716259,1327.0368569716259,1.0007070389163835,0.0005354608918755953
1327.0438014898052,1327.0438014898052,0.9999035018347995,0.0005356067181421554
1327.050746007984,1327.050746007984,1.000242199474353,0.0005358437394644117
1327.0582460876171,1327.0582460876171,0.9998016019629908,0.0005362301619655712
1327.0660239479894,1327.0660239479894,0.9992511163932903,0.0005365773097577381
