time,time,flux,flux_err
1325.2998080770192,1325.2998080770192,0.9999909007106762,0.00016199595727440358
1325.3081413631999,1325.3081413631999,0.9999738046954958,0.00016202248532156557
1325.3164746496143,1325.3164746496143,1.0001820851610221,0.00016205145729282155
1325.3248079362606,1325.3248079362606,0.9999517220305901,0.0001620472844564156
1325.3324467825507,1325.3324467825507,0.999915398949517,0.00014794275332506666
1325.3393911884586,1325.3393911884586,0.9998662496851175,0.00014795583743893007
1325.346335594495,1325.346335594495,0.9999176509107336,0.00014796889935134836
1325.3532800007288,1325.3532800007288,0.9999381071842816,0.00014798517048913518
1325.3602244071021,1325.3602244071021,0.9999920132635207,0.00014801488152734187
1325.3671688136394,1325.3671688136394,1.0001933969332373,0.00014804686183847432
1325.3741132203154,1325.3741132203154,1.0001635016418682,0.00014806507024522957
1325.3810576271549,1325.3810576271549,1.0000683250709357,0.0001480785450019431
1325.3880020341453,1325.3880020341453,0.9997693399026886,0.00014807778377854024
1325.3949464413104,1325.3949464413104,1.000073951056424,0.00014812561874275794
1325.401890848604,1325.401890848604,1.0000483418061243,0.00014813586155398053
1325.4088352560252,1325.4088352560252,0.9998858239464117,0.00014813809935839114
1325.4157796636096,1325.4157796636096,0.9999197530230287,0.00014815659391192456
1325.422724071357,1325.422724071357,1.000208568115821,0.0001481952413361565
1325.4296684792325,1325.4296684792325,0.9998313730267677,0.00014818471475307014
1325.4366128872475,1325.4366128872475,0.9999274416333852,0.00014821839089197112
1325.4435572954021,1325.4435572954021,1.0000313533743959,0.0001482298593647857
1325.45050170372,1325.45050170372,0.9999694104081881,0.00014824342867287438
1325.4574461121542,1325.4574461121542,1.000183501556557,0.0001482757795292955
1325.4643905207397,1325.4643905207397,0.9998001216784183,0.00014825591390006448
1325.4713349294532,1325.4713349294532,1.0001151538857573,0.00014830226814299723
1325.4782793383065,1325.4782793383065,0.9998571933997968,0.00014829653888752007
1325.4852237472876,1325.4852237472876,1.0000978664153715,0.00014834038295725763
1325.4921681564206,1325.4921681564206,1.0001009664940237,0.00014834764376002834
1325.4991125656582,1325.4991125656582,1.000004851956843,0.00014836379969222373
1325.506056975047,1325.506056975047,1.0001118727729588,0.00014839797323656006
1325.5130013845635,1325.5130013845635,0.9999548344430333,0.00014840049139555836
1325.519945794197,1325.519945794197,0.9997690389792707,0.00014841541493890246
1325.52689020397,1325.52689020397,1.0001556253782815,0.00014847036890393756
1325.5338346138476,1325.5338346138476,0.9999433514076592,0.00014847071621477907
1325.5407790238764,1325.5407790238764,0.9999529391202282,0.00014849756707170484
1325.5477234339992,1325.5477234339992,0.9999810702192724,0.00014851530493442216
1325.5546678442606,1325.5546678442606,1.0001343268096385,0.00014854330755429679
1325.561612254651,1325.561612254651,0.9999910589039718,0.0001485516374876295
1325.5685566651457,1325.5685566651457,0.9997711749361322,0.0001485629766840492
1325.5755010757682,1325.5755010757682,1.000010203030066,0.00014858802480315552
1325.5824454864846,1325.5824454864846,1.00007283637423,0.0001486122166760681
1325.5893898973395,1325.5893898973395,1.0000031235515332,0.00014862205011868465
1325.596334308312,1325.596334308312,1.0002422924748546,0.00014865198750193008
1325.6032787193885,1325.6032787193885,0.999934975894436,0.000148636168030559
1325.6102231305704,1325.6102231305704,0.9997214485295289,0.0001486433093521094
1325.6171675418684,1325.6171675418684,1.0000670631978634,0.00014866601377600374
1325.6241119532945,1325.6241119532945,0.9999125668805909,0.00014865834689133616
1325.631056364802,1325.631056364802,1.0002705859915557,0.00014869128738612475
1325.638000776426,1325.638000776426,1.0000390506061447,0.00014867675252503866
1325.644945188166,1325.644945188166,1.0000099294840674,0.00014867573029931735
1325.6518896000114,1325.6518896000114,1.000087451029548,0.00014868973572462844
1325.6588340119497,1325.6588340119497,0.9998694205879832,0.00014867628288510527
1325.6657784240047,1325.6657784240047,0.9998374022547548,0.0001486776030718508
1325.6727228361754,1325.6727228361754,0.9999208596612899,0.00014867416485848112
1325.6796672484165,1325.6796672484165,1.0002190569801734,0.0001487033616610468
1325.6866116607623,1325.6866116607623,0.9998281579723578,0.00014868296313508565
1325.6935560732009,1325.6935560732009,0.9999283288439937,0.00014870246480396652
1325.700500485757,1325.700500485757,1.0001933234797038,0.00014872174093506066
1325.7074448984165,1325.7074448984165,1.0001082626836386,0.00014872416681094427
1325.7143893111465,1325.7143893111465,1.0000813168127727,0.00014872459956748996
1325.721333723981,1325.721333723981,1.0000531815353977,0.00014873463188232755
1325.728278136909,1325.728278136909,0.9998333408379727,0.0001487304507024293
1325.7352225499415,1325.7352225499415,0.9998825879487179,0.00014873888051307997
1325.7421669630671,1325.7421669630671,0.9998260683326974,0.00014874671043423371
1325.749111376251,1325.749111376251,1.0000431912988068,0.00014877545198054316
1325.7560557895517,1325.7560557895517,0.9999318098772972,0.00014878197124260065
1325.7630002029332,1325.7630002029332,1.000182719590846,0.0001488142654904411
1325.76994461642,1325.76994461642,1.0003299408806874,0.00014883470894271026
1325.7768890299765,1325.7768890299765,0.9997749592067663,0.0001488117001969046
1325.7838334436144,1325.7838334436144,0.9999994757955417,0.00014884079572369315
1325.7907778573572,1325.7907778573572,1.0000866679261484,0.00014885437766770217
1325.7977222711695,1325.7977222711695,0.9998840151533746,0.00014884681682101212
1325.8046666850755,1325.8046666850755,1.0000611222340294,0.00014886909985044593
1325.8116110990509,1325.8116110990509,0.9997941489442315,0.00014886462931108465
1325.8185555131315,1325.8185555131315,1.0000287072800254,0.00014888514059626046
1325.82549992727,1325.82549992727,1.0002284267419668,0.00014890726350674774
1325.8324443415015,1325.8324443415015,0.99978182517566,0.00014888714174507472
1325.8393887558148,1325.8393887558148,0.9999810210218808,0.00014889320947201505
1325.846333170186,1325.846333170186,1.0001264747657794,0.00014890979738272194
1325.853277584662,1325.853277584662,0.9998740851295732,0.00014888082789993757
1325.8602219991733,1325.8602219991733,1.0001377859583265,0.0001489030327956055
1325.8671664138008,1325.8671664138008,0.9999909071365147,0.00014888030502398935
1325.8741108284867,1325.8741108284867,0.9999050611803535,0.00014886042393699053
1325.8810552432537,1325.8810552432537,0.9999301307713722,0.00014885060663832165
1325.887999658079,1325.887999658079,1.0001497639998704,0.00014886094945531616
1325.8949440729975,1325.8949440729975,1.0002122855172881,0.0001488568429245359
1325.9018884879858,1325.9018884879858,0.9998244301095586,0.00014881752939167842
1325.9088329030324,1325.9088329030324,0.9998711565066853,0.00014881616358295926
1325.9157773181605,1325.9157773181605,1.0000659009505022,0.00014881789942102608
1325.9227217333466,1325.9227217333466,1.0000887769835656,0.00014881818828414657
1325.9296661485914,1325.9296661485914,0.9999901294572433,0.00014881584631542774
1325.9366105639288,1325.9366105639288,0.9998583696446885,0.0001487863560860189
1325.943554979348,1325.943554979348,1.0000634073079406,0.000148807746070082
1325.9504993947908,1325.9504993947908,1.0001785872442062,0.0001488045647909051
1325.9574438103145,1325.9574438103145,0.9997341816174661,0.0001487752028017999
1325.965499332414,1325.965499332414,0.9998534994999378,0.00014878602540984692
1325.972721524707,1325.972721524707,1.000049859459309,0.0001487893338579783
1325.97966594044,1325.97966594044,1.0002284124740235,0.0001488076362831466
1325.9866103562317,1325.9866103562317,1.0001888395674878,0.00014882118331449983
1325.993554772093,1325.993554772093,0.9997796438982519,0.00014879111689366617
1326.0004991880246,1326.0004991880246,0.9999403631537322,0.00014879435024524876
1326.007443603979,1326.007443603979,1.0001346802433555,0.00014882119506483933
1326.0143880200271,1326.0143880200271,1.0000430203031179,0.00014883168424409567
1326.0213324361332,1326.0213324361332,1.0001167650849907,0.00014884063772551515
1326.0282768522975,1326.0282768522975,0.9999058938324419,0.00014885906343193542
1326.035221268508,1326.035221268508,0.9999887467601383,0.00014885390960746702
1326.0421656847998,1326.0421656847998,0.999686082571696,0.00014884187073033135
1326.0491101011157,1326.0491101011157,1.0001597189828713,0.00014887544278772876
1326.0560545175008,1326.0560545175008,0.9999411773115886,0.0001488549974217923
1326.062998933933,1326.062998933933,0.9999488422174629,0.00014886528737847852
1326.0699433504346,1326.0699433504346,1.000128177948699,0.00014888469837191415
1326.0768877669943,1326.0768877669943,1.000081037279875,0.00014887786859826027
1326.0838321835895,1326.0838321835895,0.9998524737534756,0.000148859373225165
1326.0907766002545,1326.0907766002545,1.0000857075788425,0.00014888992227018977
1326.0977210169656,1326.0977210169656,1.0000531252032014,0.0001488840583571676
1326.1046654337356,1326.1046654337356,1.0000240579031907,0.00014887336850680458
1326.1116098505395,1326.1116098505395,0.9999651763121292,0.00014886919845909815
1326.118554267414,1326.118554267414,0.9998313559986738,0.00014887165227245712
1326.1254986843228,1326.1254986843228,0.9999073447118814,0.00014886332529036675
1326.1324431012908,1326.1324431012908,1.0001626799087382,0.00014889086860184837
1326.139387518293,1326.139387518293,1.0001357747550497,0.00014888149533327875
1326.146331935377,1326.146331935377,0.999919697732323,0.00014887753645882154
1326.153276352484,1326.153276352484,0.9999921795423331,0.00014886368515612343
1326.160220769626,1326.160220769626,1.000049272016971,0.00014887906053653798
1326.1671651868496,1326.1671651868496,1.0000285138372356,0.00014887937133405387
1326.1741096040962,1326.1741096040962,0.9999712210806544,0.00014886156827313612
1326.1810540214015,1326.1810540214015,0.9999180706019153,0.00014885531068456898
1326.1879984387415,1326.1879984387415,0.9999111688049156,0.0001488497814522572
1326.194942856128,1326.194942856128,1.0001656403393073,0.00014886829782775418
1326.2018872735612,1326.2018872735612,0.9997834563191883,0.00014884311629557626
1326.2088316910408,1326.2088316910408,1.0001876698124308,0.00014886279657269505
1326.2157761085552,1326.2157761085552,0.9998231678457883,0.00014884426782327978
1326.2227205261165,1326.2227205261165,1.000275032325017,0.00014887090173521325
1326.2296649437242,1326.2296649437242,1.0001591039669822,0.00014886792966405557
1326.2366093613668,1326.2366093613668,0.999757407635166,0.00014884058940802645
1326.2435537790673,1326.2435537790673,0.9999089513883689,0.00014884256877502948
1326.2504981967918,1326.2504981967918,0.999781776371151,0.00014883861721922694
1326.2574426145625,1326.2574426145625,1.0001794273835334,0.00014886142407687152
1326.2643870323798,1326.2643870323798,1.0001287415459135,0.00014886271848541384
1326.2713314502205,1326.2713314502205,1.0000367135181656,0.0001488460731570574
1326.278275868119,1326.278275868119,1.000081234770901,0.00014884760843542335
1326.285220286041,1326.285220286041,0.999894671066869,0.00014883603023700461
1326.2921647040098,1326.2921647040098,1.0001115508653775,0.00014885105104300725
1326.2991091220135,1326.2991091220135,0.9998985104202118,0.00014884095536205798
1326.3060535400632,1326.3060535400632,0.9999595068510665,0.00014883731849524808
1326.3129979581254,1326.3129979581254,0.9999749076598089,0.00014884820552297243
1326.3199423762567,1326.3199423762567,0.9997026795861746,0.0001488335901584637
1326.3268867943998,1326.3268867943998,1.0002129966282276,0.00014886312038574185
1326.3338312125898,1326.3338312125898,1.0002786088466016,0.0001488698178494914
1326.3407756308145,1326.3407756308145,0.9997526713324237,0.00014884584210090533
1326.3488311559875,1326.3488311559875,0.9998602542692551,0.00014885543538090728
1326.3574422346862,1326.3574422346862,0.9999810813507949,0.0001488721104946179
1326.3643866530044,1326.3643866530044,1.0002393792744186,0.00014888901957405665
1326.3713310714036,1326.3713310714036,1.0000198028874847,0.00014887438873065017
1326.3782754898032,1326.3782754898032,1.0001733447545762,0.00014890382510798962
1326.3852199082373,1326.3852199082373,1.0000851538606457,0.000148904345862175
1326.392164326718,1326.392164326718,0.9997351177469682,0.00014889050953163354
1326.3991087452225,1326.3991087452225,0.9999199123870397,0.0001488989054666954
1326.406053163761,1326.406053163761,1.000098911137737,0.00014890586099395022
1326.4129975823123,1326.4129975823123,0.9997850878632211,0.00014890004609987418
1326.4199420009325,1326.4199420009325,1.000065447982264,0.00014891875889955135
1326.4268864195185,1326.4268864195185,0.9999962092369922,0.0001489018008356989
1326.4338308382085,1326.4338308382085,0.9998150171749615,0.00014890836336241883
1326.4407752568873,1326.4407752568873,1.0001380370983923,0.00014892692921598407
1326.447719675601,1326.447719675601,1.00032987554876,0.0001489489110854352
1326.4546640943495,1326.4546640943495,1.0001040320100096,0.0001489411829583055
1326.4616085131333,1326.4616085131333,0.9999658615072452,0.0001489356531054149
1326.4685529319283,1326.4685529319283,0.9997011077222042,0.00014891988231763577
1326.4754973507584,1326.4754973507584,0.9998963649281176,0.0001489314951064568
1326.4824417696236,1326.4824417696236,1.0000307403987232,0.00014895109561613936
1326.4893861884998,1326.4893861884998,0.9999522496694084,0.00014894235132285777
1326.4963306074117,1326.4963306074117,1.0000797085467723,0.00014895791547469428
1326.5032750263463,1326.5032750263463,1.000052708495924,0.00014894915370072663
1326.5102194453398,1326.5102194453398,1.0001031917076348,0.00014896719008117182
1326.517163864321,1326.517163864321,0.9999728821637263,0.00014896055640928514
1326.5241082833488,1326.5241082833488,1.0000597766146946,0.00014896879066872448
1326.5310527023887,1326.5310527023887,0.9998346119536967,0.00014896433302158223
1326.5379971214397,1326.5379971214397,0.9999977946607489,0.00014898447389730528
1326.5449415405496,1326.5449415405496,1.0001532914377935,0.00014900566797123948
1326.5518859596705,1326.5518859596705,0.9998672094833466,0.00014899357927086133
1326.5588303788033,1326.5588303788033,1.0000555658174897,0.00014901242844724645
1326.5657747979826,1326.5657747979826,0.9998231285740147,0.00014899232233313352
1326.5727192171503,1326.5727192171503,1.0001445006929977,0.00014901422346254604
1326.5796636363762,1326.5796636363762,1.0001051940614694,0.00014902320213181674
1326.586608055602,1326.586608055602,0.9999843954653109,0.00014902023765361378
1326.5935524748863,1326.5935524748863,0.999974765108526,0.0001490184270168236
1326.6004968941588,1326.6004968941588,1.0001433212024313,0.00014903159939277924
1326.607441313466,1326.607441313466,1.0000871784571959,0.0001490342353298242
1326.6143857327854,1326.6143857327854,0.9998102734607801,0.00014902815651805437
1326.6213301521389,1326.6213301521389,0.9998060488006486,0.00014903527899221366
1326.6282745715048,1326.6282745715048,1.0000072592678282,0.00014904883321777547
1326.6352189908935,1326.6352189908935,1.0000617532956597,0.00014905350896930405
1326.6421634103058,1326.6421634103058,0.9999689787313532,0.00014904906566743905
1326.649107829741,1326.649107829741,1.0000986899193332,0.00014904853124705285
1326.6560522491998,1326.6560522491998,0.9999638414179595,0.00014903696575434023
1326.662996668659,1326.662996668659,0.9999248375956539,0.0001490175199463444
1326.6699410881754,1326.6699410881754,0.9999121907598697,0.0001490103526964143
1326.6768855076928,1326.6768855076928,1.0000388034623875,0.00014901835852156365
1326.6838299272094,1326.6838299272094,0.9999588370915877,0.00014900708505325512
1326.6921632306646,1326.6921632306646,1.0001530785228294,0.0001490152390786469
1326.6991076502281,1326.6991076502281,1.0000527867622568,0.0001490016749605361
1326.7060520698146,1326.7060520698146,1.000137940285071,0.00014899802455297322
1326.7138298197904,1326.7138298197904,1.000287781017977,0.00014900966484062203
1326.7213297929852,1326.7213297929852,0.9999030378032778,0.00014898347766916303
1326.7282742126304,1326.7282742126304,1.000039176071458,0.00014897670975823902
1326.7352186322983,1326.7352186322983,0.9998475532118419,0.00014895401146662154
1326.74216305199,1326.74216305199,1.000109062744532,0.00014896737310578502
1326.7491074716813,1326.7491074716813,0.9996872725773466,0.00014893221122342902
1326.7560518913963,1326.7560518913963,1.0001736774395364,0.00014896624320629223
1326.7629963111344,1326.7629963111344,0.9997532876327904,0.00014894000870697462
1326.7699407308842,1326.7699407308842,1.0001223934493906,0.00014895286932929854
1326.776885150657,1326.776885150657,0.9998820461909084,0.0001489351133508069
1326.7838295704187,1326.7838295704187,1.0000791588650628,0.00014894756463657854
1326.7907739902153,1326.7907739902153,1.0002798881718422,0.00014896964400957163
1326.797718410023,1326.797718410023,1.0000433823531878,0.0001489486495707798
1326.804662829878,1326.804662829878,1.000123491304074,0.00014895714933671407
1326.8116072496969,1326.8116072496969,0.9998703350317555,0.00014894335936256774
1326.8185516695632,1326.8185516695632,0.9999726400685158,0.00014894033259578893
1326.8254960894412,1326.8254960894412,0.9998012684584626,0.00014893432554213934
1326.8324405093192,1326.8324405093192,1.0000828434977236,0.0001489531942171209
1326.8393849292202,1326.8393849292202,0.9999433262119692,0.00014895044359876716
1326.8463293491327,1326.8463293491327,1.0000058184685052,0.00014894404127083135
1326.853273769069,1326.853273769069,0.9999749876164152,0.00014894332817763628
1326.860218189005,1326.860218189005,1.0000556979547492,0.0001489412592977299
1326.8671626089645,1326.8671626089645,1.0000312349551677,0.00014893788459472825
1326.8741070289238,1326.8741070289238,0.9999714347271634,0.00014892291414002502
1326.8810514489064,1326.8810514489064,1.0000299129639312,0.0001489212069908171
1326.8879958689008,1326.8879958689008,1.00012706467736,0.00014890638880164637
1326.8949402889061,1326.8949402889061,1.0000555940729658,0.00014889382575539173
1326.9018847089242,1326.9018847089242,0.9998833165184514,0.0001488517903359621
1326.9088291289531,1326.9088291289531,0.9999540768203614,0.0001488571813266937
1326.9157735490055,1326.9157735490055,0.9999035626648765,0.00014883935965636592
1326.922717969058,1326.922717969058,0.9998810890815577,0.0001488286654748125
1326.9296623891105,1326.9296623891105,1.0001235333827148,0.00014882686718672083
1326.9366068092095,1326.9366068092095,1.0000954079059454,0.0001488158074735081
1326.943551229308,1326.943551229308,0.9998511127472479,0.00014877222607399045
1326.9504956494077,1326.9504956494077,1.000084653168885,0.00014878630647749275
1326.9574400695062,1326.9574400695062,0.9999654882742417,0.00014876815892522934
1326.964384489606,1326.964384489606,1.0002225137052767,0.0001487719795926914
1326.9713289097629,1326.9713289097629,0.9998432565036783,0.0001487359546309544
1326.9782733298848,1326.9782733298848,0.9998698178593489,0.00014871455420194983
1326.9852177500425,1326.9852177500425,1.000053213776904,0.00014871629454959236
1326.9921621701997,1326.9921621701997,1.0001572911194783,0.00014872333021390355
1326.9991065903682,1326.9991065903682,1.0000327567237828,0.00014870092526457772
1327.0060510105607,1327.0060510105607,0.9999535112321045,0.00014870252482614146
1327.012995430741,1327.012995430741,0.9999667054786523,0.00014870818325369764
1327.0199398509449,1327.0199398509449,1.000061167611377,0.00014870824753267895
1327.0268842711603,1327.0268842711603,0.9998466246543831,0.00014870107788959554
1327.033828691376,1327.033828691376,1.0001843815728912,0.00014871754324809083
1327.0407731116143,1327.0407731116143,0.9998504309730528,0.000148687152140143
1327.04771753183,1327.04771753183,0.9999272834498605,0.00014870141806531321
1327.0546619520687,1327.0546619520687,1.0000341773339196,0.00014869606820376962
