time,time,flux,flux_err
1517.364069275133,1517.364069275133,1.0030959603625371,0.00640950744043294
1517.3735601827336,1517.3735601827336,1.0056027139840145,0.005719364250623555
1517.3805047496658,1517.3805047496658,0.9971247572031532,0.005629382905997762
1517.3874493169476,1517.3874493169476,0.9950923941086701,0.005546598772840089
1517.3946716673152,1517.3946716673152,0.9991096589313259,0.005470114242275621
1517.4027273661034,1517.4027273661034,0.9983453344158827,0.005387589979597131
1517.4096719344327,1517.4096719344327,1.0004658642536257,0.005324951629241478
1517.4166165030183,1517.4166165030183,0.9947699847061207,0.005259928595779626
1517.423561071906,1517.423561071906,1.0010228857782821,0.005204799243289864
1517.4305056411436,1517.4305056411436,1.0028228264333385,0.005149651324620067
1517.4374502105907,1517.4374502105907,0.9902352930317052,0.005100060953533079
1517.444394780387,1517.444394780387,1.0001140056610671,0.005055906845439483
1517.451339350439,1517.451339350439,0.9964145120316206,0.0050142261401371615
1517.4582839207476,1517.4582839207476,1.0059513035213565,0.004973003883404466
1517.4652284913586,1517.4652284913586,1.0073843633857367,0.0049329047376504235
1517.4721730622027,1517.4721730622027,0.997408815321491,0.0048927085700060146
1517.479117633326,1517.479117633326,1.0003664533100705,0.004854341576849554
1517.4860622046822,1517.4860622046822,1.0021997524450172,0.004820911017465597
1517.4930067762712,1517.4930067762712,0.9922583874282728,0.004786260797711318
1517.4999513481393,1517.4999513481393,1.0059337970333508,0.004758909286452529
1517.5068959201942,1517.5068959201942,0.999778610406756,0.004724055794224747
1517.5138404925515,1517.5138404925515,0.9984149565666165,0.004701447573550508
1517.5207850650718,1517.5207850650718,1.0042745223618235,0.00466748595534274
1517.527729637825,1517.527729637825,1.0059946822107348,0.004641956602045328
1517.5346742108343,1517.5346742108343,1.0000324337872715,0.004619522045937296
1517.541618784006,1517.541618784006,0.9984351213950307,0.004595334184724206
1517.5485633574115,1517.5485633574115,1.0016056130249567,0.00457192925590207
1517.555507931026,1517.555507931026,0.9952357240613351,0.004548469138801204
1517.5624525048502,1517.5624525048502,1.0010053236498448,0.004526249969558473
1517.5693970788604,1517.5693970788604,0.9998321227020611,0.004504611909442703
1517.5763416530572,1517.5763416530572,0.9994692531005362,0.004485178481012451
1517.583286227464,1517.583286227464,0.9945265065216178,0.004469183652034602
1517.5902308020559,1517.5902308020559,1.0019289723796676,0.004455954734668909
1517.597175376835,1517.597175376835,0.9980039828529799,0.004440665337472535
1517.6041199517533,1517.6041199517533,1.0044565595511818,0.004426717257066572
1517.6110645268811,1517.6110645268811,1.001397265866856,0.004408658048776278
1517.618009102149,1517.618009102149,1.0026693754983182,0.004397379463892587
1517.6249536776263,1517.6249536776263,1.0031864916920683,0.004385783888738483
1517.6318982532664,1517.6318982532664,0.9998288664651016,0.004375924093465514
1517.6388428290231,1517.6388428290231,0.9952220342224883,0.004368216888609652
1517.6457874049427,1517.6457874049427,0.9964935340590682,0.004359845028200463
1517.652731981072,1517.652731981072,0.996743251075298,0.004355183978301041
1517.6596765573179,1517.6596765573179,1.0086103017463972,0.004351660514547176
1517.6666211337028,1517.6666211337028,1.0010910816163978,0.0043525506611107765
1517.6735657102745,1517.6735657102745,1.0016807565800057,0.0043358581830435765
1517.680510286916,1517.680510286916,0.993697484425288,0.004330489765479893
1517.6874548637434,1517.6874548637434,1.0050867526884448,0.004325294342309802
1517.6943994407109,1517.6943994407109,1.0001536510023894,0.004313644883932549
1517.7013440178414,1517.7013440178414,0.9947362468471898,0.004297411850813272
1517.708288595018,1517.708288595018,0.9939529574550668,0.004286932304998195
1517.7152331723578,1517.7152331723578,1.0038405562146429,0.004276240160849145
1517.7221777498376,1517.7221777498376,0.998038232051829,0.004259810169611312
1517.7291223274337,1517.7291223274337,1.0025131156711113,0.0042497269440247756
1517.7360669051463,1517.7360669051463,0.9982249263121055,0.0042308182046283645
1517.743011482998,1517.743011482998,1.0034652817462344,0.004220883603436679
1517.7499560609667,1517.7499560609667,1.0010224415726101,0.004205987114224143
1517.7569006390283,1517.7569006390283,1.0002436738713814,0.0041906227725109204
1517.7638452172064,1517.7638452172064,0.9954990744505281,0.004183220814874792
1517.7707897954313,1517.7707897954313,1.0009228134203714,0.00416976813043214
1517.7777343738658,1517.7777343738658,1.0091521418070177,0.004167601400749864
1517.784678952346,1517.784678952346,0.9982558171737492,0.0041588752545323815
1517.7916235309433,1517.7916235309433,0.9987151379123969,0.004151693139382526
1517.798568109657,1517.798568109657,0.9995539889510694,0.004149798652042083
1517.805512688417,1517.805512688417,1.0032929797019656,0.004147758909673211
1517.812457267317,1517.812457267317,1.0065927460066912,0.004141807400826534
1517.8194018463098,1517.8194018463098,0.9966024779037301,0.0041371315996419755
1517.8263464253962,1517.8263464253962,0.9971077779426005,0.004128748156780401
1517.8332910045287,1517.8332910045287,0.9998499973343886,0.004126911939927529
1517.8402355837777,1517.8402355837777,0.9972933609875007,0.004116264293326855
1517.84718016312,1517.84718016312,0.9995845053796171,0.004108483453086788
1517.8541247425792,1517.8541247425792,0.9986206808803519,0.004101989790900301
1517.8610693220605,1517.8610693220605,0.9995131687290291,0.0040925979477152525
1517.8680139015892,1517.8680139015892,1.001455408040898,0.004083086801391985
1517.8749584812576,1517.8749584812576,0.9997233840657487,0.004074237653494671
1517.8819030609952,1517.8819030609952,1.0029696799945431,0.0040638776223056
1517.8888476408033,1517.8888476408033,1.0059147721051802,0.004060697207912302
1517.8957922206812,1517.8957922206812,1.0000562127344437,0.004055592780134887
1517.9027368006289,1517.9027368006289,1.0018171551924522,0.004047644378157769
1517.909681380646,1517.909681380646,0.9987247421884401,0.004048396114365651
1517.9166259607102,1517.9166259607102,0.9980041796174757,0.004042021495546642
1517.9235705408905,1517.9235705408905,0.9988710345403294,0.004042286555708017
1517.9305151211174,1517.9305151211174,0.9941546130033887,0.004037062143190335
1517.937459701391,1517.937459701391,1.0004866969963415,0.004039187234571166
1517.9457931978172,1517.9457931978172,1.0009301805321125,0.00403304357827391
1517.9527377782538,1517.9527377782538,1.003258108186402,0.004032232010746026
1517.9596823587135,1517.9596823587135,0.9984320918930214,0.0040302723723573235
1517.9666269392665,1517.9666269392665,1.0012973112134145,0.004024532914395218
1517.973571519866,1517.973571519866,1.0031905490110806,0.004011784313719938
1517.9805161005354,1517.9805161005354,0.9976313664842905,0.004002375777660605
1517.9874606812048,1517.9874606812048,0.9927214819046057,0.0039950157890957325
1517.9944052619674,1517.9944052619674,0.9965613245995634,0.003990932896296156
1518.0013498427763,1518.0013498427763,1.0042559669918276,0.003986711330925914
1518.0082944236322,1518.0082944236322,1.0051730583555645,0.003986190794780524
1518.015239004511,1518.015239004511,0.9972248694549574,0.003978360259853376
1518.0221835854832,1518.0221835854832,1.008925184186282,0.0039802232830474914
1518.0291281664784,1518.0291281664784,0.9967476515146731,0.0039725609326498055
1518.0360727475436,1518.0360727475436,0.9996055927063168,0.003969243190357169
1518.0430173286318,1518.0430173286318,1.0025475208056402,0.003969373598056264
1518.049961909767,1518.049961909767,0.9953598384018548,0.003961520741998497
1518.0569064909255,1518.0569064909255,0.9942797493784432,0.003965742779362357
1518.0638510721533,1518.0638510721533,0.9994487806697959,0.003967372367380486
1518.0707956533815,1518.0707956533815,1.0028585365450184,0.00397047346607967
1518.077740234703,1518.077740234703,1.0085539965094035,0.003968175960509751
1518.084684816024,1518.084684816024,1.0002877067025637,0.00397447057755483
1518.091629397392,1518.091629397392,0.997085007160494,0.003964873322175488
1518.0985739788068,1518.0985739788068,1.0025057653125768,0.003963131708255616
1518.1055185602438,1518.1055185602438,1.0140182760989735,0.003964003936587137
1518.1124631417053,1518.1124631417053,0.9981817860067104,0.003961429021417111
1518.1194077232362,1518.1194077232362,0.9912455404540597,0.003954013900880101
1518.1263523047435,1518.1263523047435,0.9993895102991885,0.0039483436029047305
1518.1332968863444,1518.1332968863444,0.9991735175695224,0.003943042198554376
1518.1402414679217,1518.1402414679217,1.0026925376883837,0.003940878990361981
1518.1471860495687,1518.1471860495687,1.0047430068411882,0.003935306864654176
1518.154130631216,1518.154130631216,0.9994930452344961,0.003930963915702453
1518.16107521291,1518.16107521291,1.000672609987413,0.003923934765532907
1518.1680197946268,1518.1680197946268,1.0013345978708632,0.003919732284660858
1518.1749643763444,1518.1749643763444,1.001815405000832,0.003910603483473033
1518.1819089581545,1518.1819089581545,0.9994591638018244,0.003907770335815552
1518.188853539895,1518.188853539895,0.9977695219772362,0.003907480634161
1518.1957981217054,1518.1957981217054,0.9948388290112451,0.003902240259199022
1518.202742703585,1518.202742703585,0.9982234371675561,0.003903545514756115
1518.2096872853954,1518.2096872853954,1.0024689101000193,0.0039059416586425893
1518.2166318672987,1518.2166318672987,1.0085290481214795,0.0039059195521990676
1518.2235764491786,1518.2235764491786,1.0019729880574766,0.0039067045248528925
1518.2305210311058,1518.2305210311058,1.0045237280751338,0.0039038656786518897
1518.2374656130326,1518.2374656130326,0.9980065004739771,0.0039063851665637715
1518.2444101949818,1518.2444101949818,0.996532220721684,0.003906495053906213
1518.2513547769554,1518.2513547769554,0.9943142219483742,0.003908192367656943
1518.258299358952,1518.258299358952,0.9924716418683127,0.0039053543441114635
1518.2657995075162,1518.2657995075162,1.0037424106355242,0.0038991148640397217
1518.2735774393766,1518.2735774393766,0.9988002260486617,0.0038972533175387542
1518.2805220214195,1518.2805220214195,1.003154244392276,0.003894498348639345
1518.2874666034863,1518.2874666034863,0.9983163286118042,0.003883646475659653
1518.2944111855527,1518.2944111855527,0.9960600034081757,0.00388321485447733
1518.301355767642,1518.301355767642,0.9984829540322668,0.0038725829215227755
1518.3085781330278,1518.3085781330278,1.057703857531795,0.003881447428505563
1518.3166338482765,1518.3166338482765,1.0116311347007563,0.0038702537082044124
1518.3235784303658,1518.3235784303658,1.0028349109580752,0.0038625105965132862
1518.3305230125027,1518.3305230125027,0.9909423772991153,0.0038567209364448315
1518.3374675946384,1518.3374675946384,0.9987942783504243,0.0038590472150733155
1518.344412176798,1518.344412176798,0.9992407089474942,0.003855623282874431
1518.3513567589343,1518.3513567589343,0.997887573616817,0.0038612233383680077
1518.3583013411169,1518.3583013411169,1.0026567692058916,0.0038553947003819775
1518.3652459232999,1518.3652459232999,0.998809162125767,0.0038690716313995697
1518.3721905054595,1518.3721905054595,1.0052139050847018,0.0038617459855992803
1518.379135087665,1518.379135087665,1.0049163579775882,0.003864352888693444
1518.3860796698482,1518.3860796698482,0.9935948827978542,0.0038586517028827753
1518.3930242520541,1518.3930242520541,0.9966458820274063,0.0038540945833871786
1518.3999688342599,1518.3999688342599,0.9985044394041991,0.0038506602311707966
1518.406913416443,1518.406913416443,0.9942848453078887,0.0038496060608795768
1518.4149691318319,1518.4149691318319,1.0005807255136054,0.0038415634346397115
1518.4221914973334,1518.4221914973334,1.0046550022304497,0.003845411023812103
1518.4291360795628,1518.4291360795628,0.9980034595019184,0.0038373757388495246
1518.4360806617922,1518.4360806617922,1.0044439043559203,0.003835569539072328
1518.4430252440213,1518.4430252440213,0.9984304689680457,0.003828340500664003
1518.4499698262275,1518.4499698262275,1.0032057177792901,0.003826860488644547
1518.4571921917527,1518.4571921917527,1.0015680625665886,0.0038265419912949287
1518.4652479071415,1518.4652479071415,1.000360769975276,0.0038281708917376513
1518.4721924893938,1518.4721924893938,0.999786905470258,0.0038321094176363805
1518.4791370716,1518.4791370716,0.9999735129990681,0.0038358417638621376
1518.4860816538526,1518.4860816538526,0.9971696670806223,0.0038377534374356066
1518.4930262360817,1518.4930262360817,1.0037325036189775,0.0038412918034422634
1518.499970818288,1518.499970818288,0.9991855741772344,0.0038431632357167635
1518.5069154005407,1518.5069154005407,0.9979406440648779,0.0038449916745420753
1518.5138599827465,1518.5138599827465,0.9978769752078644,0.0038476422951243135
1518.520804564976,1518.520804564976,0.9992873754344773,0.0038447203935869493
1518.5277491472054,1518.5277491472054,1.0001170726568842,0.003843198089665336
1518.5346937294112,1518.5346937294112,0.9996220154742307,0.0038405609981769255
1518.5416383116408,1518.5416383116408,0.9973564903507823,0.003840149661784576
1518.5485828938467,1518.5485828938467,0.9960910527794958,0.003833774888910091
1518.5555274760295,1518.5555274760295,0.9985160918050049,0.0038344265227387535
1518.5624720582357,1518.5624720582357,0.9996547949312937,0.0038279589089713685
1518.5694166404417,1518.5694166404417,1.0019128304037237,0.003820179349377263
1518.5763612226242,1518.5763612226242,1.0226704008350562,0.0038104863520242345
1518.5833058048304,1518.5833058048304,1.0178356291262793,0.003791532488034209
1518.59025038699,1518.59025038699,1.0011865603270274,0.0037852405610951574
1518.5971949691725,1518.5971949691725,0.9970319191770614,0.003787733266368224
1518.604139551332,1518.604139551332,0.9942901602003353,0.0037936089349770302
1518.6110841334917,1518.6110841334917,0.9960689980950072,0.003795514245766135
1518.618028715651,1518.618028715651,0.9962201228818177,0.0037916669886010183
1518.624973297787,1518.624973297787,0.99989364088836,0.003797700426471292
1518.6319178799235,1518.6319178799235,0.9999192823097092,0.0037979684659922414
1518.6388624620597,1518.6388624620597,1.0039043911960157,0.003799573300112726
1518.6458070441724,1518.6458070441724,1.0161628651958585,0.0038018310657968193
1518.6527516262854,1518.6527516262854,1.0153831497053045,0.0038106639911657373
1518.6596962083752,1518.6596962083752,1.0031819099756294,0.0038042062450994807
1518.666640790488,1518.666640790488,1.0005065132645061,0.0038049539504624156
1518.6735853725543,1518.6735853725543,1.0022591900389717,0.003809887910760051
1518.6805299546209,1518.6805299546209,0.9944768322373971,0.0038094473709898886
1518.6874745366868,1518.6874745366868,1.0008277023316066,0.0038136116271307364
1518.69441911873,1518.69441911873,0.9909392834787802,0.0038154018008117753
1518.701363700773,1518.701363700773,0.9965020351657999,0.0038158228285836405
1518.708308282816,1518.708308282816,0.9988081143040233,0.003820926530639714
1518.7152528648126,1518.7152528648126,0.9992560047564858,0.003822643862989287
1518.722197446809,1518.722197446809,1.0012040165566436,0.003825180032379292
1518.7291420288288,1518.7291420288288,1.0108153124115122,0.0038271774684611967
1518.7360866108022,1518.7360866108022,1.0079747089942857,0.003827397721391495
1518.7430311927753,1518.7430311927753,0.9969051126657134,0.003829999946778121
1518.749975774725,1518.749975774725,0.9985367571200117,0.0038294933043787386
1518.7569203566752,1518.7569203566752,1.0006572313582536,0.003830219031766112
1518.763864938602,1518.763864938602,0.9903180503524543,0.0038308863143277734
1518.7708095205282,1518.7708095205282,0.9987942041319509,0.0038448618638656186
1518.7777541024318,1518.7777541024318,1.0019886441018357,0.003847223317863308
1518.784698684312,1518.784698684312,1.0021065028120293,0.003853317768234063
1518.791643266215,1518.791643266215,1.003723799455177,0.003857495884598227
1518.7985878480488,1518.7985878480488,0.9987402310572776,0.0038577707858734748
1518.8055324298589,1518.8055324298589,1.0012748931007462,0.0038578772120594546
1518.8124770117388,1518.8124770117388,1.0009952951488752,0.003851895409773711
1518.8194215935957,1518.8194215935957,0.9979005135974202,0.0038507577815753277
1518.8263661753365,1518.8263661753365,0.9968160346711394,0.0038382563059180335
1518.8333107571,1518.8333107571,0.9931602347118058,0.003836131752457199
1518.84025533891,1518.84025533891,0.9934233933202631,0.003830604687512721
1518.8471999206504,1518.8471999206504,0.9976021056259089,0.0038299201556524325
1518.8541445024143,1518.8541445024143,1.0165542080489618,0.003831009502452947
1518.8610890841078,1518.8610890841078,1.0075423005293538,0.0038287795188570494
1518.868033665825,1518.868033665825,1.0068660663011442,0.00382723126765218
1518.8749782475186,1518.8749782475186,1.0054557362573973,0.0038259109797674335
1518.8819228291661,1518.8819228291661,1.0026720982988448,0.0038279053292409326
1518.8888674108364,1518.8888674108364,1.001730712714302,0.0038280188892690697
1518.8958119924605,1518.8958119924605,1.0004238209194807,0.003836487245377122
1518.9027565740846,1518.9027565740846,0.994105488941466,0.0038407875481827557
1518.9097011556848,1518.9097011556848,0.9979283636194273,0.0038525952459223427
1518.9166457372626,1518.9166457372626,0.9941458335775115,0.003858493681082783
1518.9235903188398,1518.9235903188398,1.0005642693133767,0.0038678006997124098
1518.9305349003705,1518.9305349003705,0.9965906436538203,0.003872708905785373
1518.9374794819018,1518.9374794819018,1.0044559604876206,0.0038824541291048687
1518.9444240634089,1518.9444240634089,1.0030180522514427,0.0038874929222703796
1518.9513686449163,1518.9513686449163,1.0011536401524743,0.003886483299105364
1518.9583132263779,1518.9583132263779,0.997521664111536,0.0038761798640114934
1518.9652578078387,1518.9652578078387,0.998739447345492,0.003879694652802366
1518.9722023892762,1518.9722023892762,0.9964306780173512,0.003869705497017483
1518.9791469706909,1518.9791469706909,0.9992167463544304,0.0038642594199514804
1518.986091552082,1518.986091552082,0.999545754997144,0.0038570062580319635
1518.9930361334496,1518.9930361334496,0.993765712082963,0.003857454205265449
1518.9999807147942,1518.9999807147942,0.9987666501875172,0.0038493621918574963
1519.0069252961387,1519.0069252961387,1.0263239073637846,0.003855320823762032
1519.013869877437,1519.013869877437,1.013942761129002,0.0038490561498358265
1519.020814458758,1519.020814458758,1.014056857412784,0.003848877150853526
1519.0277590399862,1519.0277590399862,0.9966506450215185,0.003839011947041457
1519.034703621238,1519.034703621238,0.9986580595578536,0.0038527414799644855
1519.041648202489,1519.041648202489,0.9995727926901544,0.0038483132393834123
1519.0485927836708,1519.0485927836708,0.9968666320280594,0.0038577706732706545
1519.0555373648988,1519.0555373648988,0.999564268866,0.0038571936970451448
1519.062481946057,1519.062481946057,0.9981633083394481,0.0038631887763666177
1519.069426527215,1519.069426527215,1.0008230402853175,0.0038705516670228188
1519.0763711083268,1519.0763711083268,1.004820905754649,0.003874015271052254
1519.083315689439,1519.083315689439,1.0004693410662622,0.003879163330150361
1519.0902602705037,1519.0902602705037,0.9953588264359754,0.003870688893219184
1519.0972048515691,1519.0972048515691,0.990982014215629,0.003871256091899109
1519.104149432611,1519.104149432611,0.9950572807763155,0.003870219363811002
1519.1110940136296,1519.1110940136296,1.0057407507068068,0.0038669761400546344
1519.1180385946013,1519.1180385946013,1.0012394392838488,0.0038687743568257783
1519.1249831755736,1519.1249831755736,1.0021653498036402,0.0038615429412750964
1519.1319277565224,1519.1319277565224,1.0040765078003846,0.00385922274631646
1519.1388723374475,1519.1388723374475,1.0044398657722229,0.0038605838877414428
1519.1458169183502,1519.1458169183502,0.996310825710132,0.0038504216165405093
1519.152761499229,1519.152761499229,0.9983319578626556,0.0038555608611949414
