time,time,flux,flux_err
1544.3444238270665,1544.3444238270665,1.0001535353109565,0.0004188783730849935
1544.3527573444728,1544.3527573444728,0.9995759130897129,0.00041865409545941025
1544.3610908619278,1544.3610908619278,0.9999246443134352,0.00041820643433415465
1544.3694243794314,1544.3694243794314,1.0006188409861068,0.0004179852949544264
1544.3770634371717,1544.3770634371717,0.9998354609027535,0.0003810461637274677
1544.3840080351672,1544.3840080351672,0.9996520249242854,0.0003811823375346733
1544.390952633175,1544.390952633175,0.9998900878283855,0.00038080214983763564
1544.3978972312166,1544.3978972312166,1.0002617642299807,0.0003806874757778668
1544.404841829294,1544.404841829294,1.0005604319658734,0.00038034947404566057
1544.4117864273824,1544.4117864273824,0.9997137425700799,0.0003800873984972415
1544.4187310255177,1544.4187310255177,0.9997972466265646,0.00037971983647898454
1544.4256756236878,1544.4256756236878,1.0001606800729226,0.00037965925213704493
1544.4326202218579,1544.4326202218579,0.9996967914429756,0.00037929663640688216
1544.4395648200511,1544.4395648200511,1.0002183289880686,0.0003794617761748554
1544.4465094182797,1544.4465094182797,1.0001294180683147,0.00037912325647291347
1544.453454016543,1544.453454016543,0.9998283547204856,0.00037896034352574834
1544.460398614818,1544.460398614818,0.9996447080480833,0.00037885614456447644
1544.4673432131278,1544.4673432131278,0.9999531268736179,0.00037862164131386344
1544.4742878114607,1544.4742878114607,1.0009374059055485,0.0003787273124116004
1544.481232409829,1544.481232409829,1.0002235073945922,0.00037850348214141054
1544.488177008197,1544.488177008197,0.9996439172913332,0.00037846437953817185
1544.4951216066,1544.4951216066,0.9999696624215672,0.0003781879950741267
1544.5020662050144,1544.5020662050144,0.999304115826755,0.00037841024292384654
1544.5090108034756,1544.5090108034756,1.000201871076981,0.0003783203677179031
1544.5159554019374,1544.5159554019374,0.9997543388462471,0.00037835583514448355
1544.5229000004213,1544.5229000004213,0.9995167384064644,0.00037794814352679583
1544.529844598929,1544.529844598929,0.9998871645545602,0.0003780059410194414
1544.5367891974602,1544.5367891974602,1.0002024745464857,0.000378186230893293
1544.5437337960143,1544.5437337960143,1.0003968348131032,0.00037791329492098646
1544.5506783945805,1544.5506783945805,1.0000597246321994,0.00037802543704697656
1544.5576229931812,1544.5576229931812,1.0000764712737997,0.000377729998061568
1544.5645675917938,1544.5645675917938,0.9995440538366518,0.00037772028247128894
1544.571512190418,1544.571512190418,1.0005558255997182,0.00037772994883422846
1544.578456789054,1544.578456789054,0.999978284870626,0.00037769547971042226
1544.5854013877245,1544.5854013877245,0.999796477253334,0.00037753237377846784
1544.5923459864068,1544.5923459864068,0.9995418822450872,0.0003776685600880852
1544.5992905851008,1544.5992905851008,0.9995399596760166,0.00037765069679014055
1544.6062351838295,1544.6062351838295,1.000227334054149,0.0003775958319520795
1544.613179782547,1544.613179782547,1.000092084729682,0.00037759482617933033
1544.6201243812995,1544.6201243812995,1.0001772435576322,0.0003778553663620086
1544.6270689800863,1544.6270689800863,0.9995143580803039,0.0003773232692077321
1544.634291362812,1544.634291362812,1.0000320198121826,0.00037739159385601767
1544.6423470974228,1544.6423470974228,1.0002236572913332,0.0003774781084102981
1544.649291696245,1544.649291696245,1.000887819812426,0.00037747622073267743
1544.6562362950785,1544.6562362950785,1.0000291540287842,0.00037754850195118804
1544.663180893924,1544.663180893924,1.0000424505982253,0.0003771818879305459
1544.670125492781,1544.670125492781,0.9998058678338939,0.000377167817672732
1544.677070091661,1544.677070091661,0.9995937961741429,0.00037713206969875623
1544.6840146905647,1544.6840146905647,0.9999753498740145,0.00037730782155086023
1544.6909592894565,1544.6909592894565,0.9996293919930626,0.00037707122822534567
1544.697903888372,1544.697903888372,0.9999876457219943,0.000377042358979362
1544.7048484872985,1544.7048484872985,1.000433150453103,0.0003771126983412866
1544.711793086249,1544.711793086249,1.0001963498164639,0.0003770183645173819
1544.7187376851875,1544.7187376851875,1.0004136576761788,0.0003770710802248119
1544.7256822841607,1544.7256822841607,0.9999629156650865,0.00037690854085419223
1544.7326268831343,1544.7326268831343,1.0001102667696506,0.0003771916935501786
1544.7395714821191,1544.7395714821191,0.9997571835716877,0.0003768519178020173
1544.7465160811275,1544.7465160811275,0.9997251391869882,0.00037688970654503227
1544.753460680136,1544.753460680136,0.9999430067062308,0.0003769760767831939
1544.760405279179,1544.760405279179,1.0001647788707924,0.00037679228246299384
1544.7673498782224,1544.7673498782224,1.000095113758111,0.0003769391226980065
1544.7742944772658,1544.7742944772658,1.0002304683514205,0.00037699805898047027
1544.7812390763088,1544.7812390763088,0.999525950741101,0.0003765613738699415
1544.788183675352,1544.788183675352,0.9999900444817216,0.00037669715926057484
1544.7951282744302,1544.7951282744302,1.0004448482797006,0.00037695687097794283
1544.8020728735085,1544.8020728735085,1.0001964859622308,0.0003766330171849454
1544.809017472598,1544.809017472598,1.0003738119340029,0.0003766665283338081
1544.8159620716997,1544.8159620716997,0.9994345532653005,0.00037660222921949416
1544.8229066708125,1544.8229066708125,1.0000067604439387,0.00037665182823976435
1544.8298512699257,1544.8298512699257,0.9999669481944611,0.00037672521160094294
1544.8367958690503,1544.8367958690503,1.000185948497273,0.00037667665857739135
1544.843740468187,1544.843740468187,1.0003217108898985,0.00037656374552584094
1544.8506850673234,1544.8506850673234,0.999989201952085,0.00037637181311875345
1544.8576296664714,1544.8576296664714,0.9995526500589232,0.00037631575942323676
1544.8645742656308,1544.8645742656308,0.9996968804147706,0.0003762922059231063
1544.8715188647907,1544.8715188647907,1.0001911453877317,0.00037622601084660623
1544.8784634639621,1544.8784634639621,0.9994909753166675,0.0003761885752135085
1544.8854080631331,1544.8854080631331,1.0004053289251669,0.00037638931539851463
1544.892352662328,1544.892352662328,1.0003448845073701,0.00037624042213986415
1544.899297261511,1544.899297261511,1.0003820499774878,0.0003762041959409319
1544.9062418607054,1544.9062418607054,0.9999976096278868,0.00037630868414654064
1544.9131864599,1544.9131864599,1.000108194453342,0.0003759761721339759
1544.9201310591059,1544.9201310591059,0.9997503421731558,0.00037592954286348973
1544.9270756583242,1544.9270756583242,0.9998635711339554,0.0003760286700240858
1544.9340202575302,1544.9340202575302,0.9998758662575365,0.0003760365977550474
1544.9409648567478,1544.9409648567478,0.9993450370382895,0.00037572395011354205
1544.9479094559895,1544.9479094559895,1.000057210455481,0.0003758759265751891
1544.9548540552073,1544.9548540552073,1.00037651677531,0.0003757279025204438
1544.9617986544367,1544.9617986544367,1.000085409602884,0.0003761074484038217
1544.968743253678,1544.968743253678,1.0000921288621383,0.0003757680993529123
1544.9756878529308,1544.9756878529308,1.0001131045827403,0.0003755719052140836
1544.9826324521719,1544.9826324521719,1.000403961296692,0.00037561277446268853
1544.9895770514245,1544.9895770514245,0.9994993385073325,0.00037526367777608344
1544.9965216506773,1544.9965216506773,0.9997419120553201,0.0003754837698482922
1545.0034662499304,1545.0034662499304,0.9998138496413104,0.00037516115847147324
1545.0104108491946,1545.0104108491946,1.0002872813453316,0.0003752938836344081
1545.0173554484595,1545.0173554484595,0.9997418661043002,0.0003752826177810633
1545.0243000477233,1545.0243000477233,1.0003962084977132,0.0003751991663232553
1545.031244646988,1545.031244646988,1.0003681299675304,0.0003754032036272654
1545.038189246264,1545.038189246264,0.9998697381604822,0.0003750605646781222
1545.0451338455284,1545.0451338455284,1.0002101812034878,0.0003748846755342229
1545.0520784448042,1545.0520784448042,0.999377306361465,0.0003748334857028862
1545.0590230440803,1545.0590230440803,1.0002847806815405,0.00037501948602604865
1545.0659676433684,1545.0659676433684,0.9994172689707304,0.00037492674937496424
1545.0729122426444,1545.0729122426444,1.0003480177220356,0.0003749950914078584
1545.0798568419207,1545.0798568419207,0.9999929167274553,0.00037502335454561584
1545.0868014412083,1545.0868014412083,1.0002265180943577,0.00037476089914085674
1545.0937460404843,1545.0937460404843,1.000193218908823,0.0003747234032790558
1545.100690639772,1545.100690639772,1.000195525227467,0.00037465685848409394
1545.1076352390594,1545.1076352390594,0.9995039125573397,0.000374542115139527
1545.114579838347,1545.114579838347,1.0002667488813186,0.00037471228056812014
1545.1215244376351,1545.1215244376351,0.9995499030273125,0.0003746983512324119
1545.1284690369107,1545.1284690369107,0.9999213625066998,0.0003746098097440334
1545.135413636199,1545.135413636199,0.9995277809583172,0.00037454388698531535
1545.1423582354862,1545.1423582354862,1.0010452634425464,0.00037436254360726537
1545.1493028347745,1545.1493028347745,1.0003356139299895,0.0003742877969794338
1545.1562474340622,1545.1562474340622,0.9995276149399783,0.0003742273925984246
1545.1631920333496,1545.1631920333496,0.9996169649505087,0.0003745330075863714
1545.1701366326256,1545.1701366326256,1.0000619941470792,0.00037452149322206914
1545.1770812319132,1545.1770812319132,1.0000037708651655,0.00037430725015554693
1545.1840258311893,1545.1840258311893,0.9999216340054853,0.00037409899204102453
1545.1909704304774,1545.1909704304774,1.0003258454929802,0.0003741526674293236
1545.1979150297532,1545.1979150297532,1.0003408546035206,0.00037413166936227924
1545.204859629041,1545.204859629041,1.0002948240917646,0.0003740189817985545
1545.211804228317,1545.211804228317,0.9998677129544673,0.00037396137371943655
1545.2187488275931,1545.2187488275931,0.9993288231166708,0.0003738422290832033
1545.2256934268692,1545.2256934268692,0.9993733939779794,0.00037375483694512395
1545.2326380261336,1545.2326380261336,1.0003241407484276,0.0003739241518912086
1545.2395826254094,1545.2395826254094,0.9997538481024117,0.0003740422321718913
1545.246527224674,1545.246527224674,1.000137154215989,0.00037385011459704123
1545.2534718239501,1545.2534718239501,1.000109877028391,0.0003739360651557861
1545.2604164232027,1545.2604164232027,1.0008796431431004,0.00037379603720247653
1545.2673610224674,1545.2673610224674,1.000369747182991,0.0003737573867226723
1545.2743056217316,1545.2743056217316,1.000170409114143,0.0003738119874698651
1545.2812502209729,1545.2812502209729,0.9993576290968402,0.00037361480349280043
1545.288194820237,1545.288194820237,1.0003276750920516,0.00037381991479473297
1545.2951394194783,1545.2951394194783,0.9996357371659231,0.0003734587069939265
1545.3020840187314,1545.3020840187314,1.0003974875921364,0.0003735842178387081
1545.3090286179727,1545.3090286179727,0.9992763547760543,0.0003735478217765687
1545.3159732172135,1545.3159732172135,0.9996485586175787,0.00037338388736908004
1545.322917816443,1545.322917816443,1.0005362735959757,0.0003738379793851616
1545.329862415684,1545.329862415684,1.000584502051864,0.00037329679048037404
1545.336807014902,1545.336807014902,0.9997538866665836,0.00037325185364998296
1545.3437516141316,1545.3437516141316,0.9999627178317676,0.0003731250837171053
1545.3506962133495,1545.3506962133495,0.9997008737819364,0.0003731169737266137
1545.3576408125673,1545.3576408125673,1.0003287437936461,0.0003731785815039389
1545.3645854117851,1545.3645854117851,0.9999930899196278,0.0003730961886325894
1545.3715300109911,1545.3715300109911,1.0001493411353057,0.00037296658444941136
1545.3784746101976,1545.3784746101976,0.9996393689645859,0.0003729177278984063
1545.3854192093804,1545.3854192093804,1.0000466889560142,0.0003731047435845781
1545.3923638085867,1545.3923638085867,1.0001967330017416,0.0003732383885488715
1545.3993084077813,1545.3993084077813,1.0001709008172572,0.00037314801992474297
1545.4062530069525,1545.4062530069525,0.9998322382175212,0.00037281195877090606
1545.4131976061353,1545.4131976061353,1.0000234545487987,0.0003729123245857562
1545.4201422053186,1545.4201422053186,0.9995075594035822,0.0003728639141154311
1545.4270868044894,1545.4270868044894,1.0002833492847718,0.00037300198526001146
1545.4340314036494,1545.4340314036494,1.0003873164069141,0.0003731007663709914
1545.4409760028088,1545.4409760028088,0.9996625409305041,0.0003727322494737045
1545.447920601957,1545.447920601957,0.999710906058044,0.0003726328631647436
1545.454865201105,1545.454865201105,0.9998272841534417,0.0003726802231424766
1545.4618098002413,1545.4618098002413,1.0002095643394235,0.0003727514036324782
1545.4687543993778,1545.4687543993778,1.0002924242192683,0.000373095627465069
1545.475698998514,1545.475698998514,1.0004086324997685,0.00037272453756776087
1545.4826435976388,1545.4826435976388,0.9994161459864339,0.0003728301331031419
1545.4895881967518,1545.4895881967518,1.000042289576255,0.0003729343957835934
1545.4965327958648,1545.4965327958648,1.0003383652596767,0.00037312062027090875
1545.503477394966,1545.503477394966,1.0001070973080641,0.0003726710964454136
1545.5104219940677,1545.5104219940677,0.9994220342658439,0.000372566366851099
1545.5173665931693,1545.5173665931693,1.0000395804993254,0.0003726823532412407
1545.5243111922473,1545.5243111922473,1.0002221461773442,0.00037293547338120914
1545.5312557913137,1545.5312557913137,1.000039923601146,0.00037287858244751095
1545.5382003904037,1545.5382003904037,1.000196223822425,0.0003730444433225995
1545.5451449894583,1545.5451449894583,0.9998289647345351,0.00037292895243500225
1545.5520895885015,1545.5520895885015,0.9997579321870683,0.00037289609393234113
1545.5590341875447,1545.5590341875447,0.9999834752575225,0.00037271329404629154
1545.565978786588,1545.565978786588,1.0000925183310205,0.00037275158826519886
1545.5729233856314,1545.5729233856314,1.0001179165118497,0.0003727615088192431
1545.5798679846744,1545.5798679846744,0.9999791313586026,0.0003726801363287104
1545.586812583706,1545.586812583706,0.9999705205369693,0.00037265318075432234
1545.5937571827026,1545.5937571827026,0.999821907230983,0.00037262618373828753
1545.6007017817112,1545.6007017817112,1.000099866962636,0.00037273051317936927
1545.6076463807194,1545.6076463807194,0.9998287333158962,0.0003727034584627984
1545.6145909797042,1545.6145909797042,1.0007910015694566,0.00037276790869613643
1545.621535578689,1545.621535578689,1.000271558368816,0.0003727420287963424
1545.628480177663,1545.628480177663,1.0001357870853347,0.00037273507142439164
1545.635424776636,1545.635424776636,0.9998082683222618,0.00037288092343212403
1545.6423693755748,1545.6423693755748,0.9996795321112592,0.00037273972690256806
1545.6493139745478,1545.6493139745478,1.0006116009372579,0.0003729391446690208
1545.656258573475,1545.656258573475,1.0000774645256025,0.00037263725932378135
1545.6632031724132,1545.6632031724132,1.0002793478502774,0.00037287630970719464
1545.67014777134,1545.67014777134,1.000115699017131,0.0003728030511958453
1545.6770923702436,1545.6770923702436,0.9998871972253381,0.00037276178790024244
1545.6840369691588,1545.6840369691588,0.9994705586047861,0.00037290526904630307
1545.6909815680622,1545.6909815680622,0.9998470448630113,0.0003726793349914571
1545.6979261669426,1545.6979261669426,1.0001580698128474,0.0003726975903041529
1545.7048707658341,1545.7048707658341,0.9997866052991992,0.00037281097177975004
1545.711815364703,1545.711815364703,1.0002675674384072,0.0003729038703150116
1545.7187599635602,1545.7187599635602,1.0000395809173317,0.00037296204690741557
1545.7257045624049,1545.7257045624049,1.0003666972302887,0.00037293067958784037
1545.732649161262,1545.732649161262,1.0002109822433831,0.0003727133175218168
1545.7395937600959,1545.7395937600959,0.9998831825451153,0.00037278159854390707
1545.7465383589297,1545.7465383589297,1.000046024275176,0.0003728413785057408
1545.75348295774,1545.75348295774,0.9994510894007049,0.00037284752139791377
1545.7604275565386,1545.7604275565386,0.9994655742636368,0.0003726804820929793
1545.7673721553488,1545.7673721553488,1.0002359347707759,0.0003728228069875324
1545.7743167541364,1545.7743167541364,1.0001806594417124,0.00037266060847006424
1545.7812613529113,1545.7812613529113,0.9999654473254797,0.00037274844749165463
1545.7882059516637,1545.7882059516637,0.9999507476190448,0.00037281791809507317
1545.7951505504159,1545.7951505504159,1.0002891372427194,0.00037270537971087253
1545.8020951491683,1545.8020951491683,1.0000388386595345,0.0003726625737812448
1545.80903974792,1545.80903974792,1.0006109669935934,0.0003728871147975714
1545.8159843466608,1545.8159843466608,0.9994970126574094,0.0003725825696897423
1545.8229289453661,1545.8229289453661,0.9993342559458285,0.00037265540361620985
1545.829873544084,1545.829873544084,1.0002624925507448,0.00037283683816175645
1545.8368181427775,1545.8368181427775,1.0000195217588594,0.00037282755233451173
1545.8437627414714,1545.8437627414714,0.9996360796000543,0.00037304199483338197
1545.8507073401422,1545.8507073401422,0.9998552846654514,0.0003727001145422134
1545.857651938813,1545.857651938813,0.9998915147947507,0.00037290424062745743
1545.8645965374722,1545.8645965374722,1.0003886652097236,0.0003728581722244076
1545.8715411361077,1545.8715411361077,1.0003281908849,0.0003730446334429856
1545.8784857347432,1545.8784857347432,0.9995116914781921,0.00037270053946225975
1545.8854303333678,1545.8854303333678,0.999513513234556,0.0003727382012546663
1545.8923749319686,1545.8923749319686,1.0008354616269082,0.00037318117851438035
1545.8993195305807,1545.8993195305807,0.9997629878633927,0.0003729643159536223
1545.9062641291703,1545.9062641291703,0.9998372457296891,0.00037274512713193764
1545.9132087277474,1545.9132087277474,1.0003058142880772,0.0003729509598309694
1545.9201533263254,1545.9201533263254,1.0000147148703988,0.0003727154538257932
1545.9270979248793,1545.9270979248793,0.9999414811150672,0.0003726063278595486
1545.9340425234336,1545.9340425234336,0.9996561794280593,0.0003728453846143505
1545.9409871219646,1545.9409871219646,0.9995672769314222,0.0003726387309538009
1545.9479317204846,1545.9479317204846,1.0004874052068444,0.00037304449211262
1545.9548763189919,1545.9548763189919,1.0002188026857883,0.00037279231870738507
1545.9618209174994,1545.9618209174994,1.0006677124393726,0.0003727814371036951
1545.9687655159837,1545.9687655159837,0.9996396522730233,0.0003726976655251017
1545.97571011448,1545.97571011448,0.9995204538170104,0.0003728047453717026
1545.982654712941,1545.982654712941,1.000221039393017,0.00037281965165101796
1545.9895993114021,1545.9895993114021,1.00010684517397,0.000372814176767631
1545.9965439098282,1545.9965439098282,1.0001786041318699,0.0003727955488390756
1546.0034885082666,1546.0034885082666,0.999642510315709,0.0003729529600022112
1546.010433106681,1546.010433106681,1.0003193652160924,0.0003728584672138845
1546.0173777050836,1546.0173777050836,0.9995920369791209,0.0003728443076307095
1546.0243223034865,1546.0243223034865,0.9995102098970572,0.0003727086160482286
1546.0312669018663,1546.0312669018663,1.000333509647041,0.0003729657900696245
1546.038211500246,1546.038211500246,1.000320602269546,0.0003728483134948226
1546.0451560985903,1546.0451560985903,0.9995765030395244,0.00037294078027382867
1546.052100696947,1546.052100696947,0.9997470868440933,0.00037272750605804865
1546.0590452952686,1546.0590452952686,1.000460821239424,0.0003731016904700181
1546.06598989359,1546.06598989359,0.9999767218201956,0.000372721788001886
1546.0729344918998,1546.0729344918998,1.000199264385509,0.0003728628508845734
1546.0798790902095,1546.0798790902095,1.0003785322703813,0.00037288289798587896
1546.0868236884842,1546.0868236884842,1.0001299792797207,0.00037291512456589127
1546.093768286771,1546.093768286771,0.9996979948863023,0.0003727585799851158
1546.1007128850106,1546.1007128850106,0.999835842846525,0.00037275021638086975
