time,time,flux,flux_err
1354.1142798507678,1354.1142798507678,1.0000108902539038,0.0005960350413849469
1354.123076279105,1354.123076279105,0.9998814408087308,0.0005958998049671851
1354.1314097377287,1354.1314097377287,1.0000921964683056,0.000595957015597335
1354.1390487416224,1354.1390487416224,0.9997468789645316,0.0005440377084206175
1354.145993290756,1354.145993290756,1.0006952094476818,0.0005440946029357928
1354.1529378400173,1354.1529378400173,0.9994898442849852,0.0005439722480185838
1354.159882389407,1354.159882389407,0.9995593739645667,0.0005439868468747977
1354.1668269389188,1354.1668269389188,1.0003123962596103,0.0005440716646797245
1354.1737714885355,1354.1737714885355,0.9999506024761328,0.0005439960634979673
1354.1807160382918,1354.1807160382918,1.0000271612869198,0.0005441763067436628
1354.1876605881591,1354.1876605881591,0.9996835725521647,0.0005439736603536426
1354.1946051381424,1354.1946051381424,1.0002391024985822,0.0005440197245499217
1354.2015496882536,1354.2015496882536,0.9998636989286028,0.0005439014530389267
1354.208494238464,1354.208494238464,1.00043548434716,0.0005440368881607373
1354.2154387887906,1354.2154387887906,1.0001929828714344,0.0005439283883198293
1354.222383339228,1354.222383339228,0.9991171439460176,0.0005436029455525537
1354.229327889776,1354.229327889776,1.0007541096931973,0.0005439312847014397
1354.2362724404404,1354.2362724404404,0.9995253431166843,0.0005436240926590938
1354.2432169911979,1354.2432169911979,1.0003601577504424,0.000543755590804234
1354.2501615420601,1354.2501615420601,1.0003896899985334,0.0005437740338851815
1354.2571060930327,1354.2571060930327,0.9992004550140852,0.0005436432916363364
1354.264050644105,1354.264050644105,1.0008062343428175,0.0005439724297077247
1354.2709951952813,1354.2709951952813,0.9990202900188347,0.0005435220893713672
1354.277939746557,1354.277939746557,1.0005696589574309,0.0005439324520896526
1354.2848842979372,1354.2848842979372,1.0005539792208167,0.0005438984800728687
1354.291828849399,1354.291828849399,0.999621405246281,0.0005436776614603874
1354.2987734009714,1354.2987734009714,0.9998279735942399,0.0005437723790147165
1354.3057179526254,1354.3057179526254,0.9995535760097004,0.0005436583950788639
1354.3126625043842,1354.3126625043842,1.0004378583077969,0.0005438939968875205
1354.3196070562303,1354.3196070562303,0.9997709053936777,0.0005436488061207589
1354.3265516081633,1354.3265516081633,1.0002938893037137,0.0005437988199708282
1354.33349616019,1354.33349616019,0.9996488909899537,0.000543722104782671
1354.3404407123094,1354.3404407123094,1.0001427454073397,0.0005437923309260321
1354.3473852645045,1354.3473852645045,1.0008522695500546,0.0005439625176831765
1354.354329816787,1354.354329816787,0.9997592544482152,0.0005437460272030929
1354.361274369157,1354.361274369157,0.9995326926381143,0.0005437519037384531
1354.3682189216083,1354.3682189216083,0.9994534597156297,0.0005436413823667839
1354.3751634741411,1354.3751634741411,0.9997733068411915,0.0005438290003388159
1354.3821080267494,1354.3821080267494,1.0011549781507971,0.0005440119899947618
1354.3890525794454,1354.3890525794454,0.9999209118953477,0.0005436970835278074
1354.395997132217,1354.395997132217,0.9997230258282255,0.0005436817402135541
1354.402941685064,1354.402941685064,1.0000065823328967,0.0005436604934641661
1354.4098862379872,1354.4098862379872,0.9995120380084982,0.0005436611027379
1354.4168307909854,1354.4168307909854,1.0003558825204135,0.0005437392462362236
1354.4237753440598,1354.4237753440598,1.0003076001204723,0.0005437893479191913
1354.4307198972092,1354.4307198972092,0.9992808673188458,0.0005435550584240939
1354.4376644504232,1354.4376644504232,1.0001546875814975,0.000543663234443836
1354.444609003707,1354.444609003707,1.000487985487086,0.0005437567689769136
1354.4515535570663,1354.4515535570663,1.0003923597749231,0.0005438360107449375
1354.4584981104956,1354.4584981104956,1.0008873022793496,0.0005438395235725863
1354.4654426639831,1354.4654426639831,0.9993392597545446,0.0005435881968826091
1354.472387217534,1354.472387217534,0.9991383005224905,0.0005435571405051336
1354.479331771156,1354.479331771156,0.9997476195988204,0.0005437484821365606
1354.486276324847,1354.486276324847,0.9991669393728522,0.0005435408287715372
1354.493220878602,1354.493220878602,1.0004159129017638,0.0005436992611278083
1354.50016543241,1354.50016543241,0.9999760553301288,0.0005437836034806176
1354.507109986293,1354.507109986293,1.0006110516448217,0.00054369167663085
1354.5140545402169,1354.5140545402169,1.0005054097567585,0.0005437316544942397
1354.5209990942053,1354.5209990942053,1.000438559012471,0.0005436534459870429
1354.5279436482572,1354.5279436482572,0.9999557722853634,0.0005434975433550375
1354.5348882023675,1354.5348882023675,0.999300561097375,0.0005434674063751945
1354.54183275653,1354.54183275653,0.9993547673532286,0.0005434093909382329
1354.548777310751,1354.548777310751,0.9998397179465472,0.0005436196725002191
1354.5557218650304,1354.5557218650304,1.000449168513411,0.0005437055180429075
1354.5626664193555,1354.5626664193555,1.0003005296761136,0.0005436174574729242
1354.5696109737394,1354.5696109737394,1.0006099615230497,0.0005437414433622581
1354.5765555281814,1354.5765555281814,1.0004783790562934,0.0005437020609159478
1354.5835000826585,1354.5835000826585,0.9991382726752012,0.0005434044460276247
1354.5904446372056,1354.5904446372056,0.9994213572343462,0.0005434607695769055
1354.597389191787,1354.597389191787,1.0001261490350566,0.0005436363997979714
1354.604333746415,1354.604333746415,0.999661942468913,0.0005434947202545201
1354.611278301102,1354.611278301102,1.0002206527520237,0.0005436808193578533
1354.6182228558348,1354.6182228558348,1.0005665451961712,0.0005437380782213384
1354.6251674106147,1354.6251674106147,1.000043537982429,0.0005436488665514294
1354.6321119654292,1354.6321119654292,0.9997263136181174,0.0005435790126490556
1354.639056520296,1354.639056520296,1.0002839162077835,0.0005436394567513641
1354.6460010752098,1354.6460010752098,1.0007014740873208,0.0005438068396113971
1354.652945630164,1354.652945630164,0.9995896865118821,0.0005435241609252474
1354.659890185159,1354.659890185159,0.9994570561159006,0.0005435944181128398
1354.666834740195,1354.666834740195,0.9997879760897577,0.0005434913090086363
1354.6737792952713,1354.6737792952713,0.9998747762458571,0.0005436468925050392
1354.680723850394,1354.680723850394,0.9998156400133981,0.000543710960897459
1354.6876684055526,1354.6876684055526,1.0002562496675096,0.0005436509878822889
1354.6946129607509,1354.6946129607509,0.9994149738489625,0.0005434480338109128
1354.7015575159908,1354.7015575159908,1.0012405357642349,0.000543779078264091
1354.7085020712652,1354.7085020712652,1.0000311197117822,0.0005436431613862486
1354.7154466265802,1354.7154466265802,0.9992056174715082,0.0005434618023824911
1354.722391181919,1354.722391181919,1.0009953656229276,0.000543795549345112
1354.7293357373037,1354.7293357373037,0.9994507225237061,0.0005434012021009471
1354.736280292724,1354.736280292724,1.0005009999855081,0.0005436527401909537
1354.7432248481784,1354.7432248481784,0.9999502909840354,0.0005435681811608726
1354.7501694036682,1354.7501694036682,0.9998129429409689,0.0005436011157008793
1354.7571139591869,1354.7571139591869,0.9988507219448953,0.00054339346375325
1354.7640585147353,1354.7640585147353,0.9999096231813167,0.0005435879020683961
1354.7710030703179,1354.7710030703179,1.0006953282423379,0.0005437685312657933
1354.7779476259361,1354.7779476259361,1.0006121866649458,0.0005437683870969331
1354.7848921815828,1354.7848921815828,1.000857788720807,0.0005437924706174948
1354.791836737259,1354.791836737259,0.9994722658589478,0.0005436207678167861
1354.7987812929641,1354.7987812929641,1.0003602051627252,0.0005436365834348984
1354.8057258486983,1354.8057258486983,0.9996486492122063,0.0005435698233396627
1354.8126704044619,1354.8126704044619,1.0000942580248968,0.0005435801205372179
1354.819614960254,1354.819614960254,0.9996757349277064,0.0005434319804313939
1354.8265595160697,1354.8265595160697,1.0002293336362047,0.0005436156539602688
1354.833504071915,1354.833504071915,0.9998030258536714,0.0005435900579451021
1354.8404486277946,1354.8404486277946,1.0002845704936572,0.0005436997910171213
1354.847393183686,1354.847393183686,1.000319396440554,0.0005436147477080944
1354.8543377396068,1354.8543377396068,0.9995481743184669,0.0005436393618562215
1354.8612822955504,1354.8612822955504,1.000536186506725,0.0005436594778829293
1354.8682268515295,1354.8682268515295,0.9998666426266855,0.0005435880761640789
1354.8751714075195,1354.8751714075195,0.9997049192181648,0.0005435588215013519
1354.882115963539,1354.882115963539,0.9997904432561995,0.0005435121671912111
1354.8890605195877,1354.8890605195877,1.0000087814593877,0.0005435217189499514
1354.896005075648,1354.896005075648,0.9998191202276916,0.0005436233114019975
1354.9029496317198,1354.9029496317198,0.9998966786543466,0.0005435696523530991
1354.9098941878383,1354.9098941878383,1.0002942298218858,0.000543690308093469
1354.9168387439622,1354.9168387439622,0.9999928318656535,0.0005435483448531832
1354.92378330011,1354.92378330011,1.000296035567262,0.000543636527362607
1354.931005638525,1354.931005638525,1.000280737150811,0.00054365454427513
1354.939061323707,1354.939061323707,1.0001570630264998,0.0005436142870291988
1354.9460058799184,1354.9460058799184,0.9997478663653826,0.0005433822704752859
1354.9529504361417,1354.9529504361417,0.9997190046591327,0.0005434954313567985
1354.959894992388,1354.959894992388,0.9999561123546321,0.000543472596331501
1354.966839548658,1354.966839548658,1.0002836661954195,0.0005435447847767772
1354.973784104939,1354.973784104939,0.9992521776556236,0.0005433990894204504
1354.9807286612383,1354.9807286612383,0.9996075494680706,0.0005434265073285082
1354.9876732175544,1354.9876732175544,1.0008908910585492,0.0005436811602831498
1354.9946177738825,1354.9946177738825,0.9999823990965042,0.0005435409893643287
1355.001562330228,1355.001562330228,0.9999590365040602,0.0005434654401777
1355.0085068865908,1355.0085068865908,0.9997989422318249,0.0005433999325687257
1355.0154514429712,1355.0154514429712,0.9997350745139357,0.0005434366238433101
1355.0223959993632,1355.0223959993632,0.9999177241869865,0.0005433936699569881
1355.029340555761,1355.029340555761,1.0007589051494716,0.0005435651198993241
1355.0362851121822,1355.0362851121822,1.0000658794271453,0.0005433806581207763
1355.0432296686151,1355.0432296686151,0.9998200367814031,0.0005432895720287289
1355.0501742250594,1355.0501742250594,0.9998925211844865,0.0005433210212644656
1355.0571187815215,1355.0571187815215,0.9999690509938771,0.0005433968916815608
1355.0640633379892,1355.0640633379892,1.0003411915260818,0.0005435150823828563
1355.071007894474,1355.071007894474,0.9996809980830388,0.0005433334473676819
1355.0779524509708,1355.0779524509708,0.999714270548518,0.0005434165491407267
1355.0848970074735,1355.0848970074735,0.9998861060341392,0.0005433362990036271
1355.091841563982,1355.091841563982,1.0004212626236515,0.0005435049569539975
1355.0987861205197,1355.0987861205197,1.0003097177978297,0.0005435642923371141
1355.105730677057,1355.105730677057,1.0003483016072672,0.0005435989684046013
1355.1126752335947,1355.1126752335947,0.9990571936456869,0.0005432802972316316
1355.1196197901613,1355.1196197901613,1.0009311577025921,0.0005437403952596279
1355.1265643467218,1355.1265643467218,0.9998424018679127,0.0005434715475201274
1355.1335089033005,1355.1335089033005,0.9994570946257451,0.0005434229352935936
1355.1404534598785,1355.1404534598785,1.0002540711881438,0.0005435427875703856
1355.1473980164744,1355.1473980164744,0.9997524098540665,0.000543425697828646
1355.1543425730756,1355.1543425730756,0.9992959840496141,0.0005433650804666235
1355.1612871296834,1355.1612871296834,0.9998608989871727,0.0005434365063424947
1355.1682316862968,1355.1682316862968,0.999975657782544,0.0005434133854790438
1355.1751762429212,1355.1751762429212,1.0006985657266914,0.0005434721047185836
1355.182120799552,1355.182120799552,1.000171367561167,0.000543356574043354
1355.189065356189,1355.189065356189,1.0000335376071483,0.0005434921261263904
1355.196009912825,1355.196009912825,1.0007638315703602,0.0005434732852946894
1355.2029544694792,1355.2029544694792,0.9995396577748515,0.000543275799486619
1355.209899026133,1355.209899026133,1.0003527423669751,0.00054340489224589
1355.216843582793,1355.216843582793,1.000046705592399,0.0005432803499724884
1355.2237881394528,1355.2237881394528,0.9990271736518583,0.0005432437922530326
1355.2307326961297,1355.2307326961297,1.000282588089339,0.0005434711517139952
1355.2376772528128,1355.2376772528128,1.0000798558353297,0.0005435538690461429
1355.2446218094958,1355.2446218094958,1.0003983319809178,0.0005436197609097061
1355.251566366179,1355.251566366179,0.9993360110358138,0.0005435369851736196
1355.2585109228621,1355.2585109228621,1.0003897264956694,0.0005436625205204602
1355.2654554795452,1355.2654554795452,1.000863873373725,0.0005436816056965465
1355.2724000362396,1355.2724000362396,0.9987516013467476,0.0005433859199898542
1355.2793445929406,1355.2793445929406,1.0002751387746596,0.0005436510910841966
1355.286289149641,1355.286289149641,0.9989692630889284,0.0005433107263536159
1355.2932337063414,1355.2932337063414,0.9998439311523463,0.0005434723390067074
1355.3001782630477,1355.3001782630477,1.000074072014345,0.0005433867534285839
1355.30712281976,1355.30712281976,1.0006878299755713,0.0005435071655585068
1355.3140673764722,1355.3140673764722,1.000630937044674,0.0005434827985189483
1355.3210119331843,1355.3210119331843,1.0003163346042405,0.0005435177801717086
1355.3279564899024,1355.3279564899024,0.9997329985453165,0.0005432943755824382
1355.3360121756953,1355.3360121756953,1.0001510639341054,0.0005432468458379241
1355.3432345146753,1355.3432345146753,0.9995665689583934,0.0005431495745539172
1355.350179071393,1355.350179071393,0.9998586871297019,0.0005432181425741884
1355.3571236281168,1355.3571236281168,0.9994910806857131,0.000543284739901422
1355.3640681848349,1355.3640681848349,1.0005216346652053,0.000543478383948026
1355.3710127415525,1355.3710127415525,1.0002444328090943,0.0005433787952277351
1355.3779572982767,1355.3779572982767,1.0001470369804086,0.0005433451911573442
1355.3849018550004,1355.3849018550004,0.9997492938996352,0.0005433827069411471
1355.3918464117182,1355.3918464117182,1.0006746316737865,0.0005435240128699159
1355.4001798797847,1355.4001798797847,0.9995958905920539,0.0005432882387275485
1355.4071244365023,1355.4071244365023,0.9989714340884499,0.0005431095169830326
1355.4140689932146,1355.4140689932146,0.9999188185102665,0.0005433683143445657
1355.421013549933,1355.421013549933,1.000556082913099,0.000543512828300165
1355.4279581066507,1355.4279581066507,0.9998825910138773,0.0005432055569648187
1355.4349026633631,1355.4349026633631,1.0006043650070655,0.000543419440028037
1355.441847220075,1355.441847220075,0.9995988199335791,0.0005431964061511594
1355.448791776787,1355.448791776787,1.0003644633320703,0.0005433978739813638
1355.4557363334939,1355.4557363334939,0.9997284717380788,0.0005433003390028543
1355.4626808901999,1355.4626808901999,1.00046057209313,0.0005434095213955174
1355.4696254469006,1355.4696254469006,0.9999027333400642,0.0005432873149367374
1355.4765700036128,1355.4765700036128,1.0002687127447867,0.0005433758574969595
1355.4835145603015,1355.4835145603015,0.9989346281191486,0.0005432371567363793
1355.4904591170082,1355.4904591170082,1.000528561859485,0.0005435375461291774
1355.4974036736908,1355.4974036736908,0.9998279391484577,0.0005432687880580273
1355.5043482303738,1355.5043482303738,1.0000683736988702,0.0005432479487003394
1355.5112927870862,1355.5112927870862,0.9996049793439166,0.0005433753744855459
1355.5182373437633,1355.5182373437633,1.0007084746176031,0.0005435844164887913
1355.5251819004231,1355.5251819004231,1.0003936213074218,0.0005434639081427915
1355.5321264571062,1355.5321264571062,0.9991480516452956,0.0005432784899382952
1355.5390710137895,1355.5390710137895,1.0000179412252748,0.0005433540435966987
1355.5460155704432,1355.5460155704432,0.9999264896283172,0.0005433126260847999
1355.5529601271148,1355.5529601271148,0.9995391270500562,0.0005432880767981902
1355.5599046837747,1355.5599046837747,1.0003400972098657,0.0005435304478252339
1355.5668492404284,1355.5668492404284,1.0004494073489234,0.0005434401101333762
1355.5737937970766,1355.5737937970766,1.0006792898733052,0.0005435131282916313
1355.5807383537249,1355.5807383537249,0.9995012346117453,0.0005432736591164005
1355.5876829103552,1355.5876829103552,0.9995164978394367,0.0005433474686496682
1355.594627466992,1355.594627466992,0.9993122524414094,0.0005432010149881738
1355.6015720236223,1355.6015720236223,1.000699912133594,0.000543493884700509
1355.6085165802474,1355.6085165802474,1.0001893216593263,0.0005434391570066239
1355.6154611368668,1355.6154611368668,1.000289029095285,0.0005434433699078006
1355.6224056934855,1355.6224056934855,0.9997574111280354,0.0005433201713835824
1355.6293502500812,1355.6293502500812,1.0002317270677656,0.0005434554056341741
1355.636294806689,1355.636294806689,1.000599047393149,0.0005435228895765019
1355.6432393632786,1355.6432393632786,0.9995533005435835,0.0005432730945322827
1355.6501839198631,1355.6501839198631,1.0000901803295819,0.000543414578443322
1355.6571284764527,1355.6571284764527,0.9994776241017533,0.0005432950347514552
1355.664073033025,1355.664073033025,1.0001098959578936,0.0005433511370160003
1355.671017589598,1355.671017589598,0.9994519494945024,0.0005433543739230834
1355.6779621461583,1355.6779621461583,0.9994220504427418,0.0005432946943829651
1355.6849067027076,1355.6849067027076,1.0003333859800885,0.0005435123677431894
1355.6918512592688,1355.6918512592688,0.9997205360608321,0.0005433554269369851
1355.698795815812,1355.698795815812,1.001106109799357,0.0005436832377118813
1355.7057403723436,1355.7057403723436,1.001304214242274,0.0005435848295038284
1355.7126849288584,1355.7126849288584,0.9997529278147728,0.0005432300519053821
1355.7196294853838,1355.7196294853838,0.999985649910362,0.0005433626295532585
1355.7265740418925,1355.7265740418925,0.9999692388474084,0.0005433397705432891
1355.7335185984007,1355.7335185984007,0.9998834959737468,0.0005432606264683696
1355.740740937153,1355.740740937153,0.9996873101913291,0.0005433194768728867
1355.7487966226788,1355.7487966226788,0.9999917762369854,0.0005433985461145274
1355.755741179158,1355.755741179158,0.9996999052726917,0.000543331368046077
1355.7626857356313,1355.7626857356313,1.0003281691201784,0.0005435743759808764
1355.7696302920936,1355.7696302920936,0.9998112528703288,0.0005433922052418088
1355.776574848543,1355.776574848543,1.0001069795326458,0.0005433873574506356
1355.783519404988,1355.783519404988,1.0001559379605385,0.0005434495129698776
1355.7904639614267,1355.7904639614267,1.000048003103633,0.0005434224382707105
1355.7974085178537,1355.7974085178537,1.0008246878710196,0.0005435333286740419
1355.8043530742805,1355.8043530742805,0.9987441193780894,0.000543142566760712
1355.8112976306843,1355.8112976306843,0.9997246037600803,0.0005433336760995898
1355.818242187094,1355.818242187094,0.9997213387772156,0.0005434373602967333
1355.8251867434858,1355.8251867434858,1.0002619513774733,0.0005433098193188973
1355.8321312998664,1355.8321312998664,0.9994256163092438,0.0005432052862449721
1355.839075856241,1355.839075856241,0.9999341934065811,0.0005432586842779827
1355.8460204126036,1355.8460204126036,0.9997968465275431,0.0005433391730223551
1355.852964968955,1355.852964968955,1.0005477422687725,0.0005433938241360288
1355.8599095253062,1355.8599095253062,1.000209266884366,0.000543410067103221
1355.8668540816402,1355.8668540816402,0.9999023558950535,0.0005433360212872294
1355.8737986379742,1355.8737986379742,1.0003276272286945,0.0005434342179917607
1355.8807431942848,1355.8807431942848,1.0003741891518052,0.0005433448337577524
1355.887687750595,1355.887687750595,0.999719773531232,0.0005432867479289098
