time,time,flux,flux_err
1325.2997539591845,1325.2997539591845,1.0009621374974043,0.001124221711441119
1325.3080874744514,1325.3080874744514,0.9995074955350597,0.001124941420223485
1325.3157265302484,1325.3157265302484,0.998760508709454,0.0010277749912078649
1325.3226711265188,1325.3226711265188,0.9990274746704653,0.001028730198068891
1325.329615722917,1325.329615722917,1.0009340540575316,0.0010304973197556716
1325.3365603194202,1325.3365603194202,0.999561985863842,0.0010313395140110816
1325.3435049160048,1325.3435049160048,0.9995967411775644,0.0010327314235516853
1325.3504495126942,1325.3504495126942,1.002035623121364,0.0010348672939522823
1325.357394109477,1325.357394109477,1.0009933931493464,0.0010361700187265838
1325.3643387063642,1325.3643387063642,0.9986667567338362,0.0010375755891422237
1325.3712833033333,1325.3712833033333,1.0000249558384753,0.001040445545477409
1325.3782279004179,1325.3782279004179,0.9994334820245869,0.001041591684143465
1325.3851724975852,1325.3851724975852,0.9997392998514429,0.0010437179427336843
1325.392117094833,1325.392117094833,1.0001815425928986,0.001046196025996887
1325.399061692186,1325.399061692186,0.9994790399038237,0.0010483029592523606
1325.4060062896208,1325.4060062896208,1.0010597885157888,0.0010508219712559962
1325.4129508871479,1325.4129508871479,0.9996429541922595,0.001053099367957893
1325.4198954847689,1325.4198954847689,1.000401393433751,0.0010559360660564697
1325.4268400824478,1325.4268400824478,0.9999796206739525,0.0010582775637254496
1325.4337846802314,1325.4337846802314,1.0002107123069632,0.0010609996000518849
1325.4407292780736,1325.4407292780736,1.0015814081644723,0.0010640554673093424
1325.44767387602,1325.44767387602,0.9994111693698919,0.0010653151600490672
1325.454618474048,1325.454618474048,0.9978350423843292,0.0010676331740796892
1325.461563072146,1325.461563072146,0.9990186200006772,0.001070174210591706
1325.468507670314,1325.468507670314,1.0002706529420238,0.001072878827847743
1325.475452268575,1325.475452268575,1.001817423811636,0.001075518748881506
1325.482396866894,1325.482396866894,0.9993868284186231,0.0010772464016434583
1325.4893414652952,1325.4893414652952,1.0004328756654834,0.0010800001110888042
1325.496286063789,1325.496286063789,1.0002781423388392,0.0010820842347856268
1325.5032306623175,1325.5032306623175,1.000666953833629,0.001085143657465064
1325.510175260928,1325.510175260928,0.9991562875716904,0.0010869820687524241
1325.5171198596195,1325.5171198596195,0.9991302417387462,0.0010901553684318506
1325.524064458393,1325.524064458393,1.0002763496994225,0.0010932290673727548
1325.531009057201,1325.531009057201,0.9999112130224667,0.0010959247419188576
1325.5379536560908,1325.5379536560908,0.9988610826145635,0.001098290175223678
1325.5448982550386,1325.5448982550386,1.0011503600109264,0.0011011530153425422
1325.5518428540447,1325.5518428540447,1.0014242994914755,0.001103484338168243
1325.5587874531323,1325.5587874531323,0.9983113383762838,0.0011056744249132338
1325.5657320522664,1325.5657320522664,1.00023909862156,0.00110780468272152
1325.5726766514701,1325.5726766514701,1.0013966015393598,0.0011106329098633711
1325.5796212507328,1325.5796212507328,0.9989142508010476,0.0011120532287836687
1325.5865658500645,1325.5865658500645,1.0019674366102251,0.0011140397678127295
1325.593510449443,1325.593510449443,0.9991244670777453,0.0011150839038664314
1325.60045504888,1325.60045504888,0.9988122557663383,0.0011164175151478785
1325.6073996483633,1325.6073996483633,0.9983819070130675,0.001117173184651619
1325.614344247905,1325.614344247905,1.0003968289073961,0.0011178588514302605
1325.621288847516,1325.621288847516,1.000546730700679,0.00111893290953909
1325.6282334471628,1325.6282334471628,1.0017696804698109,0.0011192584948894661
1325.6351780468904,1325.6351780468904,0.999676114859048,0.0011191298875954537
1325.6421226466418,1325.6421226466418,1.0015115013856097,0.0011193014344411509
1325.6490672464508,1325.6490672464508,1.0003889594580975,0.0011187548482524386
1325.6560118463185,1325.6560118463185,1.0003347837012166,0.001118552477970652
1325.6629564462323,1325.6629564462323,1.0005688279857547,0.0011182964355457088
1325.6699010461818,1325.6699010461818,0.9980967494588814,0.001117844075332798
1325.6768456461887,1325.6768456461887,0.9991850327247409,0.0011175950790666943
1325.683790246243,1325.683790246243,0.9989716040850478,0.001117939187162077
1325.6907348463433,1325.6907348463433,0.9992720863669001,0.001117943483613356
1325.69767944649,1325.69767944649,1.0011456607334295,0.0011184029889896592
1325.704624046672,1325.704624046672,1.0004828656589273,0.0011186283923438445
1325.711568646912,1325.711568646912,1.0008796555645598,0.0011188817264813913
1325.7185132471636,1325.7185132471636,1.001210287697284,0.0011193819918016048
1325.7254578474854,1325.7254578474854,0.999935416405361,0.0011199620566485881
1325.7324024478417,1325.7324024478417,0.9999372829082119,0.0011211507886854115
1325.7393470482334,1325.7393470482334,0.9994370999372169,0.0011215712393163255
1325.746291648671,1325.746291648671,0.9999572326846005,0.0011228107366800227
1325.7532362491438,1325.7532362491438,0.9993356121630693,0.0011237866343328737
1325.7601808496634,1325.7601808496634,1.0001125995570277,0.0011250229470990566
1325.767125450206,1325.767125450206,1.0012389719622363,0.0011264065822274784
1325.774070050784,1325.774070050784,0.997934919564198,0.0011269699220286247
1325.781014651408,1325.781014651408,0.9995184640810473,0.0011279314490621921
1325.787959252056,1325.787959252056,0.9978618548502617,0.00112893577869211
1325.79490385275,1325.79490385275,1.0021095429376001,0.001130307533963726
1325.8018484534787,1325.8018484534787,0.9992954030854115,0.00113051910914129
1325.8087930542313,1325.8087930542313,1.001094999924263,0.0011314263569033728
1325.8157376550182,1325.8157376550182,0.9993251929241233,0.0011310575413428345
1325.8226822558292,1325.8226822558292,0.999129582493975,0.0011314677683143116
1325.829626856709,1325.829626856709,1.0005116832576806,0.0011316469211387402
1325.836571457578,1325.836571457578,1.0018517433801606,0.0011322281406172952
1325.843516058505,1325.843516058505,0.9990980369239463,0.0011312748050688085
1325.8504606594431,1325.8504606594431,0.999268885807802,0.0011312322748760755
1325.8574052604167,1325.8574052604167,0.9992184986214262,0.0011302175756746466
1325.8643498614135,1325.8643498614135,1.000875456426137,0.0011297234474343732
1325.8712944624453,1325.8712944624453,0.9988224965256242,0.0011280794475958967
1325.8782390635006,1325.8782390635006,1.0023547959597099,0.001126942260560559
1325.8851836645667,1325.8851836645667,0.998594618452729,0.0011251044997997533
1325.8921282656804,1325.8921282656804,0.9995835490210172,0.0011238086263998897
1325.899072866805,1325.899072866805,1.0001311866604319,0.001122770961597955
1325.9060174679878,1325.9060174679878,1.0007162991418839,0.0011220199516906817
1325.9129620691592,1325.9129620691592,1.0017270290447278,0.001121451285487372
1325.9199066703773,1325.9199066703773,0.9985537032838318,0.001119875635335569
1325.9268512715955,1325.9268512715955,0.999815427688165,0.0011200396613857693
1325.933795872848,1325.933795872848,0.9999413365173322,0.0011197259904489282
1325.9407404741246,1325.9407404741246,1.0016272376136894,0.0011191873390804135
1325.9476850754122,1325.9476850754122,0.9983412099676716,0.0011182240524061132
1325.9546296767348,1325.9546296767348,0.999688629289486,0.0011181159176069668
1325.962129846183,1325.962129846183,0.999746425342587,0.0011183676211512963
1325.9699077997102,1325.9699077997102,0.9989079473529916,0.001117427571396539
1325.9768524010913,1325.9768524010913,1.0011916127137819,0.0011175402183371968
1325.983797002507,1325.983797002507,0.9992579867958709,0.0011170073967077562
1325.9907416039227,1325.9907416039227,0.9984377025085462,0.001116662265071232
1325.9976862053386,1325.9976862053386,1.0024115033013017,0.0011179511590058545
1326.0046308068129,1326.0046308068129,1.0001887902558209,0.0011174463592267428
1326.0115754082751,1326.0115754082751,1.0003790895402327,0.0011184262547402006
1326.0185200097726,1326.0185200097726,1.0010992664736604,0.0011197033867755397
1326.0254646112699,1326.0254646112699,0.9986732324512226,0.0011197906453164536
1326.0324092128026,1326.0324092128026,1.0016743468076137,0.001121135227424973
1326.039353814346,1326.039353814346,0.9995569233248152,0.001120020721275674
1326.0462984159021,1326.0462984159021,0.9992764331795805,0.0011196864833926405
1326.0532430174687,1326.0532430174687,0.9999382455306,0.0011197341702654877
1326.0601876190478,1326.0601876190478,0.9994271009246892,0.0011195663981935166
1326.06713222065,1326.06713222065,0.9973819345133915,0.0011196369024391048
1326.0740768222636,1326.0740768222636,1.0007376920587212,0.001120265958425589
1326.0810214238895,1326.0810214238895,1.0013714069666428,0.001120092556280389
1326.0879660255262,1326.0879660255262,1.0012891658214418,0.001120022397913277
1326.094910627175,1326.094910627175,0.9996201877328854,0.001119739009011319
1326.1018552288472,1326.1018552288472,0.9990908993368214,0.0011194100720674852
1326.1087998305072,1326.1087998305072,1.0005122736706427,0.001119407387619562
1326.1157444322025,1326.1157444322025,0.9991658819369873,0.001118936750327088
1326.122689033909,1326.122689033909,0.9997568621396524,0.0011188227485402374
1326.1296336356165,1326.1296336356165,1.0000749972316654,0.001119246693367633
1326.1365782373232,1326.1365782373232,0.99943129502108,0.0011186916516936665
1326.143522839042,1326.143522839042,1.0005208598912578,0.0011190801998582692
1326.1504674407956,1326.1504674407956,0.9994617703796169,0.00111899566433179
1326.1574120425369,1326.1574120425369,0.9993755716203909,0.0011185934232111493
1326.1643566442913,1326.1643566442913,1.0017493044371388,0.0011187990545601769
1326.1713012460555,1326.1713012460555,0.9992068319959596,0.0011175352395182705
1326.1782458478324,1326.1782458478324,0.9990360145046175,0.0011176180097828318
1326.1851904496093,1326.1851904496093,1.001142009424718,0.0011177040018920548
1326.192135051409,1326.192135051409,0.9996207780183365,0.001116859745635695
1326.1990796532095,1326.1990796532095,1.0001054598298802,0.0011169471765052456
1326.2060242550092,1326.2060242550092,0.9994494355813514,0.0011160853631336216
1326.2129688568216,1326.2129688568216,0.9987155165295135,0.0011162885795830437
1326.2199134586326,1326.2199134586326,1.0018697631966567,0.0011162463942354815
1326.226858060456,1326.226858060456,1.000087726330749,0.0011156274299070844
1326.2338026622795,1326.2338026622795,1.0000305740802153,0.001115420911847197
1326.2407472641257,1326.2407472641257,1.0005422878926704,0.0011149652696049814
1326.247691865961,1326.247691865961,0.9983936728709184,0.0011145830850485326
1326.2546364678076,1326.2546364678076,1.001121687540866,0.0011148758702934029
1326.2615810696661,1326.2615810696661,0.998347105808144,0.0011137633850603341
1326.2685256715126,1326.2685256715126,1.0005474628340019,0.0011141110022114895
1326.2754702733705,1326.2754702733705,1.0025408572454773,0.0011144617789473476
1326.282414875241,1326.282414875241,0.9996258936176758,0.0011134325109905532
1326.289359477099,1326.289359477099,0.9991254364466832,0.001113445665674168
1326.2963040789687,1326.2963040789687,0.9998492966797459,0.0011132969332399178
1326.3032486808502,1326.3032486808502,1.0005650429916102,0.0011132208454505026
1326.3101932827203,1326.3101932827203,0.9990134892597471,0.0011127778733075434
1326.3171378846018,1326.3171378846018,0.9996042075564965,0.0011130244490239706
1326.324082486483,1326.324082486483,0.9999525553402204,0.0011131026152871781
1326.3310270883653,1326.3310270883653,0.9991336039147269,0.0011129595871319459
1326.3379716902577,1326.3379716902577,1.000833086544016,0.0011133867782754541
1326.3449162921395,1326.3449162921395,0.9992990177353189,0.0011133699610867433
1326.3546387347856,1326.3546387347856,1.0012544513819253,0.001113180025377503
1326.3615833366782,1326.3615833366782,1.001357636153393,0.0011136326308493578
1326.3685279385718,1326.3685279385718,0.9998942766380932,0.0011129573389792406
1326.3754725404644,1326.3754725404644,0.9980131154748569,0.0011127853601920704
1326.382417142358,1326.382417142358,1.0001448306704301,0.0011133935785453916
1326.3893617442511,1326.3893617442511,1.0008607593377328,0.0011137388876947892
1326.3963063461445,1326.3963063461445,0.9994218032537052,0.001113625761117325
1326.4032509480376,1326.4032509480376,1.0001527196606648,0.0011137839986963825
1326.4101955499307,1326.4101955499307,1.0007222502024873,0.0011144377204343058
1326.4171401518356,1326.4171401518356,1.0002388993163187,0.001114071855556112
1326.4240847537171,1326.4240847537171,1.0002633026151064,0.0011141267933141832
1326.4310293556105,1326.4310293556105,0.9993117352920408,0.00111392517059347
1326.4379739574915,1326.4379739574915,0.9984292102520615,0.001113947127560795
1326.444918559385,1326.444918559385,0.9989498991879813,0.0011140939249695272
1326.4518631612784,1326.4518631612784,0.998575425959929,0.0011144034934381017
1326.4588077631597,1326.4588077631597,1.0025985314555317,0.0011151889888382056
1326.4657523650415,1326.4657523650415,0.9994789381279956,0.0011148778380075165
1326.472696966923,1326.472696966923,1.001102495627245,0.0011155035357943584
1326.4796415688045,1326.4796415688045,1.0010535794160196,0.0011155242326907958
1326.4865861706858,1326.4865861706858,0.9974908830479622,0.0011151766787350016
1326.493530772556,1326.493530772556,0.999403066987739,0.001115380885642884
1326.5004753744374,1326.5004753744374,0.9991624233853379,0.0011153572902046526
1326.5074199762953,1326.5074199762953,1.0005575716548123,0.001115918762771696
1326.5143645781654,1326.5143645781654,0.9998379554898408,0.0011161334148381426
1326.5213091800238,1326.5213091800238,0.9983953996966084,0.001116206677500215
1326.5282537818705,1326.5282537818705,1.0008362650446432,0.0011175495880823654
1326.5351983837286,1326.5351983837286,1.00146723307267,0.001117846687557629
1326.5421429855753,1326.5421429855753,1.0007321317602333,0.0011183488111380202
1326.5490875874334,1326.5490875874334,0.9986143562381999,0.0011180870584832864
1326.5560321892801,1326.5560321892801,1.0009229150310575,0.0011192649305627035
1326.5629767911153,1326.5629767911153,0.998796877065238,0.0011184916817753067
1326.56992139295,1326.56992139295,0.9992262805967911,0.0011184586173053446
1326.5768659947853,1326.5768659947853,1.0005680592911825,0.0011192023141603526
1326.5838105966081,1326.5838105966081,1.0011135056282567,0.001119843877818306
1326.59075519842,1326.59075519842,1.0006547496402642,0.0011193728286213078
1326.5976998002434,1326.5976998002434,1.0001886605054782,0.0011198818715507297
1326.6046444020553,1326.6046444020553,1.000300704921845,0.0011199221978079282
1326.6115890038552,1326.6115890038552,0.9977778279371499,0.001119239270625785
1326.618533605655,1326.618533605655,1.0000026626224217,0.0011193989832966017
1326.6254782074436,1326.6254782074436,0.9988061537781665,0.0011193247374796935
1326.632422809232,1326.632422809232,0.9985095665806473,0.0011186300692080744
1326.6393674110088,1326.6393674110088,1.0014811307786682,0.001119744395696872
1326.6463120127853,1326.6463120127853,1.002496912991463,0.0011194061850973041
1326.6532566145506,1326.6532566145506,0.9985900724333646,0.0011184789681117412
1326.6602012163162,1326.6602012163162,1.0013200192531753,0.0011182142388114266
1326.6671458180692,1326.6671458180692,1.0010056851861509,0.00111753807890627
1326.674090419823,1326.674090419823,1.000647620739072,0.0011172821377560549
1326.6810350215646,1326.6810350215646,0.9982350045102384,0.0011158057846752509
1326.6888129755112,1326.6888129755112,0.9990832870415952,0.0011153385639089289
1326.696313145378,1326.696313145378,1.0008997307801704,0.001115324299043336
1326.7032577470848,1326.7032577470848,0.9993395407433019,0.0011141203716212259
1326.71048013286,1326.71048013286,0.999463135020324,0.0011137649186453752
1326.71853587084,1326.71853587084,0.997991703937708,0.0011121653329768501
1326.7254804725471,1326.7254804725471,1.0021124595056632,0.0011128468712393498
1326.7324250742427,1326.7324250742427,0.9995918156629783,0.0011114932229190177
1326.739369675903,1326.739369675903,0.9994327713394731,0.0011105356519016613
1326.7463142775864,1326.7463142775864,1.0015346822177622,0.0011107421297856842
1326.7532588792578,1326.7532588792578,1.0007634061670447,0.0011102866288864475
1326.7602034809072,1326.7602034809072,1.000639674529158,0.0011097710981539527
1326.7671480825554,1326.7671480825554,0.9998480462839796,0.0011094090144004919
1326.774092684193,1326.774092684193,1.0007793738896158,0.001109463902127902
1326.7810372858298,1326.7810372858298,0.999110146296092,0.0011088573988141557
1326.7879818874437,1326.7879818874437,1.0012524713982518,0.0011094832572363358
1326.7949264890576,1326.7949264890576,0.9984225380414214,0.0011089278614293697
1326.8018710906597,1326.8018710906597,0.9976223226056685,0.0011084906878148426
1326.8088156922618,1326.8088156922618,0.9996647197541979,0.0011087625687483612
1326.815760293852,1326.815760293852,0.999268222986094,0.0011091610053879928
1326.8227048954311,1326.8227048954311,1.0004099806524145,0.001109374138666032
1326.8296494969982,1326.8296494969982,1.0012400169434479,0.001108749204191759
1326.8365940985655,1326.8365940985655,1.0021926412416609,0.0011087392689805
1326.8435387001095,1326.8435387001095,1.0000955326248087,0.0011083746667825832
1326.8504833016534,1326.8504833016534,1.0004004960650887,0.0011079041867350565
1326.857427903174,1326.857427903174,0.9983607251827072,0.0011069072233429954
1326.8643725047066,1326.8643725047066,0.9992964259213599,0.0011067307016334594
1326.8713171062154,1326.8713171062154,0.9994856574639479,0.0011059973397822595
1326.8782617077127,1326.8782617077127,1.0008759446890358,0.001105449103578101
1326.8852063092102,1326.8852063092102,1.0016192484595845,0.001104560439881309
1326.8921509106844,1326.8921509106844,0.9999154260307233,0.001103645264488109
1326.8990955121585,1326.8990955121585,0.9981087313850596,0.001102026416141519
1326.9060401136092,1326.9060401136092,0.9983929154755957,0.0011009369849890333
1326.912984715083,1326.912984715083,1.001491593534808,0.001100443485778657
1326.9199293164993,1326.9199293164993,1.0000393377243681,0.0010990096220205255
1326.9268739179147,1326.9268739179147,1.0012007961212237,0.0010982450883723445
1326.9338185193312,1326.9338185193312,1.0006498297118318,0.001096800575598462
1326.9407631207466,1326.9407631207466,1.0002115088212955,0.001095794170270475
1326.9477077221625,1326.9477077221625,0.9993066589929089,0.001094234350723209
1326.9546523235554,1326.9546523235554,1.0005308477862331,0.0010934320356774637
1326.9615969249364,1326.9615969249364,0.9984532560834458,0.0010920803034907855
1326.9685415262943,1326.9685415262943,0.9991511403490719,0.0010914247382215005
1326.97548612764,1326.97548612764,0.9996152537102729,0.001090462892290313
1326.982430728986,1326.982430728986,1.0009573188072125,0.0010905427090047463
1326.9893753303204,1326.9893753303204,1.0017763329106264,0.0010899516171474386
1326.9963199316437,1326.9963199316437,0.9991056075519685,0.0010889932706216242
1327.0032645329425,1327.0032645329425,1.0004021451321805,0.0010885453773220245
1327.0102091342421,1327.0102091342421,0.999826162926718,0.0010879132044534648
1327.0171537355181,1327.0171537355181,0.9981458808888044,0.001088126411988609
1327.0240983367944,1327.0240983367944,1.0009780168191735,0.0010881476742798679
1327.0310429380593,1327.0310429380593,1.0010067639720794,0.0010878060519296713
1327.0379875393116,1327.0379875393116,0.9996459510289034,0.0010878436582945536
1327.0449321405533,1327.0449321405533,0.9998355282176512,0.0010881780803037437
1327.0518767417714,1327.0518767417714,1.0009508743575728,0.0010883915658367015
1327.0593769110906,1327.0593769110906,0.9982107216676948,0.0010880514508847868
1327.0671548644323,1327.0671548644323,1.0000026871474483,0.0010883806310246226
1327.074099465627,1327.074099465627,1.001476308525716,0.001088640378568275
1327.0810440667865,1327.0810440667865,0.9998706420129867,0.0010883483468092732
