time,time,flux,flux_err
1517.3517151175643,1517.3517151175643,,
1517.3531040584903,1517.3531040584903,,
1517.3544929998825,1517.3544929998825,,
1517.3558819408076,1517.3558819408076,,
1517.3586598231236,1517.3586598231236,,
1517.3600487645158,1517.3600487645158,,
1517.3614377054414,1517.3614377054414,,
1517.3628266468327,1517.3628266468327,131418.55,49.243195
1517.3642155882242,1517.3642155882242,131732.16,49.131004
1517.3669934705404,1517.3669934705404,131468.25,48.93066
1517.3683824119325,1517.3683824119325,131624.58,48.792656
1517.3697713533238,1517.3697713533238,131549.89,48.69148
1517.3711602947146,1517.3711602947146,131607.6,48.589535
1517.3739381774985,1517.3739381774985,131402.47,48.379265
1517.3753271188893,1517.3753271188893,131453.88,48.35488
1517.3767160602806,1517.3767160602806,131400.4,48.234776
1517.3781050016719,1517.3781050016719,131445.8,48.176006
1517.3794939430632,1517.3794939430632,131436.78,48.093258
1517.3808828844544,1517.3808828844544,131407.27,47.933918
1517.3822718263114,1517.3822718263114,131426.3,47.88464
1517.3836607677028,1517.3836607677028,131394.92,47.780464
1517.3850497090934,1517.3850497090934,131418.6,47.694042
1517.3864386504856,1517.3864386504856,131490.47,47.611122
1517.3878275923432,1517.3878275923432,131376.27,47.57248
1517.3892165337338,1517.3892165337338,131464.28,47.454483
1517.3906054751246,1517.3906054751246,131407.27,47.408855
1517.3919944169822,1517.3919944169822,131445.16,47.30611
1517.3933833583742,1517.3933833583742,131447.11,47.23632
1517.3947723002307,1517.3947723002307,131443.98,47.16049
1517.396161241622,1517.396161241622,131363.67,47.0559
1517.3975501834789,1517.3975501834789,131432.84,47.008656
1517.3989391248701,1517.3989391248701,131519.02,46.982784
1517.4017170085842,1517.4017170085842,131396.8,46.820545
1517.4031059499757,1517.4031059499757,131248.98,46.739563
1517.4044948918317,1517.4044948918317,131346.83,46.66712
1517.4058838336896,1517.4058838336896,131236.53,46.594707
1517.4072727755474,1517.4072727755474,131357.45,46.549828
1517.4086617169378,1517.4086617169378,131282.52,46.465015
1517.4100506587947,1517.4100506587947,131432.56,46.44377
1517.4114396006526,1517.4114396006526,131366.08,46.358833
1517.4128285425095,1517.4128285425095,131306.08,46.302887
1517.414217484366,1517.414217484366,131408.84,46.275642
1517.415606426223,1517.415606426223,131450.23,46.216526
1517.4169953680798,1517.4169953680798,131426.88,46.14831
1517.4183843099368,1517.4183843099368,131304.56,46.088596
1517.4197732517946,1517.4197732517946,131420.7,46.058674
1517.4211621936515,1517.4211621936515,131432.9,45.976463
1517.422551135508,1517.422551135508,131463.7,45.950512
1517.423940077364,1517.423940077364,131471.5,45.89792
1517.4253290192219,1517.4253290192219,131514.55,45.84253
1517.4267179615454,1517.4267179615454,131527.45,45.81008
1517.4281069034014,1517.4281069034014,131511.67,45.737732
1517.4294958452585,1517.4294958452585,131447.7,45.689175
1517.4308847871162,1517.4308847871162,131533.3,45.66904
1517.4322737294387,1517.4322737294387,131576.25,45.64024
1517.4336626712952,1517.4336626712952,131506.55,45.593044
1517.4350516131522,1517.4350516131522,131512.48,45.536476
1517.4364405554747,1517.4364405554747,131613.44,45.500164
1517.4378294973317,1517.4378294973317,131606.23,45.445217
1517.4392184396552,1517.4392184396552,131581.08,45.414165
1517.440607381512,1517.440607381512,131644.16,45.381493
1517.4419963238342,1517.4419963238342,131519.28,45.308178
1517.4433852656912,1517.4433852656912,131605.36,45.30336
1517.4447742080147,1517.4447742080147,131565.34,45.256126
1517.4461631498716,1517.4461631498716,131729.27,45.241966
1517.4475520921933,1517.4475520921933,131668.11,45.191868
1517.448941034516,1517.448941034516,131568.17,45.125954
1517.4503299763737,1517.4503299763737,131682.97,45.121513
1517.4517189186963,1517.4517189186963,131733.12,45.058666
1517.4531078610191,1517.4531078610191,131704.62,45.041653
1517.454496803342,1517.454496803342,131683.88,45.022083
1517.455885745198,1517.455885745198,131733.83,44.98955
1517.4572746875206,1517.4572746875206,131768.83,44.957256
1517.458663629844,1517.458663629844,131706.66,44.912376
1517.4600525721667,1517.4600525721667,131691.05,44.868813
1517.4614415144888,1517.4614415144888,131792.4,44.85108
1517.4628304568114,1517.4628304568114,131835.42,44.81425
1517.464219399135,1517.464219399135,131831.5,44.78307
1517.4656083414575,1517.4656083414575,131854.14,44.769627
1517.4669972837794,1517.4669972837794,131806.81,44.72834
1517.4683862261022,1517.4683862261022,131768.72,44.69412
1517.4697751684253,1517.4697751684253,131727.66,44.67049
1517.4711641107478,1517.4711641107478,131856.2,44.644768
1517.4725530530707,1517.4725530530707,131822.89,44.61376
1517.4739419953935,1517.4739419953935,131734.33,44.555325
1517.4753309377152,1517.4753309377152,131948.38,44.568066
1517.4767198805043,1517.4767198805043,131987.25,44.537357
1517.4781088228278,1517.4781088228278,131905.23,44.516212
1517.4794977651495,1517.4794977651495,131913.44,44.488556
1517.4808867074717,1517.4808867074717,131965.52,44.46701
1517.48227565026,1517.48227565026,131846.78,44.42613
1517.4836645925834,1517.4836645925834,131892.44,44.4062
1517.485053534906,1517.485053534906,131793.84,44.363995
1517.4864424776943,1517.4864424776943,131952.83,44.351734
1517.4878314200168,1517.4878314200168,132014.11,44.330395
1517.4892203623394,1517.4892203623394,132021.83,44.311676
1517.490609305128,1517.490609305128,132023.28,44.270493
1517.4919982474507,1517.4919982474507,131945.47,44.242203
1517.493387190239,1517.493387190239,131889.28,44.223797
1517.4947761325607,1517.4947761325607,131903.98,44.196712
1517.4961650753498,1517.4961650753498,132084.7,44.210358
1517.4975540176733,1517.4975540176733,131859.69,44.13679
1517.4989429604607,1517.4989429604607,131981.8,44.133575
1517.5003319032485,1517.5003319032485,132013.77,44.119484
1517.501720845571,1517.501720845571,132071.86,44.104614
1517.5031097883602,1517.5031097883602,132061.61,44.078316
1517.5044987306828,1517.5044987306828,131935.5,44.02935
1517.505887673471,1517.505887673471,131993.62,44.02095
1517.5072766162593,1517.5072766162593,132006.81,44.00875
1517.5086655590476,1517.5086655590476,132059.36,43.99823
1517.510054501371,1517.510054501371,131982.4,43.960823
1517.5114434441593,1517.5114434441593,132004.78,43.95848
1517.5128323869471,1517.5128323869471,131990.55,43.930206
1517.5142213297347,1517.5142213297347,131988.19,43.914024
1517.5156102725236,1517.5156102725236,131979.44,43.878426
1517.5169992153128,1517.5169992153128,132078.4,43.88241
1517.5183881576347,1517.5183881576347,132078.84,43.8704
1517.5197771004232,1517.5197771004232,132094.25,43.840843
1517.5211660432115,1517.5211660432115,132018.52,43.802536
1517.5225549859997,1517.5225549859997,132024.89,43.786278
1517.523943928788,1517.523943928788,131980.3,43.769283
1517.5253328715762,1517.5253328715762,132104.83,43.778885
1517.5267218143645,1517.5267218143645,132018.16,43.745975
1517.528110757153,1517.528110757153,131978.05,43.71287
1517.5294996999419,1517.5294996999419,132107.94,43.731426
1517.5308886427301,1517.5308886427301,132022.4,43.689972
1517.5322775859836,1517.5322775859836,132055.48,43.66538
1517.5336665287712,1517.5336665287712,132089.78,43.669384
1517.53505547156,1517.53505547156,131998.92,43.641132
1517.5364444143493,1517.5364444143493,132125.86,43.651505
1517.5378333571368,1517.5378333571368,131997.7,43.605648
1517.5392222999253,1517.5392222999253,131975.38,43.590836
1517.5406112431792,1517.5406112431792,132028.55,43.59661
1517.5420001859675,1517.5420001859675,132054.66,43.5751
1517.5433891287557,1517.5433891287557,131973.6,43.535915
1517.5447780720096,1517.5447780720096,132112.1,43.542995
1517.546167014798,1517.546167014798,132045.73,43.515842
1517.5475559575864,1517.5475559575864,131979.81,43.49899
1517.548944900841,1517.548944900841,132069.67,43.49065
1517.5503338436292,1517.5503338436292,132077.48,43.485146
1517.551722786417,1517.551722786417,132090.12,43.463
1517.553111729671,1517.553111729671,132101.98,43.447792
1517.55450067246,1517.55450067246,132052.89,43.450123
1517.555889615714,1517.555889615714,131971.4,43.410748
1517.5572785585018,1517.5572785585018,131934.58,43.388348
1517.5586675017557,1517.5586675017557,132066.86,43.390057
1517.560056444544,1517.560056444544,132014.64,43.38809
1517.561445387798,1517.561445387798,132051.69,43.370308
1517.562834330587,1517.562834330587,132076.44,43.365776
1517.564223273841,1517.564223273841,131982.97,43.334885
1517.5656122166286,1517.5656122166286,132033.77,43.326694
1517.5670011598827,1517.5670011598827,132082.97,43.31016
1517.568390103137,1517.568390103137,131992.2,43.304745
1517.5697790459255,1517.5697790459255,131994.38,43.278202
1517.5711679891788,1517.5711679891788,132047.86,43.290447
1517.5725569324327,1517.5725569324327,132085.48,43.273033
1517.5739458752219,1517.5739458752219,131936.69,43.239063
1517.5753348184758,1517.5753348184758,132020.06,43.252342
1517.5767237617292,1517.5767237617292,132074.36,43.247124
1517.5781127049831,1517.5781127049831,132071.38,43.23554
1517.5795016477714,1517.5795016477714,132056.84,43.21137
1517.5808905910253,1517.5808905910253,132044.55,43.21431
1517.5822795342801,1517.5822795342801,132087.39,43.195747
1517.583668477534,1517.583668477534,132024.95,43.181015
1517.5850574207873,1517.5850574207873,132057.6,43.165913
1517.5864463635762,1517.5864463635762,131997.78,43.15424
1517.587835306831,1517.587835306831,132042.1,43.14577
1517.5892242500843,1517.5892242500843,131996.28,43.137127
1517.5906131933375,1517.5906131933375,132009.45,43.137756
1517.5920021365914,1517.5920021365914,132025.52,43.121025
1517.5933910798462,1517.5933910798462,132046.67,43.111664
1517.5947800231002,1517.5947800231002,132029.17,43.102463
1517.596168966354,1517.596168966354,131915.19,43.065292
1517.597557909608,1517.597557909608,132040.73,43.081722
1517.5989468528614,1517.5989468528614,132019.64,43.068295
1517.6003357961154,1517.6003357961154,132050.38,43.059273
1517.6017247393702,1517.6017247393702,132086.06,43.05609
1517.603113682624,1517.603113682624,132098.14,43.05496
1517.6045026258776,1517.6045026258776,132048.31,43.04254
1517.605891569132,1517.605891569132,131986.12,43.021603
1517.6072805128524,1517.6072805128524,132040.67,43.014946
1517.6086694561059,1517.6086694561059,131988.12,43.000233
1517.6100583993589,1517.6100583993589,131985.61,42.99365
1517.6114473426128,1517.6114473426128,132050.02,42.993946
1517.6128362858676,1517.6128362858676,132018.12,42.982563
1517.6142252291215,1517.6142252291215,132047.02,42.97911
1517.615614172841,1517.615614172841,132027.34,42.965137
1517.6170031160952,1517.6170031160952,132054.22,42.9618
1517.6183920593485,1517.6183920593485,132075.8,42.961723
1517.6197810026033,1517.6197810026033,132089.0,42.96122
1517.6211699463236,1517.6211699463236,132078.39,42.945194
1517.6225588895768,1517.6225588895768,132057.05,42.929806
1517.6239478328303,1517.6239478328303,132023.89,42.91594
1517.6253367765503,1517.6253367765503,131960.77,42.90767
1517.626725719805,1517.626725719805,132087.05,42.917336
1517.6281146630586,1517.6281146630586,131988.7,42.895794
1517.6295036067781,1517.6295036067781,131987.58,42.887714
1517.630892550032,1517.630892550032,132077.0,42.895504
1517.632281493286,1517.632281493286,131999.86,42.862778
1517.6336704370055,1517.6336704370055,132094.56,42.87164
1517.6350593802595,1517.6350593802595,132008.45,42.861774
1517.6364483239793,1517.6364483239793,132058.92,42.863304
1517.6378372672325,1517.6378372672325,131978.7,42.818512
1517.639226210953,1517.639226210953,132016.67,42.853992
1517.6406151542076,1517.6406151542076,132055.45,42.844322
1517.6420040979265,1517.6420040979265,132035.98,42.828064
1517.64339304118,1517.64339304118,132031.72,42.821747
1517.6447819849002,1517.6447819849002,132057.72,42.8107
1517.6461709281548,1517.6461709281548,132063.72,42.822483
1517.647559871874,1517.647559871874,132045.62,42.79517
1517.6489488151278,1517.6489488151278,132057.12,42.80045
1517.6503377588474,1517.6503377588474,132003.53,42.774643
1517.6517267021013,1517.6517267021013,132063.1,42.782448
1517.6531156458218,1517.6531156458218,132184.1,42.794113
1517.6545045895414,1517.6545045895414,132087.3,42.76685
1517.6558935327948,1517.6558935327948,132031.66,42.75036
1517.6572824765135,1517.6572824765135,132071.8,42.759506
1517.658671420234,1517.658671420234,132019.81,42.746445
1517.6600603634888,1517.6600603634888,132045.19,42.73779
1517.6614493072075,1517.6614493072075,132056.88,42.734413
1517.662838250927,1517.662838250927,132066.55,42.721798
1517.6642271941819,1517.6642271941819,132040.67,42.715836
1517.6656161379015,1517.6656161379015,131964.72,42.694504
1517.6670050816206,1517.6670050816206,132146.92,42.723286
1517.6683940253401,1517.6683940253401,132117.31,42.709106
1517.669782968594,1517.669782968594,132039.84,42.676376
1517.6711719123136,1517.6711719123136,132027.66,42.688087
1517.6725608560341,1517.6725608560341,132064.62,42.68153
1517.6739497997537,1517.6739497997537,132052.97,42.67646
1517.6753387434728,1517.6753387434728,132075.31,42.666714
1517.6767276871915,1517.6767276871915,132049.45,42.656555
1517.6781166304463,1517.6781166304463,132124.94,42.650562
1517.6795055741668,1517.6795055741668,131996.06,42.62973
1517.6808945178855,1517.6808945178855,132078.88,42.651997
1517.6822834616053,1517.6822834616053,132098.25,42.646202
1517.6836724053255,1517.6836724053255,132183.69,42.6467
1517.685061349045,1517.685061349045,132128.72,42.630627
1517.6864502927642,1517.6864502927642,132051.11,42.617817
1517.6878392364838,1517.6878392364838,132074.38,42.610706
1517.6892281802034,1517.6892281802034,132066.7,42.596706
1517.690617123923,1517.690617123923,132050.62,42.59847
1517.6920060676434,1517.6920060676434,132032.06,42.598396
1517.693395011363,1517.693395011363,132036.56,42.574852
1517.6947839550821,1517.6947839550821,132100.39,42.572884
1517.6961728988017,1517.6961728988017,132157.2,42.585136
1517.6975618425222,1517.6975618425222,132071.8,42.56983
1517.6989507862418,1517.6989507862418,132067.69,42.557335
1517.7003397299604,1517.7003397299604,132092.67,42.553936
1517.7017286736802,1517.7017286736802,132155.33,42.57391
1517.7031176174005,1517.7031176174005,132161.6,42.551598
1517.70450656112,1517.70450656112,132159.55,42.555058
1517.7058955048399,1517.7058955048399,132119.12,42.531612
1517.7072844485597,1517.7072844485597,132102.06,42.529396
1517.7086733922783,1517.7086733922783,132129.8,42.535027
1517.710062335998,1517.710062335998,132137.16,42.503735
1517.7114512797184,1517.7114512797184,132083.33,42.499977
1517.7128402239036,1517.7128402239036,132098.92,42.50941
1517.7142291676228,1517.7142291676228,132054.88,42.485554
1517.7156181113423,1517.7156181113423,132181.4,42.4981
1517.7170070550628,1517.7170070550628,132119.67,42.480858
1517.7183959987824,1517.7183959987824,132120.98,42.481407
1517.7197849425013,1517.7197849425013,132105.0,42.474747
1517.7211738866868,1517.7211738866868,132111.9,42.463646
1517.7225628304068,1517.7225628304068,132157.78,42.464558
1517.7239517741264,1517.7239517741264,132100.34,42.45137
1517.7253407178462,1517.7253407178462,132123.86,42.447784
1517.7267296620316,1517.7267296620316,132180.81,42.45669
1517.7281186057503,1517.7281186057503,132082.17,42.435066
1517.7295075494708,1517.7295075494708,132187.52,42.44679
1517.7308964931913,1517.7308964931913,132159.61,42.42123
1517.7322854373756,1517.7322854373756,132175.4,42.431503
1517.7336743810947,1517.7336743810947,132158.53,42.400974
1517.7350633248143,1517.7350633248143,132049.95,42.395664
1517.7364522690004,1517.7364522690004,132173.17,42.399124
1517.73784121272,1517.73784121272,132150.19,42.39954
1517.7392301564396,1517.7392301564396,132172.16,42.409664
1517.7406191006248,1517.7406191006248,132100.27,42.370735
1517.7420080443444,1517.7420080443444,132242.66,42.396793
1517.7433969880642,1517.7433969880642,132164.19,42.382202
1517.7447859322497,1517.7447859322497,132146.47,42.370995
1517.7461748759692,1517.7461748759692,132135.67,42.35972
1517.7475638201536,1517.7475638201536,132151.97,42.37035
1517.748952763874,1517.748952763874,132143.58,42.356285
1517.7503417075945,1517.7503417075945,132164.19,42.37078
1517.7517306517789,1517.7517306517789,132243.55,42.35101
1517.753119595498,1517.753119595498,132221.56,42.344193
1517.7545085396832,1517.7545085396832,132184.69,42.332764
1517.7558974834037,1517.7558974834037,132222.42,42.3394
1517.757286427589,1517.757286427589,132173.11,42.3175
1517.7586753713085,1517.7586753713085,132159.11,42.3113
1517.7600643154938,1517.7600643154938,132277.89,42.33789
1517.7614532592133,1517.7614532592133,132150.06,42.308254
1517.7628422033988,1517.7628422033988,132195.94,42.309326
1517.7642311471186,1517.7642311471186,132160.53,42.283348
1517.7656200913038,1517.7656200913038,132142.83,42.30142
1517.7670090350227,1517.7670090350227,132161.44,42.280685
1517.7683979792087,1517.7683979792087,132149.1,42.28075
1517.7697869229291,1517.7697869229291,132156.75,42.275818
1517.7711758671137,1517.7711758671137,132149.38,42.262226
1517.7725648108335,1517.7725648108335,132262.2,42.280136
1517.7739537550187,1517.7739537550187,132128.92,42.244045
1517.775342699204,1517.775342699204,132177.38,42.25207
1517.7767316429236,1517.7767316429236,132135.56,42.242
1517.7781205871088,1517.7781205871088,132273.17,42.26722
1517.7795095308284,1517.7795095308284,132136.19,42.242992
1517.7808984750138,1517.7808984750138,132197.4,42.23902
1517.7822874191997,1517.7822874191997,132153.78,42.23828
1517.7836763629193,1517.7836763629193,132153.92,42.23145
1517.785065307104,1517.785065307104,132120.38,42.20737
1517.7864542512887,1517.7864542512887,132128.3,42.20023
1517.787843195009,1517.787843195009,132204.64,42.21254
1517.789232139195,1517.789232139195,132124.75,42.196335
1517.7906210833796,1517.7906210833796,132245.28,42.204147
1517.7920100270994,1517.7920100270994,132133.77,42.181557
1517.7933989712847,1517.7933989712847,132150.45,42.160908
1517.79478791547,1517.79478791547,132210.1,42.188343
1517.7961768591895,1517.7961768591895,132173.95,42.1717
1517.7975658033747,1517.7975658033747,132181.08,42.17797
1517.79895474756,1517.79895474756,132181.73,42.152905
1517.8003436912797,1517.8003436912797,132121.7,42.153503
1517.8017326354657,1517.8017326354657,132148.98,42.152504
1517.803121579651,1517.803121579651,132234.31,42.16128
1517.8045105238357,1517.8045105238357,132187.9,42.142178
1517.8058994675548,1517.8058994675548,132131.88,42.134426
1517.8072884117405,1517.8072884117405,132180.06,42.13512
1517.8086773559266,1517.8086773559266,132340.31,42.1433
1517.8100663001114,1517.8100663001114,132127.27,42.118736
1517.8114552442967,1517.8114552442967,132124.72,42.108047
1517.8128441880162,1517.8128441880162,132062.81,42.10173
1517.8142331322015,1517.8142331322015,132188.92,42.117695
1517.8156220763876,1517.8156220763876,132239.36,42.12638
1517.8170110205729,1517.8170110205729,132124.4,42.09246
1517.8183999647574,1517.8183999647574,132174.16,42.104763
1517.8197889084772,1517.8197889084772,132192.28,42.111595
1517.821177852663,1517.821177852663,132128.06,42.07831
1517.8225667968484,1517.8225667968484,132204.48,42.086987
1517.823955741033,1517.823955741033,132161.12,42.08053
1517.8253446852182,1517.8253446852182,132222.7,42.091637
1517.8267336294043,1517.8267336294043,132216.1,42.078968
1517.8281225735896,1517.8281225735896,132205.34,42.080566
1517.8295115173087,1517.8295115173087,132033.11,42.050575
1517.830900461494,1517.830900461494,132132.56,42.01633
1517.8322894056791,1517.8322894056791,132168.4,42.06328
1517.8336783498644,1517.8336783498644,132167.81,42.051678
1517.8350672940505,1517.8350672940505,132127.02,42.047665
1517.8364562382358,1517.8364562382358,132175.83,42.040546
1517.8378451824203,1517.8378451824203,132147.56,42.03995
1517.8392341266058,1517.8392341266058,132107.23,42.04119
1517.8406230707915,1517.8406230707915,132154.77,42.024124
1517.842012014977,1517.842012014977,132100.02,42.0181
1517.8434009591615,1517.8434009591615,132189.84,42.04148
1517.844789902881,1517.844789902881,132173.03,42.03918
