time,time,flux,flux_err
1570.820556518272,1570.820556518272,1.00009207981672,0.0002925843782954229
1570.827501157747,1570.827501157747,1.0001794555047037,0.0002921642463660979
1570.834445797502,1570.834445797502,0.9994976610020607,0.00029200315228019067
1570.8413904369775,1570.8413904369775,1.0002460777541908,0.00029154675269535185
1570.8483350767333,1570.8483350767333,1.0000568201571962,0.0002911332465022701
1570.8552797163952,1570.8552797163952,1.0000947360274677,0.00029079903239986665
1570.8622243560565,1570.8622243560565,0.9998162690895533,0.00029059723045631866
1570.8691689958112,1570.8691689958112,0.9999519246288298,0.0002903491293235675
1570.8761136356593,1570.8761136356593,0.999960817736218,0.0002901554680580829
1570.8841694177163,1570.8841694177163,0.999770565034163,0.0002898194938575895
1570.891391843233,1570.891391843233,0.9999667297677035,0.0002896750651649808
1570.8983364829874,1570.8983364829874,1.0002582257478967,0.0002892432439061981
1570.9052811228353,1570.9052811228353,1.0000154714341294,0.00028908125693356867
1570.9122257627764,1570.9122257627764,0.9995953207750455,0.0002888781510106147
1570.9191704027187,1570.9191704027187,1.0000908673166813,0.00028867631600971316
1570.9261150426596,1570.9261150426596,1.0004989420341415,0.0002884648815764792
1570.9330596826007,1570.9330596826007,1.0002429275154487,0.00028813751301594174
1570.9400043225417,1570.9400043225417,1.0000422187145113,0.00028821960112835037
1570.946948962576,1570.946948962576,0.9997507483473275,0.00028777422501767666
1570.9538936026113,1570.9538936026113,0.9996963189573282,0.00028748497802165245
1570.9608382425524,1570.9608382425524,0.999960317449078,0.00028740626288703634
1570.9677828826796,1570.9677828826796,0.9997386559976352,0.00028733791795091914
1570.974727522714,1570.974727522714,1.000152380189511,0.00028715678015970984
1570.9816721628413,1570.9816721628413,1.000043003719032,0.00028682176387577056
1570.9886168029693,1570.9886168029693,1.000388736567914,0.0002868570546100176
1570.9955614430041,1570.9955614430041,0.9999397953938545,0.00028660323778351723
1571.0025060831308,1571.0025060831308,0.9998484271385071,0.00028638074464153494
1571.0094507232584,1571.0094507232584,1.000293482750649,0.00028620271605460043
1571.0163953634788,1571.0163953634788,1.0002355069746036,0.0002859159347681449
1571.023340003607,1571.023340003607,0.9998151510418996,0.0002857844893970088
1571.0302846438278,1571.0302846438278,1.0001749055407845,0.00028563131446696744
1571.0372292840482,1571.0372292840482,0.9996534212772221,0.0002855053041083861
1571.0441739242683,1571.0441739242683,1.0001002467603848,0.0002851083397476266
1571.0511185644887,1571.0511185644887,0.9997870014438286,0.0002850916275222349
1571.0580632047102,1571.0580632047102,1.000529189855262,0.00028482446978117884
1571.065007845024,1571.065007845024,1.0001679773255958,0.00028476804831088786
1571.0719524852445,1571.0719524852445,0.999959184017406,0.0002845059201073799
1571.0788971255583,1571.0788971255583,0.9997737545777735,0.0002842430106392854
1571.0858417657782,1571.0858417657782,1.0003821834303843,0.00028417339939987524
1571.0927864060927,1571.0927864060927,0.9996038781842291,0.00028402018058556387
1571.0997310464068,1571.0997310464068,0.9997020836099292,0.0002838139642632737
1571.1066756867203,1571.1066756867203,1.0005130154121205,0.00028364431712833303
1571.1136203270341,1571.1136203270341,1.0000973374285234,0.0002833811277704162
1571.1205649673473,1571.1205649673473,1.0000606947149642,0.00028328025492855137
1571.127509607661,1571.127509607661,1.0003441441920227,0.0002831810193623059
1571.1344542479758,1571.1344542479758,1.0002717037244822,0.0002830592700767955
1571.1413988883826,1571.1413988883826,0.9998135992218993,0.0002828887610319408
1571.1483435286964,1571.1483435286964,1.0000465478423604,0.00028279561554021815
1571.15528816901,1571.15528816901,0.9996522171905868,0.00028262899969304784
1571.1622328094165,1571.1622328094165,1.0000039312573903,0.00028246290191053164
1571.1691774497308,1571.1691774497308,0.999741042330076,0.000282440273316883
1571.1761220901378,1571.1761220901378,1.0004622917761157,0.00028235510579940193
1571.1830667304516,1571.1830667304516,1.0000896274549573,0.00028239840163953213
1571.1900113707648,1571.1900113707648,1.0000511367319134,0.00028226405762123315
1571.1969560111716,1571.1969560111716,1.0001030930590067,0.0002819968695723616
1571.2039006515793,1571.2039006515793,0.9994963175676006,0.00028199920175954826
1571.2108452919863,1571.2108452919863,1.0000912067694645,0.0002819094146113497
1571.2177899323,1571.2177899323,0.9999690655821019,0.0002818363632592836
1571.2247345727064,1571.2247345727064,0.9999125820156178,0.00028171464807485666
1571.2316792130198,1571.2316792130198,1.0006624000056676,0.00028173449123203065
1571.2386238534273,1571.2386238534273,0.9998792759033817,0.00028172263987282496
1571.2455684937415,1571.2455684937415,1.0002328244771923,0.0002815710244045627
1571.252513134148,1571.252513134148,0.9998365378428916,0.00028147169125695596
1571.259457774555,1571.259457774555,1.0002918921295332,0.0002814131548711818
1571.2664024149612,1571.2664024149612,0.9996942570354161,0.00028120022484545
1571.2733470552753,1571.2733470552753,1.0002932112221263,0.0002812915482695821
1571.2802916955898,1571.2802916955898,0.9998120289680476,0.0002811494209467099
1571.2872363359963,1571.2872363359963,1.0002275240768506,0.00028104544428006153
1571.2941809763101,1571.2941809763101,0.9999440917558815,0.0002810668272479954
1571.3011256167165,1571.3011256167165,0.9998307151796734,0.0002810085578911419
1571.3080702570303,1571.3080702570303,0.9997981681732064,0.0002808340290411852
1571.3150148973446,1571.3150148973446,0.9997545430089879,0.0002807857572612511
1571.3219595376586,1571.3219595376586,1.0003599177474307,0.0002807961509569363
1571.3289041780656,1571.3289041780656,1.0000717026891084,0.0002805260267255001
1571.335848818379,1571.335848818379,1.0003275291351812,0.00028055742873008503
1571.3427934586925,1571.3427934586925,1.0001175874833645,0.0002804641203783036
1571.3497380990061,1571.3497380990061,0.9998442749526533,0.00028030153228469836
1571.356682739321,1571.356682739321,1.000128743043606,0.00028030968717478904
1571.3636273795414,1571.3636273795414,0.9998466708046188,0.0002800905837833148
1571.370572019855,1571.370572019855,1.000130503311144,0.00027996709948460566
1571.3775166601683,1571.3775166601683,0.9999442964887034,0.0002801480387765378
1571.384461300389,1571.384461300389,0.9999817843244945,0.0002800000623071391
1571.391405940703,1571.391405940703,0.9998150424198862,0.0002799420790764498
1571.3983505809242,1571.3983505809242,1.0001144336107823,0.0002798203387369972
1571.4052952211446,1571.4052952211446,0.9998849840223715,0.00027968316578938187
1571.4122398613645,1571.4122398613645,1.000102578450969,0.00027972423258226976
1571.4191845016783,1571.4191845016783,1.000363419326487,0.00027964125000650927
1571.4261291418056,1571.4261291418056,0.9998498100937274,0.0002796430854116786
1571.4330737820271,1571.4330737820271,0.999596533303175,0.0002795499334301761
1571.440018422248,1571.440018422248,1.0001674442996902,0.0002795370648175093
1571.4469630624678,1571.4469630624678,0.9999487665950907,0.00027949465740082527
1571.4539077025954,1571.4539077025954,1.0001427754419665,0.0002794163399883475
1571.4608523427228,1571.4608523427228,1.0000263195589518,0.00027944612946787694
1571.4677969829436,1571.4677969829436,1.0002367453160077,0.000279596124834028
1571.4747416229786,1571.4747416229786,0.9995116442228674,0.0002793358959978543
1571.4816862631058,1571.4816862631058,1.0001187817364177,0.0002793918627257073
1571.4886309032331,1571.4886309032331,1.000108276626992,0.0002792942804929258
1571.4955755432673,1571.4955755432673,0.9997523097245031,0.00027920986493573755
1571.5025201833948,1571.5025201833948,1.0001090140804343,0.0002793565369479259
1571.50946482343,1571.50946482343,1.0000957618127062,0.0002792621946284956
1571.5164094634642,1571.5164094634642,1.000024057528694,0.0002792558891802735
1571.5233541034981,1571.5233541034981,1.0000091082793412,0.00027916989269338754
1571.5302987435323,1571.5302987435323,0.9998873038076385,0.00027912048248816726
1571.5372433834734,1571.5372433834734,1.0000949589007013,0.0002791426276594473
1571.5441880235082,1571.5441880235082,0.9997494872902657,0.0002791727708735574
1571.55113266345,1571.55113266345,1.0000616249907255,0.0002791288593604234
1571.5580773033907,1571.5580773033907,1.0003306022923508,0.00027921299972320324
1571.5650219433319,1571.5650219433319,1.0001638459021873,0.00027916142102788974
1571.5719665832728,1571.5719665832728,0.9996910829407015,0.0002791786437179025
1571.5789112232137,1571.5789112232137,1.0001735659114632,0.0002792677635625702
1571.585855863063,1571.585855863063,1.0001700937486755,0.00027924934092249257
1571.5928005029104,1571.5928005029104,0.9998060208887359,0.0002790960130457306
1571.5997451427588,1571.5997451427588,0.9998280265405437,0.00027910411558435916
1571.6066897825135,1571.6066897825135,0.9998420218135422,0.0002791837161196304
1571.6136344223612,1571.6136344223612,1.0001183100720106,0.00027917059335736316
1571.6205790622098,1571.6205790622098,0.9998940052409993,0.00027908139020450145
1571.6275237019654,1571.6275237019654,1.0000412804121954,0.00027916956772994363
1571.6344683416269,1571.6344683416269,0.999958635740237,0.0002790980562422513
1571.6414129813818,1571.6414129813818,1.0000430764585793,0.000279027828041344
1571.6483576211363,1571.6483576211363,0.9999722297295188,0.0002790814824992123
1571.6553022607982,1571.6553022607982,0.9999941501437328,0.00027903197616770966
1571.6622469003673,1571.6622469003673,1.0000609238825875,0.0002790176049123586
1571.6691915402157,1571.6691915402157,1.0001285276201333,0.00027907062068514415
1571.6761361795982,1571.6761361795982,1.0000934822066552,0.0002791209908723241
1571.6830808194459,1571.6830808194459,1.000061811566297,0.0002789950362887821
1571.6900254588277,1571.6900254588277,1.0003963042514836,0.0002789427994013831
1571.6969700984896,1571.6969700984896,0.9997448785671657,0.00027891570348009874
1571.7039147380597,1571.7039147380597,0.9995908535757099,0.00027899552287447547
1571.7108593774415,1571.7108593774415,0.9999973287648029,0.0002788909654120693
1571.717804016824,1571.717804016824,0.99967784438855,0.00027868780345100517
1571.7247486564852,1571.7247486564852,1.0000845375394525,0.00027876779968986323
1571.7316932960537,1571.7316932960537,0.9999403198784466,0.0002787882774771921
1571.7386379354366,1571.7386379354366,1.0002671556445435,0.00027880583288407017
1571.7455825748198,1571.7455825748198,1.0001083399859707,0.00027877007805988133
1571.7525272142018,1571.7525272142018,1.0001344474333291,0.00027875095926147253
1571.7594718535843,1571.7594718535843,0.9998223315380171,0.00027875662177140103
1571.7664164927799,1571.7664164927799,1.0003791026959203,0.0002786899948589952
1571.7733611318831,1571.7733611318831,1.0003716917882421,0.00027875071199669367
1571.7803057712656,1571.7803057712656,0.9998258346965612,0.0002788053939037045
1571.7872504106485,1571.7872504106485,0.9999351320227341,0.0002785835017842413
1571.7941950497514,1571.7941950497514,0.9995218013766122,0.00027847990323381775
1571.8011396889474,1571.8011396889474,1.0002257743640066,0.00027861161886754955
1571.8080843281434,1571.8080843281434,0.9998803610499258,0.0002784081739598927
1571.815028967246,1571.815028967246,1.0002829888193507,0.00027847212819264767
1571.8219736063497,1571.8219736063497,0.9997277488154633,0.000278477381120135
1571.8289182455464,1571.8289182455464,1.0003988653418971,0.0002783639319545684
1571.8358628844628,1571.8358628844628,1.0001074243863737,0.0002785018580644732
1571.8428075235656,1571.8428075235656,0.9999461786845245,0.0002783243301752953
1571.8497521625752,1571.8497521625752,0.9996373138738994,0.00027824219414927245
1571.8566968014916,1571.8566968014916,0.9998501942237968,0.00027822425082897503
1571.8636414405025,1571.8636414405025,1.000100211060575,0.0002784489660479437
1571.8705860794194,1571.8705860794194,1.0003673770488017,0.0002782925020413263
1571.8775307182427,1571.8775307182427,1.0000106066995023,0.00027840522105312444
1571.8844753571595,1571.8844753571595,1.0002403488893996,0.0002783831288365045
1571.8914199959825,1571.8914199959825,0.9998292566350055,0.00027818465561964327
1571.8983646348063,1571.8983646348063,0.9999822020206413,0.00027841238780916934
1571.9053092735373,1571.9053092735373,0.9996671188732089,0.000278294428854247
1571.9122539122677,1571.9122539122677,0.9999532123465897,0.0002782975814815347
1571.9191985509985,1571.9191985509985,0.9997586483640507,0.0002783710738512459
1571.926143189729,1571.926143189729,0.9998675365825598,0.0002781930852538649
1571.9330878283658,1571.9330878283658,1.0001265831255066,0.0002782765363926414
1571.9400324670032,1571.9400324670032,1.0005526930477544,0.000278585440860842
1571.9469771055478,1571.9469771055478,1.0002356617675203,0.0002781235119080163
1571.9539217441857,1571.9539217441857,0.9998460587516463,0.0002782692420963091
1571.9608663826366,1571.9608663826366,0.9997397312705063,0.00027823459893107756
1571.9678110211803,1571.9678110211803,1.0000823888777588,0.0002781954044825991
1571.9747556596312,1571.9747556596312,0.9999909486296324,0.00027834940823283474
1571.9817002980822,1571.9817002980822,0.9998889855953736,0.00027815587953288216
1571.9886449365342,1571.9886449365342,0.9999451324410995,0.00027813195546141115
1571.9955895748922,1571.9955895748922,1.0000253594371973,0.00027822599544257586
1572.0025342132499,1572.0025342132499,0.9999691514108863,0.00027815112475796245
1572.0094788514214,1572.0094788514214,1.000141988349465,0.00027826602283702393
1572.0164234898723,1572.0164234898723,1.0001762403078704,0.0002781810289239196
1572.0233681281368,1572.0233681281368,0.9999475092032508,0.00027814275561447826
1572.0303127663094,1572.0303127663094,1.0000312401785838,0.000278064322790985
1572.037257404388,1572.037257404388,0.9996930833526753,0.0002781043104015014
1572.0442020425594,1572.0442020425594,0.9999396963071371,0.00027796963335105886
1572.051146680731,1572.051146680731,0.9999316873539467,0.0002780975117549807
1572.0580913187162,1572.0580913187162,0.999862822767912,0.0002780753597368824
1572.0650359567949,1572.0650359567949,1.0001487366596087,0.00027793241409391735
1572.0719805947806,1572.0719805947806,1.0003825059296387,0.0002782857815691219
1572.0789252327663,1572.0789252327663,0.9997624511704872,0.0002781315958312827
1572.0858698707518,1572.0858698707518,1.0002746069354664,0.00027797669290228675
1572.0928145086436,1572.0928145086436,0.9999373138781052,0.0002779504345807362
1572.099759146536,1572.099759146536,0.9999828247554365,0.00027806781965684793
1572.1067037843347,1572.1067037843347,1.0001640944885977,0.00027794706060040654
1572.1136484221345,1572.1136484221345,0.9997767451833093,0.0002780832694158842
1572.120593059841,1572.120593059841,0.9999017882856738,0.00027790341032983996
1572.12753769764,1572.12753769764,1.0002493808311963,0.00027801851552626495
1572.1344823353454,1572.1344823353454,0.9999194898340054,0.00027790122924667784
1572.1414269729582,1572.1414269729582,0.9999073598289294,0.0002779780184980761
1572.148371610571,1572.148371610571,1.0000281359701324,0.00027793521622748946
1572.1553162481841,1572.1553162481841,0.9999746069647888,0.0002779512621175777
1572.1622608857047,1572.1622608857047,0.9997974995509711,0.0002778939834580492
1572.169205523224,1572.169205523224,1.0000906181558773,0.00027801838362138487
1572.1761501606504,1572.1761501606504,0.9999304394401364,0.0002778594305078858
1572.1830947981705,1572.1830947981705,1.0000018837486166,0.00027781974683148707
1572.1900394355966,1572.1900394355966,1.0001246823240475,0.00027797383479324976
1572.1969840728368,1572.1969840728368,0.9998553988268416,0.0002778081535932047
1572.2039287102646,1572.2039287102646,1.0001913415884949,0.000277845272326082
1572.2108733474115,1572.2108733474115,1.000330732613964,0.0002779175923340829
1572.2178179848383,1572.2178179848383,0.999747905296473,0.0002778818394368667
1572.224762621892,1572.224762621892,1.0003827394234546,0.0002778315548031453
1572.231707258946,1572.231707258946,0.9998531644042463,0.00027777421697632157
1572.238651896372,1572.238651896372,0.9997868054164808,0.000277729284004412
1572.2455965335203,1572.2455965335203,1.00008249986468,0.0002778194338543914
1572.252541170575,1572.252541170575,1.0007186742001477,0.00027781312487018723
1572.2594858076284,1572.2594858076284,0.9999548387053576,0.00027791399381259246
1572.2664304442167,1572.2664304442167,0.9999918894407992,0.0002777406944546065
1572.2733750812708,1572.2733750812708,0.9998950664348658,0.000277782164343568
1572.2803197183246,1572.2803197183246,1.0001647604701722,0.0002777092064033005
1572.2872643550068,1572.2872643550068,1.0002081608224327,0.0002778683230648202
1572.294208991968,1572.294208991968,0.9996837964725721,0.00027768728046646303
1572.3011536286492,1572.3011536286492,0.9994355349189291,0.00027769062230508917
1572.308098265424,1572.308098265424,1.000084365490762,0.00027775553525341746
1572.3150429021985,1572.3150429021985,1.0004284977658977,0.00027777694174897273
1572.3219875387865,1572.3219875387865,1.000311161660902,0.0002777573165420134
1572.3289321753753,1572.3289321753753,0.9999394678195245,0.0002778283129463832
1572.3358768119642,1572.3358768119642,1.0002042787504786,0.0002776487688175776
1572.3428214484597,1572.3428214484597,0.9995814928054638,0.00027778486866603114
1572.3497660849548,1572.3497660849548,1.0000210530952303,0.00027770871338368973
1572.3567107214499,1572.3567107214499,0.9998947587044013,0.00027773235020389
1572.363655357852,1572.363655357852,0.9998934115725049,0.0002775531390550492
1572.3705999942536,1572.3705999942536,1.0002230473302518,0.0002778782778010912
1572.3775446305635,1572.3775446305635,1.0000849682344177,0.0002776808732374415
1572.384489266873,1572.384489266873,1.0000327230686756,0.00027761534707324004
1572.3914339030885,1572.3914339030885,0.9996684609323591,0.00027758773526200003
1572.3983785393043,1572.3983785393043,0.9998099883942478,0.0002775308452595604
1572.40532317552,1572.40532317552,1.0002796955850601,0.0002775566658052233
1572.4122678115493,1572.4122678115493,1.0001424396105478,0.0002775859783677148
1572.4192124476722,1572.4192124476722,1.0000437385266365,0.0002775640482889447
1572.4261570837957,1572.4261570837957,0.9999501778864868,0.00027754158787694755
1572.433101719639,1572.433101719639,1.0000600181861397,0.0002774877075124907
1572.4400463555753,1572.4400463555753,0.9999461730406718,0.0002775767076564646
1572.4469909914185,1572.4469909914185,0.9999453553549535,0.000277394042571337
1572.453935627355,1572.453935627355,0.9998537393865362,0.00027743033710032276
1572.4608802631979,1572.4608802631979,0.9998692604947615,0.00027737806699282866
1572.4678248990422,1572.4678248990422,1.000291893696327,0.000277658285302819
1572.4747695347926,1572.4747695347926,1.0003519623578516,0.0002773822950302254
1572.4817141704495,1572.4817141704495,1.0000017663413039,0.0002774957466091202
1572.4886588061067,1572.4886588061067,0.9995791909079268,0.00027743191890222457
1572.49560344167,1572.49560344167,1.0000603257641187,0.00027739921960273184
1572.5025480772338,1572.5025480772338,0.9998314896395442,0.00027738628436187456
1572.509492712705,1572.509492712705,0.9998730914231675,0.0002773233239588758
1572.5164373481766,1572.5164373481766,0.999713306403676,0.00027744086330591883
1572.5233819836471,1572.5233819836471,1.000320436886813,0.0002774584592054743
1572.5303266190251,1572.5303266190251,1.000431957459116,0.0002774032509452109
1572.537271254309,1572.537271254309,1.0001763952244023,0.0002774108156122131
1572.544215889687,1572.544215889687,0.9999492517987557,0.00027739836681673935
1572.5511605248782,1572.5511605248782,1.0000349697544082,0.000277281864953208
1572.5581051600698,1572.5581051600698,0.9997918163051225,0.0002773473774593623
1572.5650497951688,1572.5650497951688,1.0000919570184656,0.0002775010418665571
1572.5719944303598,1572.5719944303598,0.9999273883662202,0.00027744726014390094
