time,time,flux,flux_err
1683.354202048483,1683.354202048483,0.9999847467579533,0.00017742797621705052
1683.362535334569,1683.362535334569,1.0000067726177237,0.00017738263344383028
1683.370174180108,1683.370174180108,0.9997587277555546,0.000161896047484473
1683.3771185852243,1683.3771185852243,1.0001086531847576,0.00016186926882309484
1683.38406299034,1683.38406299034,1.0000790034799205,0.00016190012427459534
1683.391007395502,1683.391007395502,1.0001223432049475,0.00016183680795451888
1683.397951800664,1683.397951800664,1.000146396121047,0.00016184303660352463
1683.4048962058732,1683.4048962058732,0.9999919690413769,0.00016181523417104182
1683.4118406111288,1683.4118406111288,1.0000859469472971,0.0001618347008409098
1683.4187850162912,1683.4187850162912,0.9999562882464998,0.00016184936793239564
1683.4257294216393,1683.4257294216393,0.9997556888504159,0.00016187935277919054
1683.4326738268487,1683.4326738268487,0.9996261106799622,0.00016182649808090357
1683.439618232244,1683.439618232244,1.0001560815227364,0.00016182699159302672
1683.4465626376386,1683.4465626376386,1.0001667718897658,0.00016183404524305157
1683.4535070430338,1683.4535070430338,1.0001324915294665,0.00016183873638040276
1683.460451448429,1683.460451448429,1.0001646456010127,0.0001618569667530054
1683.4673958538242,1683.4673958538242,1.0001411649734109,0.0001618662149472374
1683.4743402592194,1683.4743402592194,0.9999402451987445,0.00016182920753641625
1683.4812846646146,1683.4812846646146,0.9995882226999939,0.00016187586596726504
1683.488229070103,1683.488229070103,1.0000127585597167,0.00016184313268682702
1683.4951734756378,1683.4951734756378,0.9997668509761718,0.0001618700567667923
1683.5021178811726,1683.5021178811726,0.9997751246867056,0.00016184166635722173
1683.5090622867076,1683.5090622867076,1.0004147514885902,0.00016184332403175976
1683.5160066922886,1683.5160066922886,0.9999862266845885,0.00016191191437818468
1683.5229510979166,1683.5229510979166,1.0001466431776966,0.00016187752795535217
1683.529895503545,1683.529895503545,1.0000246616305994,0.0001618714728894833
1683.5368399092197,1683.5368399092197,1.000034708232087,0.00016189256904846334
1683.5437843148939,1683.5437843148939,0.9998217678618048,0.00016185756505236704
1683.551839825525,1683.551839825525,1.0000290317454232,0.0001619043993613567
1683.5601731123716,1683.5601731123716,1.000124521931655,0.00016189510255380682
1683.5698952804837,1683.5698952804837,1.0002995332354327,0.00016193932085446788
1683.5771174624672,1683.5771174624672,0.9999944028730967,0.00016194155050132378
1683.5854507494537,1683.5854507494537,0.9998627969629215,0.00016195377041367944
1683.5923951553148,1683.5923951553148,0.9998389572415695,0.00016194872945132581
1683.5993395611754,1683.5993395611754,0.9997690104927208,0.00016192513805246615
1683.607950624517,1683.607950624517,1.0000357583132031,0.0001619369503861598
1683.616006135381,1683.616006135381,1.0000116061091204,0.0001619939400332838
1683.622950541382,1683.622950541382,1.0000208359099638,0.00016199371050076573
1683.6298949473355,1683.6298949473355,1.000240347488568,0.00016196467337791068
1683.638228234508,1683.638228234508,1.0002407288633577,0.00016199690477110819
1683.645172640509,1683.645172640509,1.0001712732018888,0.00016199519267363194
1683.6521170466026,1683.6521170466026,1.0000105576710676,0.00016198459097464528
1683.6590614526492,1683.6590614526492,0.9996715614612601,0.0001619753422794322
1683.666005858743,1683.666005858743,0.9999142601156752,0.00016201548309986366
1683.6729502648366,1683.6729502648366,0.9999578570173959,0.00016204184908350498
1683.6798946710237,1683.6798946710237,0.999837592945666,0.0001619759992954309
1683.6868390772102,1683.6868390772102,1.0002620504669901,0.00016198196322785507
1683.693783483351,1683.693783483351,1.0000654474516082,0.00016198423231687974
1683.7007278896303,1683.7007278896303,0.999938481407068,0.00016196600152274568
1683.7076722958172,1683.7076722958172,0.999905761477158,0.00016191873394077953
1683.7146167020971,1683.7146167020971,1.0001034289815758,0.00016192813851717024
1683.7215611084237,1683.7215611084237,1.0001317814915076,0.00016190169622276165
1683.7285055147036,1683.7285055147036,1.0000849864149852,0.00016189157008270028
1683.7354499210767,1683.7354499210767,0.9996187801677211,0.00016180672714329693
1683.7423943274503,1683.7423943274503,0.999797258204908,0.00016185727629444035
1683.749338733823,1683.749338733823,0.9999602069615456,0.0001618645588817045
1683.7562831401956,1683.7562831401956,1.0001011014735508,0.00016190395729910918
1683.7632275467088,1683.7632275467088,1.000095032425958,0.0001619260947159691
1683.7701719530814,1683.7701719530814,1.0000380745677684,0.00016185775912131922
1683.7771163595946,1683.7771163595946,1.0000573802926573,0.0001618684221498169
1683.784060766154,1683.784060766154,1.0000334404681372,0.0001618604913850424
1683.7910051727129,1683.7910051727129,1.000057980523715,0.00016187835529326078
1683.7979495792722,1683.7979495792722,0.9998699395599256,0.00016190732040688275
1683.804893985832,1683.804893985832,0.9999414038113071,0.000161871706288511
1683.8118383923909,1683.8118383923909,1.0000743173353754,0.0001618657626519332
1683.818782799043,1683.818782799043,0.9999448069166371,0.00016188658364455036
1683.8257272057424,1683.8257272057424,0.9999311470199098,0.00016187858928694282
1683.8326716123952,1683.8326716123952,1.000097961270276,0.0001619088605685118
1683.8396160190944,1683.8396160190944,0.9999774252803194,0.00016190681702610507
1683.846560425886,1683.846560425886,1.0002406600492553,0.0001619305036993079
1683.8535048326316,1683.8535048326316,1.0001407345386348,0.0001619649859927004
1683.8604492393774,1683.8604492393774,0.9998429124757402,0.00016191441111685332
1683.867393646216,1683.867393646216,0.9995794297142062,0.00016190926322519713
1683.874338053008,1683.874338053008,1.000096073063629,0.00016194500871580283
1683.8812824599402,1683.8812824599402,1.000009532229857,0.00016183278997123235
1683.8907268532334,1683.8907268532334,1.0000369727595684,0.00016185985591528083
1683.9007267992376,1683.9007267992376,1.0000754461740566,0.000161895188291479
1683.9076712062156,1683.9076712062156,1.0000317991057028,0.00016190899500973324
1683.9146156131942,1683.9146156131942,0.9997992581293268,0.0001618751658432796
1683.9215600202192,1683.9215600202192,1.0000304250994683,0.00016186852391090006
1683.9285044272444,1683.9285044272444,1.0000165180334735,0.00016190190081250298
1683.9354488343156,1683.9354488343156,0.9999734392628078,0.00016188784490720075
1683.9423932413404,1683.9423932413404,0.9999872124066526,0.00016186455697213368
1683.9493376485054,1683.9493376485054,1.0003061648509521,0.00016187363382807408
1683.9562820556234,1683.9562820556234,0.9999135698703128,0.0001618745344401275
1683.9632264627883,1683.9632264627883,0.9999731011750026,0.00016189942525380013
1683.9701708699995,1683.9701708699995,0.9998732356810592,0.00016185869170483232
1683.977115277164,1683.977115277164,0.999987441248857,0.00016188420002817154
1683.9840596844224,1683.9840596844224,1.0000910870552584,0.0001618854254418093
1683.9910040917264,1683.9910040917264,0.9999037488372077,0.00016187583889137495
1683.9979484989842,1683.9979484989842,1.0002249698550556,0.00016191165170090143
1684.0048929062887,1684.0048929062887,0.9998940232611613,0.0001618331426404614
1684.0118373136397,1684.0118373136397,1.0001094182940384,0.00016186843629529312
1684.0187817210372,1684.0187817210372,0.9999087788352892,0.00016187799195843236
1684.0257261284344,1684.0257261284344,0.9999623014588706,0.00016189106644814776
1684.0326705358323,1684.0326705358323,0.9999215381676546,0.00016195936503833304
1684.0396149432763,1684.0396149432763,1.0000275816000284,0.00016193649104035836
1684.0473926796471,1684.0473926796471,1.0000654076536186,0.00016191180054883647
1684.054892639802,1684.054892639802,0.9999424858461967,0.00016198565129468622
1684.0618370473392,1684.0618370473392,1.0003893964437265,0.00016195042241723322
1684.068781454877,1684.068781454877,0.999824254256233,0.0001619563099160701
1684.0757258624603,1684.0757258624603,0.9998604452403457,0.00016196556700748477
1684.0826702700906,1684.0826702700906,0.9999153179956106,0.00016189329026492421
1684.0896146778136,1684.0896146778136,1.0001796365797746,0.0001619714565719518
1684.0965590853048,1684.0965590853048,0.9997203214442274,0.0001618378524125686
1684.1035034930287,1684.1035034930287,1.0000021342248542,0.00016195326539604818
1684.1104479007518,1684.1104479007518,1.000068818802322,0.00016185828579960452
1684.1173923084752,1684.1173923084752,1.0000749282996826,0.00016187494903559366
1684.1243367164316,1684.1243367164316,1.0002017578876834,0.00016194832004718916
1684.131281124155,1684.131281124155,0.9995376682102037,0.00016189343343279107
1684.1382255319718,1684.1382255319718,0.9999589023296442,0.00016200748561067424
1684.1451699398344,1684.1451699398344,1.0001537402057497,0.00016193496913748112
1684.1521143477444,1684.1521143477444,1.0001015265747624,0.00016194355145660028
1684.1590587556543,1684.1590587556543,1.0000729787883114,0.0001619547498891105
1684.1660031635643,1684.1660031635643,0.9999245241185466,0.00016190730316370956
1684.1729475715206,1684.1729475715206,1.000332023132422,0.00016188978116170403
1684.179891979523,1684.179891979523,0.9997796715843957,0.00016190885517954507
1684.1868363875267,1684.1868363875267,0.9998669445549021,0.00016192056015138352
1684.1937807956224,1684.1937807956224,1.0002825612445285,0.00016198925703866804
1684.2007252037179,1684.2007252037179,0.9999534423362351,0.0001618815353464297
1684.2076696118136,1684.2076696118136,1.0002269528539862,0.00016191721393554658
1684.214614019957,1684.214614019957,1.0001186832525963,0.0001619815141723269
1684.2215584280996,1684.2215584280996,0.9999988648843836,0.00016188958165504793
1684.2285028362883,1684.2285028362883,0.9998302328459332,0.00016195628654351525
1684.2354472444774,1684.2354472444774,1.0002849344702938,0.00016204418090593007
1684.2423916527598,1684.2423916527598,0.9998114284407459,0.0001619610234160071
1684.2493360609958,1684.2493360609958,0.9999588079742182,0.0001620195736916094
1684.2562804692777,1684.2562804692777,1.0000438904319424,0.00016206857025844918
1684.2632248776067,1684.2632248776067,0.999762138531999,0.00016202285214589692
1684.2701692860287,1684.2701692860287,1.00017512452464,0.00016210424635300534
1684.277113694358,1684.277113694358,0.9996624605516701,0.0001620116150994102
1684.2840581027795,1684.2840581027795,1.0002498444988261,0.00016209496433701838
1684.2910025112476,1684.2910025112476,0.9998410193702931,0.00016210612704560981
1684.2979469196696,1684.2979469196696,1.000217476200524,0.00016211190907042822
1684.3048913281855,1684.3048913281855,0.9999342285855765,0.00016216124027042692
1684.3118357367468,1684.3118357367468,0.9999793240096535,0.00016217967426491737
1684.3187801453082,1684.3187801453082,0.9997786886949876,0.00016218479507787727
1684.3257245538698,1684.3257245538698,1.000458189571491,0.0001621594800308682
1684.3326689624785,1684.3326689624785,0.9998939135524019,0.00016219646704946562
1684.3396133711333,1684.3396133711333,1.0000776253976862,0.00016220922780749424
1684.3465577797876,1684.3465577797876,0.9999179940731919,0.00016223125998545484
1684.353502188489,1684.353502188489,1.0001407428992235,0.00016223265707392083
1684.3604465971907,1684.3604465971907,1.000133697474217,0.00016225362946430336
1684.3673910059854,1684.3673910059854,0.9998367960043787,0.00016224221416933027
1684.374335414733,1684.374335414733,1.000162161079221,0.00016232187082046852
1684.3812798236206,1684.3812798236206,1.0001841823210935,0.00016233065803256466
1684.3882242325083,1684.3882242325083,1.000030633944567,0.00016227504395990177
1684.395168641396,1684.395168641396,0.9999245443818673,0.0001623302312564404
1684.4021130502838,1684.4021130502838,0.999915724756329,0.00016236978813443718
1684.4090574591708,1684.4090574591708,0.9999369027659236,0.00016237830044163362
1684.4160018680589,1684.4160018680589,0.9997243275987591,0.00016234104973796658
1684.42294627704,1684.42294627704,1.0002755213303347,0.0001623720543610373
1684.429890686067,1684.429890686067,0.9998600920007586,0.0001623688814998832
1684.4368350951409,1684.4368350951409,0.9998958474413389,0.00016241737391648131
1684.4437795042147,1684.4437795042147,0.9999757329988247,0.00016242581498865667
1684.4507239132886,1684.4507239132886,0.9999453015206882,0.0001623877022197282
1684.457668322409,1684.457668322409,1.0002668114968931,0.00016252613093278894
1684.4646127315762,1684.4646127315762,1.0000197855895967,0.0001625322289189913
1684.4715571407899,1684.4715571407899,1.0002288875996068,0.00016251667671667453
1684.4785015500033,1684.4785015500033,0.9995095253837138,0.0001624768920580967
1684.4854459592636,1684.4854459592636,1.0001209488809073,0.00016252871812833344
1684.4923903685237,1684.4923903685237,0.9999100513028791,0.00016258415939227243
1684.4993347778304,1684.4993347778304,0.9999535602249573,0.00016254040882661614
1684.5062791871837,1684.5062791871837,0.9999676134898274,0.0001625981057645859
1684.5132235965837,1684.5132235965837,0.9998856638041976,0.0001626316789696077
1684.5201680059836,1684.5201680059836,0.9999117910325712,0.00016262012948504366
1684.5271124154297,1684.5271124154297,0.99993246057481,0.00016262174285696694
1684.534056824923,1684.534056824923,0.9999345116422015,0.00016267678767949604
1684.541001234369,1684.541001234369,1.0003119421761508,0.0001627430109692576
1684.5479456438625,1684.5479456438625,0.9999151550419795,0.00016265640219177978
1684.5548900534018,1684.5548900534018,1.00010429870614,0.0001627162192978438
1684.5618344629881,1684.5618344629881,1.0000595031621256,0.00016275303428208977
1684.568778872574,1684.568778872574,1.000095384263872,0.00016276973145239575
1684.5757232822532,1684.5757232822532,1.0002967732626833,0.00016277087970469281
1684.582667691932,1684.582667691932,0.9999063893464577,0.00016279151669748544
1684.5896121016121,1684.5896121016121,0.9999471924693608,0.0001627467560821918
1684.596556511338,1684.596556511338,0.9999508124375354,0.00016284710390939173
1684.60350092111,1684.60350092111,1.0005458976989285,0.00016287612098912503
1684.6104453308824,1684.6104453308824,0.9999623853471034,0.00016284416485975003
1684.6173897407014,1684.6173897407014,0.9998309132830663,0.0001628330872194443
1684.624334150567,1684.624334150567,1.0000191583096079,0.00016293374099874346
1684.631278560432,1684.631278560432,0.9998706884001706,0.00016283824412160263
1684.6382229703909,1684.6382229703909,0.9998226121719795,0.00016286074440398886
1684.6451673802567,1684.6451673802567,1.0001569283645004,0.00016294577516979134
1684.6521117902619,1684.6521117902619,1.0000049458533815,0.00016294793370286682
1684.6590562003137,1684.6590562003137,0.9998325854049993,0.00016289400496181263
1684.6660006103655,1684.6660006103655,1.0004669751444284,0.00016295129554494842
1684.6729450204177,1684.6729450204177,1.0000277733475342,0.00016292112613853837
1684.679889430469,1684.679889430469,0.9999873771479162,0.0001629432042389983
1684.686833840567,1684.686833840567,0.9998352306898841,0.00016292323428814803
1684.6937782508053,1684.6937782508053,1.0002065748047484,0.00016295588887953018
1684.7007226609505,1684.7007226609505,1.000273033323158,0.00016291343179297127
1684.707667071142,1684.707667071142,1.0000161635354892,0.00016300390396716455
1684.7146114814263,1684.7146114814263,1.0004501083329274,0.00016304343192850601
1684.721555891711,1684.721555891711,1.000053345255173,0.0001629199806888935
1684.7285003020424,1684.7285003020424,0.9997892699988142,0.00016296507845926686
1684.7354447123732,1684.7354447123732,0.9961867393420436,0.00016268738612691637
1684.7423891227045,1684.7423891227045,0.9933323901377505,0.00016251776672927465
1684.7493335331753,1684.7493335331753,0.9931577830863454,0.00016249318360947186
1684.7562779436,1684.7562779436,0.9924253149461716,0.00016244177686989815
1684.763222354024,1684.763222354024,0.9924106507249484,0.00016245545560955463
1684.7701667645415,1684.7701667645415,0.992031303380824,0.0001624300844997643
1684.7771111751056,1684.7771111751056,0.9920264834563216,0.00016243017856866973
1684.784055585623,1684.784055585623,0.9919001884096309,0.00016247001033478577
1684.790999996234,1684.790999996234,0.9917122843404951,0.0001624492245917776
1684.7979444068908,1684.7979444068908,0.9918994825034639,0.00016249973564771771
1684.804888817501,1684.804888817501,0.9918072735974294,0.00016248741632346412
1684.8118332282052,1684.8118332282052,0.9913784770869883,0.00016246487056745246
1684.818777638909,1684.818777638909,0.9917631787775398,0.00016249198723768536
1684.8257220496591,1684.8257220496591,0.9920903133698514,0.00016250877905861383
1684.8326664604556,1684.8326664604556,0.991648263782422,0.00016247827755206
1684.8396108712993,1684.8396108712993,0.9917472137919215,0.00016252456603848845
1684.8465552820962,1684.8465552820962,0.9917559342154529,0.0001625086773787736
1684.8534996929861,1684.8534996929861,0.9920096006145614,0.0001625400837474539
1684.8604441038758,1684.8604441038758,0.991845997433115,0.00016251219448730372
1684.8673885148123,1684.8673885148123,0.9919005131972579,0.00016256602232627538
1684.874332925796,1684.874332925796,0.992239789197097,0.00016252954945416548
1684.881277336779,1684.881277336779,0.9929076043334193,0.00016263755797371195
1684.888221747855,1684.888221747855,0.9931605902016931,0.00016257961885725054
1684.8951661588385,1684.8951661588385,0.9951859774670136,0.00016280632939514732
1684.902110570054,1684.902110570054,0.9990387067783832,0.00016307710810056327
1684.9090549810376,1684.9090549810376,1.0000606611213991,0.0001630853122385088
1684.915999392253,1684.915999392253,1.0000138679673827,0.0001630920155362904
1684.9229438034697,1684.9229438034697,1.0000971490900985,0.00016309084838886834
1684.9298882146854,1684.9298882146854,1.000235272378506,0.00016309626460063792
1684.936832625901,1684.936832625901,1.0001736871412108,0.00016308686428351306
1684.943777037257,1684.943777037257,1.0003061705172147,0.00016305020514770878
1684.9507214485657,1684.9507214485657,0.9997437545188479,0.00016298587398288597
1684.9576658599217,1684.9576658599217,1.000158655737755,0.0001630136746761119
1684.9646102713236,1684.9646102713236,0.9998807971810468,0.0001629910254614712
1684.9715546827258,1684.9715546827258,0.9998982237921492,0.00016293294614251732
1684.9784990941748,1684.9784990941748,1.0001109214601378,0.00016291660304155805
1684.98544350567,1684.98544350567,0.9996147622290975,0.0001629335762968151
1684.9923879171652,1684.9923879171652,1.0000767848356233,0.0001629566947553551
1684.9993323287072,1684.9993323287072,1.0001363281899356,0.0001629762129196312
1685.006276740296,1685.006276740296,1.000148938966737,0.0001629787362244887
1685.0132211519308,1685.0132211519308,1.000212351968461,0.00016294190495113838
1685.0201655635658,1685.0201655635658,0.9996339238649593,0.0001629066554838701
1685.0271099752474,1685.0271099752474,0.9999611277647735,0.00016294275934299914
1685.0340543869293,1685.0340543869293,1.0000984298783357,0.00016290692106748236
1685.040998798704,1685.040998798704,1.0001045570787341,0.0001629577494668905
1685.0479432104319,1685.0479432104319,1.0002282360902333,0.0001629537683634213
1685.0548876222533,1685.0548876222533,0.9999062717788286,0.0001629286235388441
1685.0618320341212,1685.0618320341212,1.0003139436922566,0.00016298777140743296
1685.068776445989,1685.068776445989,0.9999265608065736,0.00016300495178131133
1685.0757208579034,1685.0757208579034,0.9998651675430098,0.00016294223957733883
1685.0826652698179,1685.0826652698179,0.9998284924065333,0.0001629513358671028
1685.0896096818258,1685.0896096818258,1.000029788761309,0.00016295568157253054
1685.0965540937864,1685.0965540937864,0.9998271778325165,0.00016297243756769212
1685.1034985058402,1685.1034985058402,1.0005248060221117,0.00016304003421322154
1685.1104429178945,1685.1104429178945,1.0000348028242487,0.0001630275497973197
1685.1173873299954,1685.1173873299954,0.9999008860674055,0.00016300576633801684
