time,time,flux,flux_err
1325.3000027043363,1325.3000027043363,0.9997944482267794,0.0003151151056307654
1325.3083361530428,1325.3083361530428,1.0000317236902208,0.00031525633213863575
1325.3166696019243,1325.3166696019243,1.0002588030999664,0.0003154069928930039
1325.325003050951,1325.325003050951,0.9999538733704328,0.0003154674715619106
1325.3326420460392,1325.3326420460392,1.000555267914816,0.00028817578028735274
1325.33958658714,1325.33958658714,1.0001466991698005,0.00028819361553943763
1325.3465311283694,1325.3465311283694,0.999646980343433,0.0002882664250778954
1325.3534756696802,1325.3534756696802,0.9998121614567521,0.00028839719210990705
1325.3604202111069,1325.3604202111069,0.9998012822429894,0.000288567137337194
1325.3673647526507,1325.3673647526507,1.0005835168454706,0.0002887919369230193
1325.3743092942755,1325.3743092942755,1.000337186611731,0.00028888356090252016
1325.3812538360169,1325.3812538360169,1.000159723287754,0.00028901545554136775
1325.3881983778515,1325.3881983778515,1.0000575758830659,0.0002891664074572045
1325.3951429197905,1325.3951429197905,0.9994576451814907,0.00028919580745524087
1325.4020874618232,1325.4020874618232,0.9996436041859698,0.00028937343196459717
1325.4090320039484,1325.4090320039484,0.9997414529034019,0.0002895231035368287
1325.4159765461904,1325.4159765461904,1.0002621749500613,0.0002897664025922278
1325.422921088514,1325.422921088514,1.0000043277752724,0.00028989022871327787
1325.4298656309304,1325.4298656309304,1.0003250803510586,0.0002901098071773983
1325.4368101734403,1325.4368101734403,1.0000354659657422,0.0002902408246844579
1325.4437547160428,1325.4437547160428,1.0006828459651362,0.0002904908484588534
1325.4506992587274,1325.4506992587274,0.9994213999676692,0.0002905032544038587
1325.457643801505,1325.457643801505,1.000009818375651,0.00029073050595233114
1325.464588344387,1325.464588344387,0.9999357860893714,0.0002909040004590013
1325.471532887339,1325.471532887339,1.0000527868062359,0.00029112948873522644
1325.4784774303844,1325.4784774303844,0.9996119933319875,0.00029127061144441853
1325.485421973511,1325.485421973511,1.000184235314648,0.00029154784368009537
1325.4923665167194,1325.4923665167194,0.999889196043724,0.0002917270686810351
1325.4993110600208,1325.4993110600208,1.0003876134474898,0.0002920019817025513
1325.5062556033918,1325.5062556033918,0.9998100213169423,0.00029214230931246226
1325.5132001468446,1325.5132001468446,0.9999508709732214,0.0002923409542089161
1325.5201446903786,1325.5201446903786,1.0002962618766016,0.000292585240385739
1325.5270892340056,1325.5270892340056,0.9994593723918251,0.0002927050015472482
1325.5340337776913,1325.5340337776913,1.0001291934580234,0.000292972613719586
1325.5409783214814,1325.5409783214814,0.9997301996547,0.00029311508214701514
1325.547922865307,1325.547922865307,1.0002454276039168,0.0002933632010925849
1325.5548674092252,1325.5548674092252,1.0003816702593986,0.0002935181487850849
1325.5618119532137,1325.5618119532137,1.0001126866624293,0.00029368082257665506
1325.5687564972834,1325.5687564972834,1.0000332572643322,0.00029381636016139606
1325.5757010414227,1325.5757010414227,0.9998895246730191,0.0002939462953027069
1325.5826455856209,1325.5826455856209,0.999640174874368,0.00029403279747415974
1325.5895901298993,1325.5895901298993,0.9997728309570947,0.00029415846455267333
1325.596534674249,1325.596534674249,1.0002481547655369,0.0002943018510095193
1325.6034792186442,1325.6034792186442,1.000096957419587,0.00029439078841192505
1325.6104237631214,1325.6104237631214,0.9998729700305905,0.00029437712056268263
1325.6173683076802,1325.6173683076802,1.000089306408249,0.00029446146920735584
1325.6243128522738,1325.6243128522738,1.0000890314569177,0.00029449913403140716
1325.6312573969487,1325.6312573969487,1.0001666978858872,0.0002944960998929251
1325.6382019416938,1325.6382019416938,0.9997373351330804,0.00029443418723989806
1325.645146486485,1325.645146486485,0.9997992946358913,0.00029445495984222234
1325.6520910313463,1325.6520910313463,1.0001797997400381,0.0002944702577336746
1325.6590355762776,1325.6590355762776,0.9999683458998107,0.0002944188208750598
1325.6659801212436,1325.6659801212436,1.0003464458487403,0.0002944140891853339
1325.672924666291,1325.672924666291,0.999734737084409,0.00029431495046751616
1325.6798692113855,1325.6798692113855,1.000243521430725,0.00029437284047910634
1325.6868137565377,1325.6868137565377,0.9999219299813464,0.0002943189988028331
1325.693758301748,1325.693758301748,1.0000392261984878,0.00029435805889269036
1325.7007028470057,1325.7007028470057,0.9996337405991497,0.0002943231030109822
1325.7076473923323,1325.7076473923323,0.9998211547092876,0.00029436213768887836
1325.7145919377058,1325.7145919377058,0.999961158613359,0.0002944183362368129
1325.7215364831259,1325.7215364831259,1.0006000446613315,0.0002945323175982994
1325.728481028616,1325.728481028616,0.9999751538952072,0.0002944830078513064
1325.7354255741525,1325.7354255741525,0.999707450553306,0.0002944882025731114
1325.742370119712,1325.742370119712,0.9996698555702807,0.00029454306951794265
1325.7493146653417,1325.7493146653417,1.0006458206089535,0.00029475139995329173
1325.7562592110182,1325.7562592110182,0.9999449029686243,0.0002947308337461167
1325.7632037567407,1325.7632037567407,0.99992604631681,0.00029477432091792877
1325.7701483025335,1325.7701483025335,0.9997064181267958,0.0002948472502610181
1325.777092848361,1325.777092848361,1.0002111063587245,0.00029499216506678283
1325.7840373942117,1325.7840373942117,1.0000845553390518,0.00029503384466111047
1325.7909819401325,1325.7909819401325,1.000333433545519,0.0002951125189345256
1325.797926486088,1325.797926486088,1.0002717110756811,0.00029516989860087813
1325.8048710321023,1325.8048710321023,0.9994473299996474,0.00029509925896575677
1325.811815578139,1325.811815578139,0.9997259666392798,0.00029520800181859425
1325.818760124223,1325.818760124223,1.0000625953148201,0.00029527603814097207
1325.8257046703761,1325.8257046703761,0.9996869808883158,0.00029525249422633523
1325.83264921653,1325.83264921653,1.0001872131367648,0.0002953012176799355
1325.8395937627533,1325.8395937627533,0.9998687378323551,0.0002952851166141589
1325.8465383090113,1325.8465383090113,1.0001595837020776,0.00029527792109693607
1325.8534828552924,1325.8534828552924,1.0001566403730342,0.0002952343085244375
1325.8604274016327,1325.8604274016327,1.0001345227487297,0.00029515903702457977
1325.867371948019,1325.867371948019,1.0007304721581365,0.0002951732827094413
1325.8743164944287,1325.8743164944287,0.9995743799620698,0.00029492235739510606
1325.88126104085,1325.88126104085,1.000072045624702,0.0002948469669326246
1325.8882055873412,1325.8882055873412,1.000170800477013,0.000294793607629125
1325.8951501338554,1325.8951501338554,1.0000496502793066,0.00029467324446666633
1325.9020946804048,1325.9020946804048,0.9998841498406857,0.00029456918843629527
1325.909039227001,1325.909039227001,0.9995681274127985,0.00029447216751957487
1325.9159837736197,1325.9159837736197,1.0000067116485059,0.0002944567779217089
1325.9229283202856,1325.9229283202856,1.0008010759687835,0.00029450080430538407
1325.9298728669862,1325.9298728669862,1.0004395492790914,0.00029439230988370066
1325.9368174136869,1325.9368174136869,0.9997889623729875,0.0002942834984247263
1325.9437619604573,1325.9437619604573,0.99972950174025,0.000294205959673749
1325.950706507228,1325.950706507228,0.999629218715468,0.0002941614039100258
1325.957651054045,1325.957651054045,1.0003211712181457,0.0002941986231548162
1325.9657067284043,1325.9657067284043,1.000029419320065,0.0002941415464926307
1325.9729290571477,1325.9729290571477,0.9997743648800119,0.00029408067036682905
1325.979873604069,1325.979873604069,0.9999390043772959,0.00029408666496275786
1325.9868181510028,1325.9868181510028,1.000041709814252,0.00029408064473198644
1325.993762697971,1325.993762697971,1.0003765839012768,0.00029410040427956224
1326.0007072449632,1326.0007072449632,0.9999542530007866,0.0002940635691628767
1326.007651792001,1326.007651792001,1.0000896669733248,0.0002941504572710676
1326.0145963390396,1326.0145963390396,1.0000076056576817,0.0002942121341766103
1326.021540886136,1326.021540886136,0.9997248972879793,0.0002942013052093928
1326.0284854332326,1326.0284854332326,0.9999600373810544,0.0002942828080625116
1326.0354299803523,1326.0354299803523,1.000332824410434,0.0002943406122698655
1326.0423745275068,1326.0423745275068,1.0000295102003212,0.0002942524019163587
1326.0493190746852,1326.0493190746852,0.9997403124802675,0.00029419027904335705
1326.0562636218976,1326.0562636218976,1.0001079636594903,0.0002942572678219057
1326.0632081691106,1326.0632081691106,0.9994747277794834,0.0002941851267180409
1326.07015271637,1326.07015271637,1.0001690213987993,0.0002942816175757825
1326.0770972636178,1326.0770972636178,1.0003952446819313,0.0002942885201749221
1326.0840418109358,1326.0840418109358,0.9994698468035954,0.00029419845234532755
1326.0909863582417,1326.0909863582417,1.0000202508336782,0.0002942817465911847
1326.0979309055942,1326.0979309055942,1.0004553012457202,0.0002943266014802598
1326.104875452947,1326.104875452947,0.9997556209311386,0.0002942238488404835
1326.1118200003225,1326.1118200003225,1.0000462556900807,0.00029422712458035654
1326.118764547722,1326.118764547722,0.999537447616947,0.000294189074104025
1326.1257090951326,1326.1257090951326,1.0001149517949763,0.0002942403045233139
1326.1326536425786,1326.1326536425786,0.9997760966618984,0.00029419872529290214
1326.1395981900357,1326.1395981900357,0.9999447691624562,0.00029417804718030337
1326.1465427375167,1326.1465427375167,1.000272445141249,0.0002942328154005138
1326.1534872850204,1326.1534872850204,1.0001410960177277,0.0002941637006294946
1326.1604318325244,1326.1604318325244,0.9998345986863519,0.0002941095011780373
1326.1673763800402,1326.1673763800402,0.9997105765488452,0.00029410712922026426
1326.1743209276133,1326.1743209276133,1.0005119515323344,0.00029414120885987903
1326.1812654751877,1326.1812654751877,0.9999867547733043,0.00029404898111295335
1326.1882100227613,1326.1882100227613,1.0003106284906433,0.000294041285638268
1326.1951545703348,1326.1951545703348,1.0000128374004738,0.0002939918786378479
1326.2020991179556,1326.2020991179556,0.9997267078080856,0.00029390115474111435
1326.2090436655758,1326.2090436655758,1.0001260776206795,0.00029396992215451295
1326.2159882132194,1326.2159882132194,0.9997527114575876,0.00029388560845440586
1326.2229327608864,1326.2229327608864,0.9996478761618406,0.0002938243893149097
1326.2298773085531,1326.2298773085531,0.9992199079282376,0.0002937917925169345
1326.2368218562435,1326.2368218562435,1.0002714736208174,0.0002938932367636937
1326.2437664039448,1326.2437664039448,1.0002009752384935,0.00029382645110408244
1326.2507109516707,1326.2507109516707,1.0001413399475383,0.0002937803978903677
1326.257655499384,1326.257655499384,1.0004337844694817,0.0002937988791447231
1326.264600047121,1326.264600047121,0.9997126140714225,0.0002937063967234878
1326.2715445948693,1326.2715445948693,0.9999120866459899,0.00029364716683898985
1326.2784891426406,1326.2784891426406,1.0002594441216999,0.00029367087565368075
1326.285433690401,1326.285433690401,0.99987140934129,0.0002935878864725899
1326.2923782381956,1326.2923782381956,1.000027000255844,0.0002936179915789568
1326.2993227860024,1326.2993227860024,1.0001210228738597,0.0002936213447251233
1326.3062673338088,1326.3062673338088,0.9997881022268287,0.0002935681320591292
1326.3132118816277,1326.3132118816277,1.00014275606115,0.0002936485252662482
1326.3201564294573,1326.3201564294573,0.9995623663002998,0.00029350549170419944
1326.3271009773102,1326.3271009773102,0.9999180708558558,0.0002935562390150526
1326.3340455251287,1326.3340455251287,1.000310242870755,0.0002936028441310256
1326.3409900729935,1326.3409900729935,0.9998642459038491,0.00029354673026610507
1326.3490457485168,1326.3490457485168,0.9997023870448191,0.0002935481169982615
1326.3576569879272,1326.3576569879272,1.0003995922825297,0.0002936523937504988
1326.3646015357922,1326.3646015357922,1.0000471286580328,0.00029360840619463565
1326.3715460837034,1326.3715460837034,1.0002166729072308,0.0002936058502038002
1326.3784906316032,1326.3784906316032,1.0002483432817442,0.0002936325664814836
1326.3854351795144,1326.3854351795144,0.9998429908816245,0.0002935877516006337
1326.3923797274376,1326.3923797274376,0.9989660057610592,0.0002935090301263523
1326.3993242753727,1326.3993242753727,0.9998162929016887,0.0002936316871463623
1326.4062688233068,1326.4062688233068,1.000579187386725,0.0002937193901871117
1326.413213371254,1326.413213371254,0.9998293850887154,0.00029365011930024336
1326.4201579192,1326.4201579192,0.9996137280064101,0.00029363313603228
1326.4271024671575,1326.4271024671575,1.000739130470038,0.0002937892737009032
1326.4340470151155,1326.4340470151155,0.9999972595584913,0.00029371829626812
1326.4409915630854,1326.4409915630854,0.9999811222295252,0.00029371085047759257
1326.4479361110666,1326.4479361110666,0.999930652232551,0.00029371709450055054
1326.4548806590476,1326.4548806590476,0.9997035927634835,0.0002937010869238875
1326.461825207029,1326.461825207029,1.0003438849616502,0.00029381944651617854
1326.4687697550219,1326.4687697550219,1.000054271808611,0.00029377168881852134
1326.4757143030147,1326.4757143030147,0.9997967424328392,0.00029376754008049444
1326.4826588510193,1326.4826588510193,0.9997213886904011,0.0002937465192132313
1326.4896033990003,1326.4896033990003,1.000049033001271,0.00029377342296227295
1326.496547947017,1326.496547947017,1.0001326881340165,0.00029380749354639146
1326.503492495021,1326.503492495021,0.999703577561364,0.0002937626186735982
1326.5104370430493,1326.5104370430493,0.9999655583253567,0.0002938122183400798
1326.5173815910769,1326.5173815910769,1.0000194574928625,0.00029383000632253676
1326.5243261390815,1326.5243261390815,1.0000823101176306,0.0002938642255965241
1326.531270687121,1326.531270687121,1.0004104759269694,0.00029390413245510764
1326.538215235137,1326.538215235137,1.0001201134092912,0.0002938917951812624
1326.5451597831766,1326.5451597831766,0.9999727287540873,0.0002939146928127005
1326.5521043312042,1326.5521043312042,1.000038978058536,0.0002939695937694249
1326.559048879232,1326.559048879232,0.9995802391025957,0.0002938969739383708
1326.5659934272715,1326.5659934272715,0.9999448961238697,0.00029394112407167154
1326.5729379753109,1326.5729379753109,0.9999378209890176,0.0002939147364170225
1326.5798825233505,1326.5798825233505,0.9999494009679607,0.0002939499007795946
1326.5868270713897,1326.5868270713897,1.0002102466558151,0.0002940017305302678
1326.5937716194412,1326.5937716194412,1.0005974954153474,0.00029404790296859836
1326.6007161674806,1326.6007161674806,0.9998332370744887,0.0002939571605309508
1326.6076607155198,1326.6076607155198,0.9997933123965786,0.0002939531246777422
1326.614605263571,1326.614605263571,0.9998711847168872,0.0002939805451723885
1326.621549811622,1326.621549811622,0.9997572608407637,0.00029395422131751734
1326.6284943596615,1326.6284943596615,1.0002184045427602,0.0002940037370532425
1326.6354389077126,1326.6354389077126,0.9999276758646808,0.00029395665324923986
1326.6423834557638,1326.6423834557638,0.999965271979079,0.00029396334874629514
1326.6493280038035,1326.6493280038035,1.0000779015378367,0.00029395943195647
1326.6562725518543,1326.6562725518543,0.9999133652289911,0.00029386397736212656
1326.663217099894,1326.663217099894,0.9999519815586215,0.0002938329676470612
1326.6701616479331,1326.6701616479331,1.000117741950132,0.00029381676123029784
1326.6771061959844,1326.6771061959844,0.9998852050568342,0.00029374960357786845
1326.6840507440236,1326.6840507440236,0.9998021754799298,0.000293678274515692
1326.692384201683,1326.692384201683,1.0003168811823142,0.0002936986374852068
1326.699328749722,1326.699328749722,1.000446545156466,0.0002936825841703062
1326.7062732977615,1326.7062732977615,1.0000350013454953,0.0002935492576935553
1326.7140511915566,1326.7140511915566,0.9996691906297226,0.00029347456881154474
1326.721551303437,1326.721551303437,1.0002043894854784,0.00029350768257397193
1326.7284958514763,1326.7284958514763,0.9995797615670664,0.0002933390184124808
1326.7354403995041,1326.7354403995041,0.9997452919748024,0.00029334129309064314
1326.742384947544,1326.742384947544,1.0003585077645756,0.0002933713280503286
1326.7493294955596,1326.7493294955596,0.9999451839726025,0.0002932832905303619
1326.7562740435874,1326.7562740435874,0.9998354818224039,0.00029322407410066015
1326.7632185916038,1326.7632185916038,0.9998699548578097,0.00029322105471594264
1326.7701631396199,1326.7701631396199,1.0000934944201698,0.00029322578091235685
1326.7771076876475,1326.7771076876475,1.0003416263063527,0.00029320746747533153
1326.7840522356637,1326.7840522356637,1.000270476071209,0.00029319773433923854
1326.7909967836688,1326.7909967836688,0.9998570405757874,0.0002931460363548232
1326.7979413316727,1326.7979413316727,0.999937515940298,0.00029315840615981234
1326.8048858796665,1326.8048858796665,0.9999658898761428,0.0002931557275048459
1326.8118304276702,1326.8118304276702,0.9997546397890401,0.00029311940958165613
1326.8187749756632,1326.8187749756632,0.9998078957148115,0.00029313529307328334
1326.825719523656,1326.825719523656,1.0001187736776023,0.0002931457570511809
1326.8326640716375,1326.8326640716375,0.9999245439352453,0.0002931237626819079
1326.8396086196185,1326.8396086196185,1.000313668256475,0.00029315349887038293
1326.8465531675997,1326.8465531675997,0.9999369229121935,0.00029307463797176796
1326.853497715581,1326.853497715581,0.9997562339684544,0.0002930611224501328
1326.8604422635508,1326.8604422635508,0.9999700955934733,0.00029299304540768566
1326.8673868115088,1326.8673868115088,1.0000815934477147,0.00029300317618414026
1326.8743313594669,1326.8743313594669,1.0003657091161169,0.0002929690305459948
1326.881275907436,1326.881275907436,0.9997211502018211,0.00029285557722634524
1326.8882204553713,1326.8882204553713,1.0006565190510033,0.00029292560378285106
1326.895165003317,1326.895165003317,1.0001260645535885,0.00029277458147530246
1326.902109551264,1326.902109551264,0.9995217635329284,0.0002926135032114967
1326.9090540991867,1326.9090540991867,0.9998638740132482,0.00029255663367833135
1326.9159986471213,1326.9159986471213,0.999596042114195,0.0002924511184482422
1326.9229431950444,1326.9229431950444,1.0000982697995802,0.00029243593602721436
1326.929887742956,1326.929887742956,0.9993807418292915,0.00029227254393131855
1326.9368322908672,1326.9368322908672,1.000331227605316,0.0002922969046978542
1326.9437768387784,1326.9437768387784,1.0003999391792076,0.0002922485351166817
1326.9507213866787,1326.9507213866787,1.0004082300162092,0.00029217358439180693
1326.9576659345664,1326.9576659345664,0.999984627226661,0.00029206049741982887
1326.964610482443,1326.964610482443,0.9999565059247942,0.00029198282257583984
1326.9715550303545,1326.9715550303545,1.0001580176302727,0.0002919525033990828
1326.978499578219,1326.978499578219,1.0001570906996282,0.0002918872615629004
1326.9854441260843,1326.9854441260843,0.999703361490471,0.0002917834678086398
1326.992388673949,1326.992388673949,0.9997257550223383,0.00029177577393891613
1326.9993332217905,1326.9993332217905,0.9996502357552195,0.0002917318124727147
1327.0062777696205,1327.0062777696205,1.000294109276838,0.00029178838894472123
1327.0132223174853,1327.0132223174853,0.9998726146589881,0.00029171594252000747
1327.0201668652917,1327.0201668652917,1.0001498610028554,0.0002917270733304014
1327.0271114131333,1327.0271114131333,0.9996432533684528,0.0002916740485100574
1327.0340559609517,1327.0340559609517,1.0003632445412567,0.0002917344724808144
1327.0410005087579,1327.0410005087579,1.0002450064403678,0.0002916660074118632
1327.0479450565533,1327.0479450565533,0.9996827807252979,0.00029164875460159425
1327.0548896043597,1327.0548896043597,1.0002177948900695,0.0002916874226941358
1327.0629452797903,1327.0629452797903,1.0000122372280402,0.00029170600131803984
