time,time,flux,flux_err
1325.2980850542835,1325.2980850542835,1.0000032416855638,4.2513287280730764e-05
1325.3064185083063,1325.3064185083063,0.9997813270333616,4.25167486251888e-05
1325.3147519626011,1325.3147519626011,1.0001641716438225,4.251911377116112e-05
1325.3223909626524,1325.3223909626524,1.0002501939478452,3.8813158642205305e-05
1325.329335508282,1325.329335508282,1.0004446200389272,3.881992427785127e-05
1325.3362800541443,1325.3362800541443,1.000035784489044,3.880576534196366e-05
1325.3432246001933,1325.3432246001933,0.9996583888412408,3.8799806789036944e-05
1325.3501691464048,1325.3501691464048,0.9994722859532701,3.8795280820118634e-05
1325.3571136928263,1325.3571136928263,0.9994581379909906,3.87982212919618e-05
1325.364058239364,1325.364058239364,0.9997365121253781,3.8800214644141045e-05
1325.3710027861575,1325.3710027861575,1.0002398115839284,3.8805224401234416e-05
1325.3779473330912,1325.3779473330912,1.0005040603282616,3.880978946831713e-05
1325.3848918801878,1325.3848918801878,1.0005245415329074,3.881777708295333e-05
1325.3918364274705,1325.3918364274705,1.0002721359881437,3.881547838763346e-05
1325.3987809749392,1325.3987809749392,1.0000330858789261,3.8807677559714847e-05
1325.405725522525,1325.405725522525,0.9997131243108663,3.8797469699200664e-05
1325.412670070343,1325.412670070343,0.9995026829979942,3.879004748244726e-05
1325.4196146182312,1325.4196146182312,0.9995916948097149,3.8790289390692175e-05
1325.4265591663286,1325.4265591663286,0.9997997178920401,3.8801548311763286e-05
1325.433503714566,1325.433503714566,1.0000957722544135,3.881334880531575e-05
1325.4404482629666,1325.4404482629666,1.000508889741973,3.881559962158274e-05
1325.447392811553,1325.447392811553,1.0005956969679883,3.88235022452498e-05
1325.454337360256,1325.454337360256,1.0003774122360722,3.8815507576020345e-05
1325.461281909122,1325.461281909122,1.0000109218775743,3.881085482930812e-05
1325.4682264581509,1325.4682264581509,0.9996156494290833,3.880264089819377e-05
1325.475171007273,1325.475171007273,0.9995294465879334,3.8798444124536806e-05
1325.482115556558,1325.482115556558,0.9993355683178958,3.879726645093061e-05
1325.4890601060065,1325.4890601060065,0.9998508837790755,3.8810240476235715e-05
1325.4960046555475,1325.4960046555475,1.0000907977204612,3.8818695675115164e-05
1325.5029492052981,1325.5029492052981,1.0006368524326346,3.8826906672465544e-05
1325.5098937551422,1325.5098937551422,1.0005664358312039,3.882500765088965e-05
1325.5168383051255,1325.5168383051255,1.0004958983140146,3.8825295750603114e-05
1325.5237828552722,1325.5237828552722,0.9997985197638866,3.8811641094261314e-05
1325.5307274054885,1325.5307274054885,0.9996147384453989,3.8809728334901356e-05
1325.5376719558676,1325.5376719558676,0.9994778518624818,3.880068511433897e-05
1325.5446165063872,1325.5446165063872,0.9994592368455463,3.880460280758247e-05
1325.5515610569992,1325.5515610569992,0.9997409245068148,3.8809102095522175e-05
1325.5585056077514,1325.5585056077514,1.0003743350314926,3.8823934644577286e-05
1325.5654501586428,1325.5654501586428,1.0006188052054135,3.8828696506358016e-05
1325.5723947096276,1325.5723947096276,1.0005383942241357,3.8824191456827015e-05
1325.5793392607757,1325.5793392607757,1.0002169284565152,3.881603322299467e-05
1325.586283812016,1325.586283812016,0.9997092567465641,3.880130115914791e-05
1325.5932283633733,1325.5932283633733,0.9993290463897976,3.878757072554518e-05
1325.6001729148006,1325.6001729148006,0.9994283376638309,3.8788965657378166e-05
1325.6071174663673,1325.6071174663673,0.999537754389805,3.8790448842263866e-05
1325.614062018074,1325.614062018074,1.000052722938569,3.8797776453181205e-05
1325.6210065698501,1325.6210065698501,1.0007461423320683,3.8811084045610096e-05
1325.6279511217897,1325.6279511217897,1.0007712409871032,3.881100060675266e-05
1325.6348956737756,1325.6348956737756,1.0006915928824809,3.88108081648499e-05
1325.6418402258778,1325.6418402258778,1.0000985686775583,3.880127186911994e-05
1325.6487847780968,1325.6487847780968,0.9994683646906777,3.8786690931884085e-05
1325.6557293304318,1325.6557293304318,0.9993399145923256,3.878555176737534e-05
1325.6626738828836,1325.6626738828836,0.9993684540384269,3.878409100542592e-05
1325.6696184354046,1325.6696184354046,0.9996493627316738,3.8792572394344796e-05
1325.676562987996,1325.676562987996,1.0003530619953487,3.8804239326628736e-05
1325.6835075407039,1325.6835075407039,1.0007359540506777,3.8821949452006836e-05
1325.690452093528,1325.690452093528,1.0005620945626705,3.881644394105663e-05
1325.6973966464454,1325.6973966464454,1.0003209317071442,3.88185211530491e-05
1325.7043411994093,1325.7043411994093,0.9999175593375954,3.880959324721836e-05
1325.7112857525124,1325.7112857525124,0.9994875088512583,3.880003139785744e-05
1325.718230305686,1325.718230305686,0.9993880408963556,3.879848680386585e-05
1325.7251748589756,1325.7251748589756,0.999374045201552,3.8801667949994194e-05
1325.732119412312,1325.732119412312,0.9997644395211793,3.880914828483882e-05
1325.7390639657883,1325.7390639657883,1.0003405567794055,3.882212705262627e-05
1325.7460085193102,1325.7460085193102,1.0007117120152016,3.883112115031464e-05
1325.7529530728798,1325.7529530728798,1.0004915789548872,3.8831422208145054e-05
1325.759897626612,1325.759897626612,1.00034261341148,3.88229534375353e-05
1325.7668421803905,1325.7668421803905,0.9998381289863069,3.881243192890989e-05
1325.7737867342626,1325.7737867342626,0.9994658904314397,3.880587500004328e-05
1325.7807312881807,1325.7807312881807,0.9995376189967846,3.880619851449833e-05
1325.7876758422158,1325.7876758422158,0.9995479531894114,3.881052882301438e-05
1325.7946203963206,1325.7946203963206,1.000064535978258,3.8818714188356e-05
1325.801564950495,1325.801564950495,1.0004873676210595,3.882977964305474e-05
1325.8085095046931,1325.8085095046931,1.0005028631266435,3.883111400892597e-05
1325.8154540590767,1325.8154540590767,1.0005373348836957,3.883074486812684e-05
1325.822398613461,1325.822398613461,1.0001393046413631,3.8820633803367175e-05
1325.829343167938,1325.829343167938,0.9994881209327764,3.881266964999449e-05
1325.836287722462,1325.836287722462,0.9994924664620555,3.8811248421734604e-05
1325.843232277079,1325.843232277079,0.999375023979324,3.8808378071362627e-05
1325.850176831765,1325.850176831765,0.9997689834656953,3.8813828033027665e-05
1325.8571213865223,1325.8571213865223,1.0001446595643901,3.882746246423514e-05
1325.8640659412788,1325.8640659412788,1.0006047018314297,3.8836646830641355e-05
1325.8710104962217,1325.8710104962217,1.0006438446613193,3.8845121662027585e-05
1325.8779550511413,1325.8779550511413,1.000416838187879,3.8835851175164995e-05
1325.8848996061774,1325.8848996061774,1.0000411553741277,3.88298780291868e-05
1325.8918441612363,1325.8918441612363,0.9995787844707422,3.882084112968031e-05
1325.8987887163892,1325.8987887163892,0.9994450055206,3.8818555469179815e-05
1325.905733271588,1325.905733271588,0.999557547724082,3.8817759225157127e-05
1325.912677826857,1325.912677826857,0.9998569326549026,3.8826607912778294e-05
1325.919622382172,1325.919622382172,1.0000771316754158,3.883481455794757e-05
1325.926566937604,1325.926566937604,1.0005259565384843,3.88478959290125e-05
1325.9335114930357,1325.9335114930357,1.0006346896985368,3.8848707803967026e-05
1325.9404560485143,1325.9404560485143,1.0004248729884455,3.884077443850823e-05
1325.9474006040625,1325.9474006040625,0.9998264023264302,3.8831239397305495e-05
1325.9543451596808,1325.9543451596808,0.9995631811293952,3.882740658288317e-05
1325.962123062044,1325.962123062044,0.9992586594594368,3.881975240696298e-05
1325.9696231822359,1325.9696231822359,0.9992674174777247,3.881763988429592e-05
1325.9765677380406,1325.9765677380406,1.0000241874520759,3.883034215631184e-05
1325.9835122938443,1325.9835122938443,1.0004162951850053,3.883825221105809e-05
1325.9904568497652,1325.9904568497652,1.0007191964397453,3.8841579003384276e-05
1325.9974014056863,1325.9974014056863,1.0005459773169414,3.883560273068859e-05
1326.0043459616998,1326.0043459616998,1.0001760391654966,3.882649128799102e-05
1326.0112905177373,1326.0112905177373,0.9997218236597835,3.881413331957477e-05
1326.0182350738444,1326.0182350738444,0.9993516668788922,3.880013546535341e-05
1326.0251796300213,1326.0251796300213,0.9994675074299211,3.88008641133142e-05
1326.032124186198,1326.032124186198,0.9995914401455719,3.880548912063337e-05
1326.0390687424447,1326.0390687424447,1.0000444903004275,3.881301618283908e-05
1326.0460132987382,1326.0460132987382,1.0008596065657767,3.8823003527082974e-05
1326.052957855078,1326.052957855078,1.0008703476000276,3.8823414720601764e-05
1326.059902411441,1326.059902411441,1.0003804236842802,3.881478003656662e-05
1326.0668469678742,1326.0668469678742,0.9999475915433204,3.881134487123958e-05
1326.073791524353,1326.073791524353,0.9996397973079644,3.8797203915859426e-05
1326.0807360808801,1326.0807360808801,0.9992136367994915,3.8788351022602995e-05
1326.0876806374756,1326.0876806374756,0.9992281489870202,3.879324802692875e-05
1326.0946251940718,1326.0946251940718,1.0000375815260454,3.8805726820271305e-05
1326.1015697506677,1326.1015697506677,1.0004051488131747,3.882136349654543e-05
1326.1085143073801,1326.1085143073801,1.0005803331425587,3.882359489626273e-05
1326.115458864116,1326.115458864116,1.0005603313544258,3.882861126143572e-05
1326.1224034208512,1326.1224034208512,1.0001020797785172,3.8816908201237e-05
1326.1293479776805,1326.1293479776805,0.9998495347002276,3.8809928647278074e-05
1326.1362925345088,1326.1362925345088,0.9994131653430586,3.879821279099404e-05
1326.1432370913844,1326.1432370913844,0.9992892350490873,3.879677984702401e-05
1326.1501816483296,1326.1501816483296,0.9996306369887076,3.880701295341621e-05
1326.157126205298,1326.157126205298,1.0000181975656963,3.8819474938611045e-05
1326.16407076229,1326.16407076229,1.0006373308821968,3.8837966217027124e-05
1326.171015319328,1326.171015319328,1.0007641601254045,3.883658057504155e-05
1326.17795987639,1326.17795987639,1.0004938225735862,3.88364469483674e-05
1326.1849044335213,1326.1849044335213,1.000100038216373,3.8823593488360986e-05
1326.1918489906059,1326.1918489906059,0.9995650620428715,3.881337517095304e-05
1326.1987935477846,1326.1987935477846,0.9993324124112272,3.881810962957034e-05
1326.2057381050322,1326.2057381050322,0.9994171960971288,3.881659009633007e-05
1326.212682662257,1326.212682662257,0.9997320514311173,3.883097941272289e-05
1326.2196272195513,1326.2196272195513,1.000485744781452,3.8854420985475204e-05
1326.2265717768692,1326.2265717768692,1.0005925948278092,3.8860694177414136e-05
1326.23351633421,1326.23351633421,1.0007845758081286,3.8869660951582084e-05
1326.2404608915972,1326.2404608915972,1.0003469072088644,3.8859766125109216e-05
1326.2474054489855,1326.2474054489855,0.9999083910656541,3.885658758933788e-05
1326.2543500064191,1326.2543500064191,0.9994065428633082,3.8848969618144386e-05
1326.261294563877,1326.261294563877,0.9991536640324636,3.88486538611659e-05
1326.2682391214043,1326.2682391214043,0.9995322401094693,3.885501661590289e-05
1326.275183678908,1326.275183678908,1.0000241659177334,3.886849815329641e-05
1326.2821282364823,1326.2821282364823,1.0002502005710547,3.887794903855634e-05
1326.289072794056,1326.289072794056,1.0004456075147234,3.888386273917739e-05
1326.2960173516763,1326.2960173516763,1.0005604630157405,3.888551282576582e-05
1326.30296190932,1326.30296190932,1.000273812508849,3.88724600017739e-05
1326.309906466987,1326.309906466987,0.9997089425875604,3.88599353041797e-05
1326.3168510247008,1326.3168510247008,0.9994099001271743,3.885036279755029e-05
1326.3237955824604,1326.3237955824604,0.9992417314671458,3.884618197517015e-05
1326.3307401402212,1326.3307401402212,0.9996426574379024,3.884864454449684e-05
1326.3376846979813,1326.3376846979813,1.0001598553274447,3.8853112434716935e-05
1326.3451848203854,1326.3451848203854,1.000598215681357,3.8858708852118956e-05
1326.3543516367217,1326.3543516367217,1.0006138531121818,3.8853082272880514e-05
1326.3612961945983,1326.3612961945983,1.0003258129236798,3.8849400936878756e-05
1326.3682407524982,1326.3682407524982,1.0000436051217751,3.883865521865281e-05
1326.375185310398,1326.375185310398,0.9995411395613244,3.881961233943539e-05
1326.3821298683445,1326.3821298683445,0.9994615322782796,3.8816515783344416e-05
1326.3890744262908,1326.3890744262908,0.9997197978678122,3.881718637550279e-05
1326.3960189842837,1326.3960189842837,0.999994258723888,3.8826919752172655e-05
1326.4029635422999,1326.4029635422999,1.0004944859529803,3.883388371787465e-05
1326.4099081003164,1326.4099081003164,1.0006709984822428,3.884053998254008e-05
1326.4168526583792,1326.4168526583792,1.0005242209691156,3.883765535003991e-05
1326.4237972164417,1326.4237972164417,1.0003440832652548,3.883394873770743e-05
1326.430741774551,1326.430741774551,0.9996581700724911,3.881681389239943e-05
1326.4376863326604,1326.4376863326604,0.9995038253359908,3.881427067420995e-05
1326.4446308907932,1326.4446308907932,0.9991029377501317,3.8806836935930574e-05
1326.4515754489491,1326.4515754489491,0.9995688805418222,3.882234024256835e-05
1326.4585200071283,1326.4585200071283,0.9999229765058153,3.882665099675208e-05
1326.465464565354,1326.465464565354,1.0004969770353997,3.883815400145908e-05
1326.4724091235566,1326.4724091235566,1.0007559214463597,3.8845139529073095e-05
1326.479353681806,1326.479353681806,1.0005741242378066,3.88442770913607e-05
1326.486298240078,1326.486298240078,1.0001359157461933,3.8831567654061704e-05
1326.4932427983274,1326.4932427983274,0.9997497797453134,3.8820560308838854e-05
1326.5001873566694,1326.5001873566694,0.9992492355715612,3.8810141743518354e-05
1326.5071319150115,1326.5071319150115,0.999370837756147,3.881097175825093e-05
1326.5140764732607,1326.5140764732607,0.999499666588566,3.880807311060766e-05
1326.5210210316961,1326.5210210316961,0.999986777294632,3.881993319436108e-05
1326.5279655900383,1326.5279655900383,1.0003984279073432,3.883127777772512e-05
1326.5349101483803,1326.5349101483803,1.0008881867453057,3.8832081402066494e-05
1326.541854706839,1326.541854706839,1.0004836408313866,3.882507720879591e-05
1326.548799265228,1326.548799265228,0.9999668535858529,3.880944726943418e-05
1326.5557438236633,1326.5557438236633,0.9995154676314761,3.879712551990861e-05
1326.5626883821449,1326.5626883821449,0.999524540602682,3.8796619572555315e-05
1326.5696329406037,1326.5696329406037,0.9994875529139557,3.878628238169403e-05
1326.576577499086,1326.576577499086,1.000100644016342,3.880642663800834e-05
1326.5835220576141,1326.5835220576141,1.0002232615008104,3.881164508553327e-05
1326.5904666161196,1326.5904666161196,1.0008019858853694,3.882608502721922e-05
1326.5974111746712,1326.5974111746712,1.0005924191169033,3.882430328497276e-05
1326.6043557331998,1326.6043557331998,1.0002944250251784,3.88164314021005e-05
1326.6113002917748,1326.6113002917748,0.9997535261774104,3.88133689094745e-05
1326.6182448503496,1326.6182448503496,0.9993866679112806,3.881178337413427e-05
1326.625189408948,1326.625189408948,0.9995264721467905,3.881381639402597e-05
1326.6321339675694,1326.6321339675694,0.9993597492067104,3.881915969884908e-05
1326.6390785261679,1326.6390785261679,1.000171827950464,3.88408797015257e-05
1326.646023084813,1326.646023084813,1.0004505488625246,3.885378057162651e-05
1326.652967643481,1326.652967643481,1.0007500519212307,3.8860884079629705e-05
1326.659912202126,1326.659912202126,1.000389668847323,3.8858996696357906e-05
1326.6668567608172,1326.6668567608172,1.000023313060391,3.8855341988947794e-05
1326.673801319509,1326.673801319509,0.9995247899335518,3.8845011352731944e-05
1326.6807458782237,1326.6807458782237,0.9992701300388479,3.884085512383915e-05
1326.6888015663196,1326.6888015663196,0.9995127453767318,3.88499115372687e-05
1326.6960239073912,1326.6960239073912,0.9998363182508093,3.886057055262729e-05
1326.7029684661525,1326.7029684661525,1.000366962510498,3.887006859506987e-05
1326.7104685896047,1326.7104685896047,1.0005942073023086,3.88777504966712e-05
1326.718246495437,1326.718246495437,1.0005933318680316,3.8880461432115554e-05
1326.7251910542213,1326.7251910542213,1.0001507377983978,3.887248270216024e-05
1326.732135613006,1326.732135613006,0.9997466964057062,3.886088992269126e-05
1326.7390801718143,1326.7390801718143,0.9995808089476947,3.884515514224344e-05
1326.7460247306215,1326.7460247306215,0.9993415660307488,3.8845110341343184e-05
1326.7529692894527,1326.7529692894527,0.999533124242852,3.8852310752070384e-05
1326.7599138482842,1326.7599138482842,0.9999415822996344,3.8856405717908666e-05
1326.7668584071384,1326.7668584071384,1.0003999222516633,3.887057237489495e-05
1326.773802965993,1326.773802965993,1.000723978609893,3.8867629549208885e-05
1326.7807475248705,1326.7807475248705,1.000628057899649,3.886719142295178e-05
1326.7876920837716,1326.7876920837716,1.0000424757423765,3.8855118369768346e-05
1326.7946366426027,1326.7946366426027,0.9998540239083779,3.884843108949227e-05
1326.8015812015274,1326.8015812015274,0.9995723828164232,3.883966331470099e-05
1326.8085257604514,1326.8085257604514,0.9992770279961103,3.883256990162964e-05
1326.8154703193754,1326.8154703193754,0.9995774237558898,3.883892057830811e-05
1326.8224148783,1326.8224148783,1.000200044340861,3.8851040963660216e-05
1326.829359437224,1326.829359437224,1.000426076620029,3.884765518252304e-05
1326.8363039961487,1326.8363039961487,1.000413962864873,3.885130317055184e-05
1326.8432485551195,1326.8432485551195,1.0005218189448601,3.884656783963225e-05
1326.8501931141134,1326.8501931141134,1.0001207719476928,3.8838219176201944e-05
1326.8571376730376,1326.8571376730376,0.9997804289600676,3.882680685899431e-05
1326.8640822320788,1326.8640822320788,0.999655383899405,3.882188668740266e-05
1326.8710267910265,1326.8710267910265,0.9995019835549114,3.88218110200994e-05
1326.8779713500433,1326.8779713500433,0.9998919471734062,3.882521963219651e-05
1326.884915909038,1326.884915909038,1.0002372897519196,3.882876816635541e-05
1326.891860468055,1326.891860468055,1.000385723055151,3.8839081170285823e-05
1326.8988050270725,1326.8988050270725,1.0003626279941125,3.882954100197859e-05
1326.9057495861132,1326.9057495861132,1.0000815240352074,3.882381871189694e-05
1326.912694145154,1326.912694145154,0.9997879983369664,3.881009184029175e-05
1326.9196387041945,1326.9196387041945,0.999543384849497,3.880581994020826e-05
1326.9265832632354,1326.9265832632354,0.9995564395592842,3.879826294490142e-05
1326.9335278222995,1326.9335278222995,0.9994871315410115,3.8795071308857945e-05
1326.940472381363,1326.940472381363,1.0000729257735017,3.8802440809067036e-05
1326.9474169404273,1326.9474169404273,1.0004111829571793,3.881006255820393e-05
1326.9543614995378,1326.9543614995378,1.0006191318955273,3.881133595531499e-05
1326.961306058602,1326.961306058602,1.000581150830774,3.8807194722371104e-05
1326.9682506176894,1326.9682506176894,1.000185861128409,3.879677709904367e-05
1326.9751951767994,1326.9751951767994,0.9995766433792644,3.8777272776906136e-05
1326.9821397359106,1326.9821397359106,0.999664107007926,3.876581952179403e-05
1326.9890842949976,1326.9890842949976,0.9991260887278175,3.876150863949267e-05
1326.9960288541317,1326.9960288541317,0.9997647275501086,3.876856902118707e-05
1327.0029734132418,1327.0029734132418,1.0000863617223998,3.878340572116326e-05
1327.009917972399,1327.009917972399,1.0006028648767222,3.879191187012056e-05
1327.0168625315096,1327.0168625315096,1.000659385446014,3.8794638508682885e-05
1327.0238070906667,1327.0238070906667,1.0007822434282674,3.879903472137813e-05
1327.030751649824,1327.030751649824,1.000215392878258,3.879769973325466e-05
1327.0376962089572,1327.0376962089572,0.9993016505118287,3.8775618548384205e-05
1327.044640768115,1327.044640768115,0.9995484145217517,3.87811795693374e-05
1327.051585327295,1327.051585327295,0.9994125219171183,3.8782530338286255e-05
1327.059363233547,1327.059363233547,0.9996345912821635,3.879542210746653e-05
1327.0668633574642,1327.0668633574642,0.9999025350407024,3.88084432971888e-05
