time,time,flux,flux_err
1468.2766444208548,1468.2766444208548,1.0001706475759125,6.674181661025425e-05
1468.28497796451,1468.28497796451,1.000030237570352,6.673618113758111e-05
1468.293311508146,1468.293311508146,1.0000334560239639,6.673863223598435e-05
1468.3009505898121,1468.3009505898121,1.0001818783896574,6.093403350225527e-05
1468.3078952094854,1468.3078952094854,1.000021003389866,6.093137702595903e-05
1468.3148398290655,1468.3148398290655,0.9998315795145188,6.0926950281942876e-05
1468.321784448622,1468.321784448622,1.0000068660343717,6.0934024058095844e-05
1468.3287290681794,1468.3287290681794,0.9998455976680278,6.092821702333879e-05
1468.3356736876663,1468.3356736876663,0.9998794510319435,6.0928752530419533e-05
1468.3426183071533,1468.3426183071533,0.9999977828430675,6.093284729487313e-05
1468.3495629266167,1468.3495629266167,0.9998976054943534,6.092917190082518e-05
1468.3565075460108,1468.3565075460108,0.9999946359106472,6.093309846403645e-05
1468.3634521653582,1468.3634521653582,1.0001570128554573,6.093597478367917e-05
1468.3703967847287,1468.3703967847287,0.9999732033936329,6.093708827462152e-05
1468.381230390803,1468.381230390803,1.0002871460488207,6.0929287708247314e-05
1468.39400849023,1468.39400849023,0.9999515933845808,6.091151295858539e-05
1468.4009531094146,1468.4009531094146,1.0000129183735835,6.0911210234937735e-05
1468.407897728599,1468.407897728599,1.0000258128341986,6.090933738840947e-05
1468.4148423477127,1468.4148423477127,0.9999490416220237,6.091349500647735e-05
1468.4217869668275,1468.4217869668275,0.9998644852646118,6.0913209539943256e-05
1468.4287315858724,1468.4287315858724,1.0000570376415028,6.091409102916446e-05
1468.435676204917,1468.435676204917,1.000036158235372,6.09172203763709e-05
1468.4426208239151,1468.4426208239151,1.0000916725158302,6.091947156914867e-05
1468.4495654428663,1468.4495654428663,0.9999497057167538,6.0920670692588564e-05
1468.4565100618177,1468.4565100618177,1.0000594237913034,6.0913911849012846e-05
1468.4634546806997,1468.4634546806997,1.000109924247806,6.091467665262824e-05
1468.470399299558,1468.470399299558,0.999927688551437,6.091154771545483e-05
1468.4773439184162,1468.4773439184162,0.9999209886425031,6.091165029576218e-05
1468.4842885372045,1468.4842885372045,1.000131586261117,6.0917811084419625e-05
1468.4912331559701,1468.4912331559701,0.9998735861210803,6.09238273826868e-05
1468.498177774712,1468.498177774712,1.0000070089289281,6.0920731579931827e-05
1468.5051223934306,1468.5051223934306,1.000045675319857,6.0918865024920985e-05
1468.5120670120791,1468.5120670120791,1.0000134927365683,6.0908352214150044e-05
1468.5190116307047,1468.5190116307047,0.9998190992286566,6.091107276675364e-05
1468.5259562493302,1468.5259562493302,1.0001425562267028,6.09211651821286e-05
1468.5329008678862,1468.5329008678862,0.9999276489267821,6.091706946069791e-05
1468.5398454864185,1468.5398454864185,1.0000008940259835,6.0915930474150334e-05
1468.5467901049506,1468.5467901049506,1.0001984796248462,6.0922795474665736e-05
1468.553734723367,1468.553734723367,0.9998448252615557,6.0915520062146344e-05
1468.5606793418297,1468.5606793418297,1.0000482958130317,6.092179722966384e-05
1468.5676239602458,1468.5676239602458,1.0000787722991922,6.092614294968261e-05
1468.5745685785912,1468.5745685785912,0.9998722163618566,6.091185472864825e-05
1468.5815131969375,1468.5815131969375,0.9998526704791431,6.091999369448696e-05
1468.588457815237,1468.588457815237,0.9999513216557021,6.09198635421923e-05
1468.59540243349,1468.59540243349,1.000238971310724,6.092467711620703e-05
1468.6023470517198,1468.6023470517198,1.0000141142204915,6.091695284971212e-05
1468.6092916699495,1468.6092916699495,1.0001678173935713,6.0914669176452104e-05
1468.6162362881093,1468.6162362881093,1.0000499393670093,6.0918390184281385e-05
1468.623180906246,1468.623180906246,0.9999300654755124,6.0932519147557156e-05
1468.6301255243595,1468.6301255243595,0.9999131913682489,6.092952884848004e-05
1468.6370701424262,1468.6370701424262,0.9999885904874004,6.0938103819096805e-05
1468.6440147604462,1468.6440147604462,0.9997364241181648,6.092900347670656e-05
1468.6509593784665,1468.6509593784665,1.0000273655395229,6.093205373682828e-05
1468.6579039964631,1468.6579039964631,1.000035894560706,6.0934040775431096e-05
1468.6648486143904,1468.6648486143904,1.0000777030781358,6.0931869620068985e-05
1468.6717932322474,1468.6717932322474,0.9999205872163414,6.094954591392613e-05
1468.6787378501278,1468.6787378501278,1.000089109646139,6.094160447730479e-05
1468.6856824679621,1468.6856824679621,0.999983995627894,6.094379702086656e-05
1468.6926270857725,1468.6926270857725,1.000256963944253,6.094874267866843e-05
1468.6995717035365,1468.6995717035365,1.0000015040331305,6.0939487518244863e-05
1468.706516321277,1468.706516321277,0.9999158000586075,6.0946355370402615e-05
1468.7134609389711,1468.7134609389711,0.9999319145866075,6.094830744142782e-05
1468.7204055566424,1468.7204055566424,0.9998820093615942,6.094322856303577e-05
1468.7273501742668,1468.7273501742668,1.0000029129144383,6.09476651160431e-05
1468.734294791868,1468.734294791868,1.0000637062737927,6.095809824070072e-05
1468.7412394094222,1468.7412394094222,0.999874315564359,6.0957856476251065e-05
1468.7481840269766,1468.7481840269766,1.0002630356208164,6.0953196210943744e-05
1468.7551286444618,1468.7551286444618,1.0000441211462094,6.096417603479042e-05
1468.762073261923,1468.762073261923,1.00000048872902,6.0959464697914545e-05
1468.7690178793612,1468.7690178793612,0.99969947348505,6.0954385493944694e-05
1468.7759624967289,1468.7759624967289,1.0000519924746882,6.0958281562119426e-05
1468.7829071140973,1468.7829071140973,1.000043199795368,6.0961170157131333e-05
1468.7898517314657,1468.7898517314657,0.9999649728706,6.095443965987103e-05
1468.7967963487408,1468.7967963487408,1.0000597315025286,6.095387788044929e-05
1468.8037409660158,1468.8037409660158,0.9998988291256445,6.095490335720275e-05
1468.8106855832443,1468.8106855832443,0.9998571515533083,6.095663884989581e-05
1468.8176302004265,1468.8176302004265,1.0001180767390228,6.095453478100543e-05
1468.8245748175852,1468.8245748175852,1.0001318834320627,6.0944930735329775e-05
1468.8315194347208,1468.8315194347208,0.9999807849404432,6.093633073565563e-05
1468.8384640517859,1468.8384640517859,0.9999565268959778,6.094028882965657e-05
1468.8454086688748,1468.8454086688748,1.0001104158715892,6.094421867457193e-05
1468.852353285894,1468.852353285894,0.9999794396213799,6.094598216969043e-05
1468.8592979028895,1468.8592979028895,0.9999472869247036,6.094244162460601e-05
1468.866242519839,1468.866242519839,1.000032580910063,6.09450954231466e-05
1468.8731871367647,1468.8731871367647,0.9999730471790993,6.094454765198542e-05
1468.8801317536438,1468.8801317536438,0.9999637437374224,6.094689747585372e-05
1468.8870763705233,1468.8870763705233,1.0000062615073002,6.0939599896354916e-05
1468.8940209873329,1468.8940209873329,1.000029590388041,6.09364443388293e-05
1468.9009656041187,1468.9009656041187,0.9999890029692283,6.094747859578045e-05
1468.9079102208816,1468.9079102208816,1.0001673758171452,6.095230163616841e-05
1468.9148548375745,1468.9148548375745,0.999923366880541,6.0952951725999335e-05
1468.921799454268,1468.921799454268,1.0001793505280996,6.09512592599172e-05
1468.928744070938,1468.928744070938,0.9997936140679757,6.093925023553424e-05
1468.9356886875375,1468.9356886875375,0.9999696527460731,6.096268012800218e-05
1468.9426333041142,1468.9426333041142,1.0000197895353455,6.095282585632512e-05
1468.9495779206673,1468.9495779206673,0.9998133372888788,6.094565620292071e-05
1468.9570781064706,1468.9570781064706,1.0000324606314883,6.096128190656286e-05
1468.9648560769451,1468.9648560769451,1.000227847177364,6.0960849085681775e-05
1468.9718006934052,1468.9718006934052,0.9999101022033351,6.096361261687196e-05
1468.9787453097954,1468.9787453097954,0.9999211839539832,6.0967224215625905e-05
1468.9856899261626,1468.9856899261626,1.0000732452070848,6.095559118587811e-05
1468.9926345425065,1468.9926345425065,1.0000241846368716,6.0959014710752693e-05
1468.999579158804,1468.999579158804,1.000015833987075,6.095962908288417e-05
1469.0065237750778,1469.0065237750778,0.9999778792706706,6.0956979012853815e-05
1469.0134683912815,1469.0134683912815,1.000088922452805,6.0960447469042836e-05
1469.020413007486,1469.020413007486,0.9997334973453246,6.096011161959938e-05
1469.02735762369,1469.02735762369,1.0000755823815637,6.095160475497721e-05
1469.034302239801,1469.034302239801,0.9999204124587191,6.095274022327878e-05
1469.0412468559118,1469.0412468559118,1.0000255051393243,6.094316513043131e-05
1469.048191471976,1469.048191471976,1.00007604091061,6.0957481945899414e-05
1469.055136087994,1469.055136087994,0.9999487042112397,6.094911665644134e-05
1469.0620807039886,1469.0620807039886,0.9999641773014956,6.095646784008476e-05
1469.06902531996,1469.06902531996,1.0002247821162142,6.095054673722569e-05
1469.0759699358618,1469.0759699358618,0.9999841356259221,6.095300663431441e-05
1469.0829145517628,1469.0829145517628,0.9998912640200522,6.09392956250377e-05
1469.0898591676178,1469.0898591676178,1.0000060710387642,6.095259839450178e-05
1469.0968037834489,1469.0968037834489,0.999911851429094,6.094690132090999e-05
1469.1037483992109,1469.1037483992109,1.0002373690847943,6.0943577988517584e-05
1469.1106930149729,1469.1106930149729,0.9999799255072326,6.0951626058618866e-05
1469.1176376307108,1469.1176376307108,1.0000928997680663,6.0950903150425876e-05
1469.124582246356,1469.124582246356,1.0000226167762616,6.0948854220599576e-05
1469.1315268619785,1469.1315268619785,0.9999925806007648,6.095710075546697e-05
1469.1384714776007,1469.1384714776007,0.9998198779734491,6.093756021172929e-05
1469.1454160932228,1469.1454160932228,0.9998700766336146,6.09467519150889e-05
1469.152360708751,1469.152360708751,0.9999771107324108,6.095953382600298e-05
1469.15930532428,1469.15930532428,0.999920901712929,6.095945564075862e-05
1469.1662499397623,1469.1662499397623,1.0000797074197787,6.0953763181230944e-05
1469.1731945551983,1469.1731945551983,1.000048942245035,6.0951640828848055e-05
1469.1801391706108,1469.1801391706108,1.000187057114955,6.095359008433922e-05
1469.1870837859765,1469.1870837859765,1.0000860702468124,6.094627392957506e-05
1469.1940284013192,1469.1940284013192,1.0000106525864774,6.095219783508178e-05
1469.200973016615,1469.200973016615,0.9999392085280802,6.094284735000745e-05
1469.2079176318882,1469.2079176318882,0.9998359045779832,6.094665380759973e-05
1469.2148622471145,1469.2148622471145,0.9998000677398275,6.094150232614803e-05
1469.2218068623174,1469.2218068623174,1.000072233416152,6.095097194988213e-05
1469.2287514774735,1469.2287514774735,1.0000551778206375,6.094551784578615e-05
1469.235696092583,1469.235696092583,1.0001946765834857,6.093646167893534e-05
1469.2426407077398,1469.2426407077398,0.999895427474349,6.094288060457213e-05
1469.2495853227797,1469.2495853227797,1.0000281633977472,6.093203493321481e-05
1469.2565299378193,1469.2565299378193,0.9999047823919295,6.093573945470024e-05
1469.2634745527664,1469.2634745527664,0.9999600753253063,6.092398146268623e-05
1469.2704191677362,1469.2704191677362,0.9999907486564688,6.091625546738361e-05
1469.2773637826604,1469.2773637826604,0.9999696508908448,6.091788221271999e-05
1469.2843083975604,1469.2843083975604,1.0001146589899748,6.092340039223494e-05
1469.2912530123908,1469.2912530123908,1.0001020817497728,6.0922495768021e-05
1469.2981976272208,1469.2981976272208,1.0000563298114264,6.0907974547598326e-05
1469.3051422420046,1469.3051422420046,0.999860455155128,6.0907364877077755e-05
1469.3120868567653,1469.3120868567653,0.999846569129374,6.09176501768958e-05
1469.3190314714564,1469.3190314714564,1.000211750282633,6.091773985381592e-05
1469.3259760861233,1469.3259760861233,1.0000150174564475,6.0917472762459476e-05
1469.3329207007678,1469.3329207007678,1.0001254531507864,6.09218324163218e-05
1469.3398653153884,1469.3398653153884,0.9999211369208243,6.091598152465498e-05
1469.346809929963,1469.346809929963,0.9999649720931515,6.09149827785428e-05
1469.3537545445138,1469.3537545445138,0.99992386701511,6.092184328635911e-05
1469.360699158995,1469.360699158995,0.9998184913823683,6.091546504376055e-05
1469.3676437734525,1469.3676437734525,0.9998189911939701,6.091044860767372e-05
1469.3745883879105,1469.3745883879105,1.0001568338229918,6.0922114244893714e-05
1469.3815330022985,1469.3815330022985,1.0002354665004578,6.0918716327297583e-05
1469.3884776166637,1469.3884776166637,1.0000522354201649,6.0917544109291205e-05
1469.395422230982,1469.395422230982,1.000047980683544,6.09105038268323e-05
1469.4023668452764,1469.4023668452764,0.999866925426646,6.092173847543845e-05
1469.4093114595482,1469.4093114595482,1.0000345285033545,6.091673015142187e-05
1469.4162560737498,1469.4162560737498,1.000037136973746,6.0916563957438e-05
1469.4232006879283,1469.4232006879283,0.9999907601076734,6.0908312619384556e-05
1469.4301453020837,1469.4301453020837,1.0000439235003402,6.091915985194036e-05
1469.4370899162152,1469.4370899162152,1.0001467273772757,6.0920416513744996e-05
1469.444034530324,1469.444034530324,0.9997659966118071,6.093058140116121e-05
1469.4509791443395,1469.4509791443395,0.9999187388431438,6.091588152580255e-05
1469.457923758355,1469.457923758355,0.9999531058201369,6.0921512259536555e-05
1469.4648683723476,1469.4648683723476,1.000030766712967,6.0924240606735255e-05
1469.4718129862463,1469.4718129862463,1.0000188216088852,6.093036104340951e-05
1469.4787576001918,1469.4787576001918,1.000116378891152,6.092723589660405e-05
1469.4857022140445,1469.4857022140445,0.9999621651064388,6.092103343774175e-05
1469.4926468278736,1469.4926468278736,0.9999195766848133,6.0927082719357535e-05
1469.4995914416797,1469.4995914416797,1.000022789121695,6.0928081479959176e-05
1469.5065360554627,1469.5065360554627,0.9999302396547776,6.0923665268517046e-05
1469.513480669198,1469.513480669198,1.0001174792687657,6.092431718827382e-05
1469.5204252828646,1469.5204252828646,1.0000387585730433,6.0923427782684546e-05
1469.527369896531,1469.527369896531,0.999868530734511,6.091585301629558e-05
1469.534314510174,1469.534314510174,1.000011916166149,6.092497744561799e-05
1469.5412591237468,1469.5412591237468,1.000202692465196,6.0916963965604385e-05
1469.5482037372967,1469.5482037372967,0.9999726626143957,6.0906571545499374e-05
1469.5551483508232,1469.5551483508232,0.999960579497556,6.0909169874332356e-05
1469.5620929643032,1469.5620929643032,1.0000132988528265,6.0915259193485395e-05
1469.56903757776,1469.56903757776,0.999760656463265,6.090071228625336e-05
1469.5759821911702,1469.5759821911702,1.0000294336112392,6.091113401670709e-05
1469.582926804534,1469.582926804534,1.0000406346303943,6.0920578048350905e-05
1469.5898714178738,1469.5898714178738,1.0001313661051512,6.092687761947251e-05
1469.5968160312375,1469.5968160312375,1.0001423503051612,6.091563990232888e-05
1469.6037606444147,1469.6037606444147,0.9999052425767398,6.091275463344228e-05
1469.6107052577086,1469.6107052577086,1.0000711631553147,6.091093480317225e-05
1469.617649870886,1469.617649870886,0.99986106152814,6.091174870065248e-05
1469.6245944840398,1469.6245944840398,0.999987346125849,6.09076098225587e-05
1469.6315390971706,1469.6315390971706,0.9998322292632011,6.090161312063495e-05
1469.6384837102546,1469.6384837102546,1.000026500490107,6.090707275672296e-05
1469.6454283233393,1469.6454283233393,1.000180096014382,6.091133307691163e-05
1469.6523729363303,1469.6523729363303,1.000017302766103,6.0916020219901793e-05
1469.6593175493447,1469.6593175493447,1.0000667529420966,6.091670652620371e-05
1469.6662621622886,1469.6662621622886,0.9998928936663173,6.090609707375897e-05
1469.6732067752096,1469.6732067752096,0.9999706296057713,6.091265870505983e-05
1469.6801513880612,1469.6801513880612,1.0001293972565777,6.091750547900078e-05
1469.6870960009128,1469.6870960009128,0.9999076609135784,6.0906542303538667e-05
1469.6940406137408,1469.6940406137408,0.9998937203595568,6.0903116523501646e-05
1469.700985226499,1469.700985226499,0.9998672572546716,6.090251318445104e-05
1469.7079298392805,1469.7079298392805,1.000122815357446,6.090852065713862e-05
1469.7148744519686,1469.7148744519686,1.0000896445697034,6.09123411449952e-05
1469.7218190645876,1469.7218190645876,1.0001180208878475,6.092030427748843e-05
1469.728763677229,1469.728763677229,1.0000379085127058,6.0911519026273146e-05
1469.7357082898243,1469.7357082898243,0.9998381719776894,6.09059088163683e-05
1469.742652902396,1469.742652902396,0.9999649530319005,6.09032005133549e-05
1469.7495975149216,1469.7495975149216,0.9999177555198344,6.089882353199369e-05
1469.7565421274005,1469.7565421274005,1.0000487929049615,6.0903672609601367e-05
1469.7634867398328,1469.7634867398328,1.0000292323068092,6.0901661681662544e-05
1469.770431352265,1469.770431352265,1.000046574410114,6.089702487567778e-05
1469.777375964651,1469.777375964651,1.0000585332279206,6.090262547643457e-05
1469.7843205769664,1469.7843205769664,0.9998927562632545,6.090152039844455e-05
1469.7912651893055,1469.7912651893055,0.9999513825629258,6.088893714389725e-05
1469.798209801575,1469.798209801575,1.0000224400386253,6.0903094052645544e-05
1469.8051544137975,1469.8051544137975,0.9999748227655033,6.088875120670057e-05
1469.8120990259972,1469.8120990259972,0.9998956950116702,6.0895095823903885e-05
1469.8190436381265,1469.8190436381265,1.0002686577197175,6.0894789933844116e-05
1469.825988250256,1469.825988250256,1.000200730411489,6.089524710017325e-05
1469.8329328623856,1469.8329328623856,0.9999955219613584,6.089668244386625e-05
1469.8398774744455,1469.8398774744455,0.9999043889882859,6.089639734629426e-05
1469.8468220864586,1469.8468220864586,0.9999570771680286,6.088457375144098e-05
1469.8537666984487,1469.8537666984487,0.9998342636262226,6.089630657506996e-05
1469.8607113103915,1469.8607113103915,0.9999414271131253,6.08988806838441e-05
1469.8676559223115,1469.8676559223115,1.0000398269223127,6.0898503260922355e-05
1469.8746005341852,1469.8746005341852,0.9999836118835248,6.0900549340424207e-05
1469.8815451460355,1469.8815451460355,0.999950645490016,6.0895326560029295e-05
1469.888489757816,1469.888489757816,1.000052877694103,6.0898464446930844e-05
1469.8954343695962,1469.8954343695962,1.000240615011132,6.0901224748279644e-05
1469.9023789813061,1469.9023789813061,0.9999184728622632,6.0891273925508765e-05
1469.9093235930172,1469.9093235930172,0.9998094655317639,6.0894182549205925e-05
1469.9162682046808,1469.9162682046808,1.0000060245445386,6.08913931087046e-05
1469.9232128163214,1469.9232128163214,1.0001484896353705,6.0897524477587184e-05
1469.9301574278925,1469.9301574278925,0.9998299573938733,6.0886077330091494e-05
1469.9371020394397,1469.9371020394397,1.000088304493075,6.08897996796397e-05
1469.9440466509873,1469.9440466509873,1.0000657995194235,6.089409946927894e-05
1469.9509912624185,1469.9509912624185,0.9999349628327334,6.088955424561115e-05
1469.9579358738727,1469.9579358738727,1.0001101450697196,6.088763106131241e-05
1469.964880485281,1469.964880485281,0.9999400574727921,6.0893711822056134e-05
1469.9718250966653,1469.9718250966653,0.9999218160633048,6.089172272132042e-05
1469.9787697079794,1469.9787697079794,1.00017383518161,6.0894360463097064e-05
1469.9857143192942,1469.9857143192942,1.0000689257662025,6.089544750525665e-05
1469.9926589305621,1469.9926589305621,0.999912114447647,6.0892151429244455e-05
1469.9996035417607,1469.9996035417607,1.0001622921471667,6.0898240414551845e-05
1470.0065481529823,1470.0065481529823,0.9997335923487807,6.0890337146691805e-05
1470.0134927641107,1470.0134927641107,0.9998887216396024,6.0896906865673926e-05
1470.020437375239,1470.020437375239,0.9999937125903029,6.089488834867178e-05
1470.0273819862973,1470.0273819862973,1.0000413471130076,6.089751325276034e-05
1470.0343265973793,1470.0343265973793,0.9998379231587616,6.089356070818355e-05
1470.0412712083448,1470.0412712083448,1.0001425515308173,6.0899947954037174e-05
1470.0482158193101,1470.0482158193101,1.0001058940468017,6.0898977505850513e-05
