time,time,flux,flux_err
1468.279334440243,1468.279334440243,0.9997588860470994,0.0002519861113378646
1468.2862789935364,1468.2862789935364,1.0001863646441076,0.00025196189049809126
1468.2932235467365,1468.2932235467365,1.0000978143138801,0.0002519527493264915
1468.3001680998434,1468.3001680998434,0.9998094504675242,0.00025189165500658724
1468.3071126527643,1468.3071126527643,1.000152682850262,0.0002519561900765939
1468.314057205685,1468.314057205685,1.0002768822295511,0.0002519836253793808
1468.321001758419,1468.321001758419,0.9999725061180147,0.000251929468670664
1468.3279463111535,1468.3279463111535,0.9997730025936173,0.00025197396059656275
1468.3348908637017,1468.3348908637017,1.0002652098486042,0.00025210026094100763
1468.3418354159708,1468.3418354159708,1.0000911494916644,0.00025196688398072055
1468.3487799686118,1468.3487799686118,1.0000007272882918,0.0002519435217653584
1468.3557245207876,1468.3557245207876,0.9999303830108793,0.00025198115404121557
1468.3626690729634,1468.3626690729634,0.9995881402171289,0.0002519690497923938
1468.3696136247665,1468.3696136247665,1.0001381132389064,0.0002520459493487717
1468.376558176849,1468.376558176849,1.00036990359436,0.000251980922583348
1468.3912806264364,1468.3912806264364,0.9999877516708544,0.00025190731163687353
1468.4001696524765,1468.4001696524765,0.9998102552571384,0.0002519193114947465
1468.4071142039077,1468.4071142039077,1.0000148767971866,0.00025190518281803927
1468.4140587552447,1468.4140587552447,1.0001771839947016,0.0002519219671255561
1468.4210033064887,1468.4210033064887,0.9999122004288324,0.0002520074929367852
1468.427947857454,1468.427947857454,1.0001051700859551,0.0002519268964007198
1468.434892408512,1468.434892408512,0.9998887382868066,0.00025190569772608965
1468.4418369594769,1468.4418369594769,1.0000406039288776,0.00025200351689078093
1468.4487815102555,1468.4487815102555,0.9999918461528792,0.0002518828728095439
1468.455726060941,1468.455726060941,0.9999905472189365,0.00025190262538201617
1468.4626706115334,1468.4626706115334,0.9997171389726395,0.0002518969321182173
1468.469615162033,1468.469615162033,1.0001690048034444,0.0002518512605581598
1468.4765597124392,1468.4765597124392,0.9999126490978197,0.0002518908293585076
1468.4835042626585,1468.4835042626585,1.0003790907723693,0.0002520130683396349
1468.4904488128786,1468.4904488128786,0.999979280936104,0.00025191637257712614
1468.4973933628196,1468.4973933628196,0.9998788055326816,0.0002518679003424588
1468.5043379126669,1468.5043379126669,0.9998645775562863,0.00025190492492695296
1468.5112824625141,1468.5112824625141,1.0000859881898336,0.00025190264869532367
1468.518227012361,1468.518227012361,0.9998682570975708,0.0002518461785596937
1468.5251715620223,1468.5251715620223,1.0002114716339283,0.00025188788135804444
1468.5321161115903,1468.5321161115903,0.9998491673841464,0.00025195540217705717
1468.539060660879,1468.539060660879,0.9997098793754129,0.00025185982641627797
1468.5460052102603,1468.5460052102603,1.0004858167911574,0.0002518869166359562
1468.5529497594557,1468.5529497594557,1.0002029892478064,0.00025184473766993066
1468.5598943084656,1468.5598943084656,0.9998992355723424,0.0002519165607042617
1468.5668388574747,1468.5668388574747,0.9997005649851726,0.00025184957306944634
1468.5737834063905,1468.5737834063905,0.999952953302192,0.00025193020803856016
1468.5807279552132,1468.5807279552132,1.0001353991104167,0.00025189800562367564
1468.5876725037567,1468.5876725037567,0.9998355949982585,0.0002518964467561803
1468.5946170523932,1468.5946170523932,0.9999542167383101,0.0002519969047045421
1468.601561600844,1468.601561600844,0.9999865582200883,0.0002518899751793797
1468.608506149201,1468.608506149201,1.0001077824758,0.00025202383744316975
1468.615450697465,1468.615450697465,0.9998185134381312,0.000251866869164972
1468.622395245543,1468.622395245543,1.0002511586078124,0.00025191390112716707
1468.629339793621,1468.629339793621,1.000304015951742,0.00025194128311329593
1468.6362843415127,1468.6362843415127,1.0000948223336146,0.00025204448325801226
1468.6432288893106,1468.6432288893106,0.9996410445322089,0.0002518729240215592
1468.6501734371093,1468.6501734371093,1.000230793274775,0.0002519562148986055
1468.6571179846283,1468.6571179846283,1.0000072771698265,0.0002518971120691637
1468.6640625321475,1468.6640625321475,0.9999545927105051,0.00025191576735926377
1468.6710070796667,1468.6710070796667,0.9996502379458011,0.00025186736354112257
1468.6779516267197,1468.6779516267197,1.0000030270065388,0.0002519841780998078
1468.6848961739593,1468.6848961739593,0.9999238978047773,0.0002518900029580558
1468.691840721106,1468.691840721106,0.9997494441697896,0.0002519313898650576
1468.6987852680663,1468.6987852680663,1.0002083021358648,0.0002519654956141901
1468.7057298149332,1468.7057298149332,1.0005915057157375,0.0002519231553579926
1468.7126743617073,1468.7126743617073,0.9996655938435298,0.00025187133193229266
1468.7196189082947,1468.7196189082947,0.9999084758162187,0.00025187478260738295
1468.7265634547896,1468.7265634547896,1.0001610371206437,0.000251921283904306
1468.7335080013775,1468.7335080013775,0.9996937480151207,0.000251820436839727
1468.7404525476854,1468.7404525476854,1.000335477370949,0.0002518877401232253
1468.7473970939009,1468.7473970939009,0.9998424153671376,0.00025195128276678827
1468.7543416399299,1468.7543416399299,0.9999709027573932,0.0002518777966614724
1468.7612861860518,1468.7612861860518,0.9998673760916292,0.0002518859916515638
1468.7682307318948,1468.7682307318948,1.0003325484918932,0.00025190790379705944
1468.7751752777374,1468.7751752777374,0.999875531446875,0.00025190880052729464
1468.7821198233935,1468.7821198233935,1.0002646209660795,0.0002519068574028693
1468.7890643689568,1468.7890643689568,0.9998470276982812,0.00025189648012928923
1468.7960089145201,1468.7960089145201,0.9997578768658288,0.0002518636458428173
1468.8029534598043,1468.8029534598043,1.0000033792729652,0.00025187271901337953
1468.809898005367,1468.809898005367,1.0000455734398812,0.00025190451780646037
1468.8168425504648,1468.8168425504648,0.9999803640619062,0.0002520047432151208
1468.8237870952833,1468.8237870952833,1.00004002973473,0.00025187516252531985
1468.830731640474,1468.830731640474,1.00006808573213,0.0002518706126184855
1468.8376761851991,1468.8376761851991,1.000134455791613,0.00025191169719535403
1468.8446207300167,1468.8446207300167,0.9999148468593175,0.0002519095304598201
1468.8515652745557,1468.8515652745557,0.9998500317993233,0.0002519693059960939
1468.8585098191882,1468.8585098191882,0.9999704020932875,0.0002518449805126288
1468.8654543636337,1468.8654543636337,0.9998960053064507,0.0002519093856096312
1468.8723989079863,1468.8723989079863,0.9999496956337135,0.0002518505974163861
1468.8793434521524,1468.8793434521524,1.000230348776413,0.000251910247655084
1468.8862879963187,1468.8862879963187,0.9999804870765251,0.0002519041953195777
1468.8932325402989,1468.8932325402989,1.0000739913166767,0.00025194965377366347
1468.900177084186,1468.900177084186,1.000206859066782,0.0002519200676458933
1468.9071216280724,1468.9071216280724,0.9999685406249569,0.00025188802389943855
1468.914066171773,1468.914066171773,0.9999318652485674,0.0002519429938735233
1468.9210107152874,1468.9210107152874,1.0000703287263508,0.0002519206300899745
1468.9279552588018,1468.9279552588018,0.9999182656744778,0.0002518648129792958
1468.9348998022233,1468.9348998022233,0.99973510094144,0.00025182398349572624
1468.9418443454583,1468.9418443454583,0.9996948803073711,0.0002519540892995054
1468.948788888693,1468.948788888693,1.0000789456558385,0.0002519245549385543
1468.9557334316487,1468.9557334316487,1.0001843487110667,0.00025190739441453207
1468.9637891017414,1468.9637891017414,1.000223554342714,0.00025195222589255873
1468.9710114263185,1468.9710114263185,1.0002027989676014,0.0002519251251109779
1468.9779559687152,1468.9779559687152,0.9998141975103285,0.0002518855965002043
1468.9849005115775,1468.9849005115775,1.000031338955692,0.0002518925713002272
1468.9918450539747,1468.9918450539747,1.0001693998650776,0.00025197734739929305
1468.9987895964646,1468.9987895964646,0.9997411002659632,0.00025186431752558826
1469.0057341387683,1469.0057341387683,1.0000309927672975,0.0002519132913960653
1469.0126786809785,1469.0126786809785,1.000105564955503,0.00025194090000279243
1469.019623223096,1469.019623223096,1.0000215755093405,0.0002518965643941344
1469.0265677651203,1469.0265677651203,0.999683348852324,0.00025188291015641555
1469.0335123070513,1469.0335123070513,0.9999946583035054,0.00025187655309695284
1469.040456848796,1469.040456848796,0.9999874336368428,0.0002519124688478454
1469.0474013904477,1469.0474013904477,1.0002311224827398,0.00025194536738716545
1469.0543459320995,1469.0543459320995,1.0002288622169861,0.0002520116650005212
1469.061290473565,1469.061290473565,0.9999955055559722,0.0002518854858682109
1469.0682350149377,1469.0682350149377,0.999846237544306,0.0002520274844166551
1469.0751795562169,1469.0751795562169,1.0000544918107774,0.0002519489164227102
1469.0821240974028,1469.0821240974028,0.9999609948698506,0.0002519309182370124
1469.0890686384025,1469.0890686384025,0.9996791299333602,0.0002519762105932953
1469.0960131794022,1469.0960131794022,0.9998047914433321,0.000251949334329587
1469.1029577202157,1469.1029577202157,0.9999388574451039,0.00025190387965078623
1469.1099022610294,1469.1099022610294,1.0007297113974951,0.00025198079524411113
1469.1168468017497,1469.1168468017497,1.0001744257932181,0.0002519215411658888
1469.123791342284,1469.123791342284,1.0000876958395675,0.0002519049605916949
1469.1307358827248,1469.1307358827248,0.9999911208843539,0.0002519315824872124
1469.1376804228867,1469.1376804228867,0.9999887709542735,0.00025190568427522635
1469.1446249632347,1469.1446249632347,0.9999692258026751,0.0002518971278188044
1469.1515695033029,1469.1515695033029,1.000507049206241,0.0002519644991407129
1469.1585140433713,1469.1585140433713,1.0000082933768943,0.00025192593336367217
1469.1654585832534,1469.1654585832534,0.9998907137370618,0.00025196448672861187
1469.1724031230424,1469.1724031230424,0.9995803088914441,0.00025190264729737794
1469.179347662832,1469.179347662832,1.0002987669970913,0.0002520150513740934
1469.1862922023413,1469.1862922023413,1.000005950062358,0.00025198500478955485
1469.193236741944,1469.193236741944,1.0001449338651458,0.00025187100463127396
1469.2001812812675,1469.2001812812675,0.9999094483040054,0.00025199938519001187
1469.207125820591,1469.207125820591,1.0002784872333506,0.00025191271563855685
1469.2140703597283,1469.2140703597283,1.0000841969323964,0.00025194157276318176
1469.2210148988656,1469.2210148988656,0.9995719689660645,0.00025184485760240243
1469.2279594379092,1469.2279594379092,0.9999962341298094,0.00025191267930546217
1469.2349039766739,1469.2349039766739,1.0004390943091246,0.00025197261037975525
1469.2418485154385,1469.2418485154385,0.9996497516397698,0.00025195552214459085
1469.2487930542034,1469.2487930542034,1.0004136230264735,0.0002520319943349695
1469.2557375927815,1469.2557375927815,1.0004733980505878,0.0002519537465898787
1469.2626821310803,1469.2626821310803,0.9996658983772418,0.0002518835595152253
1469.2696266695657,1469.2696266695657,0.9998595359177209,0.0002519773337305339
1469.2765712079579,1469.2765712079579,0.9998283654595385,0.0002519056754773196
1469.2835157459776,1469.2835157459776,1.0002834235670457,0.0002519665845203073
1469.290460283904,1469.290460283904,1.000343465671883,0.0002519726197930413
1469.2974048219235,1469.2974048219235,1.0000015394909716,0.00025201627014682714
1469.3043493597565,1469.3043493597565,0.9996438960873231,0.0002518761333837777
1469.3112938974969,1469.3112938974969,0.9999413973425189,0.00025196709158464646
1469.318238435144,1469.318238435144,0.9997737798735906,0.0002519419001839634
1469.325182972605,1469.325182972605,1.0004134144379548,0.0002520053970927232
1469.3321275100654,1469.3321275100654,1.000200298518196,0.0002519562298129789
1469.339072047433,1469.339072047433,1.0000524032436193,0.00025201769116697705
1469.3460165846147,1469.3460165846147,1.000059783257444,0.0002519422826841716
1469.352961121796,1469.352961121796,1.0000003598583584,0.0002519539127279257
1469.359905658791,1469.359905658791,0.9997531775300242,0.00025192883754112516
1469.3668501956931,1469.3668501956931,1.0000042426881621,0.00025197400638537066
1469.3737947324084,1469.3737947324084,0.9998519961171709,0.000251884176091187
1469.3807392691244,1469.3807392691244,1.0003580093692925,0.0002520270484576669
1469.3876838057472,1469.3876838057472,0.9999072473478556,0.00025194315075723387
1469.3946283422765,1469.3946283422765,0.9999474386109789,0.0002520486029499664
1469.40157287862,1469.40157287862,0.9999007521927041,0.00025192277394084654
1469.4085174148695,1469.4085174148695,1.0000528981089032,0.0002520135676610167
1469.4154619511196,1469.4154619511196,0.9998765302968436,0.00025191829323972586
1469.4224064869973,1469.4224064869973,1.000175507309737,0.0002519674678422099
1469.4293510233404,1469.4293510233404,1.0003402891132185,0.0002519764381557426
1469.4362955592183,1469.4362955592183,0.9997059748052148,0.0002519087931492565
1469.4432400946296,1469.4432400946296,1.000630100353289,0.0002519860622006635
1469.450184630507,1469.450184630507,0.9994718499139493,0.0002519933957537995
1469.4571291660125,1469.4571291660125,0.9997762852521668,0.0002519461500195623
1469.4640737015175,1469.4640737015175,1.0000578883016904,0.000251924014947812
1469.4710182368362,1469.4710182368362,1.000149961705247,0.00025187131816449803
1469.477962772062,1469.477962772062,1.0003008408644711,0.0002519416192667933
1469.484907307287,1469.484907307287,0.9998805252578714,0.0002519534193119677
1469.4918518422335,1469.4918518422335,1.0004592707563997,0.00025193233329666675
1469.4987963771796,1469.4987963771796,0.9997411550279505,0.0002519545747202847
1469.505740912033,1469.505740912033,0.999887165307568,0.0002519305855419299
1469.512685446793,1469.512685446793,0.9997799777787332,0.00025194300228309935
1469.5196299814593,1469.5196299814593,1.0000529061857215,0.0002518962226126135
1469.52657451594,1469.52657451594,1.0005362621265093,0.00025203384234772963
1469.5335190503276,1469.5335190503276,1.000205344885989,0.0002519677567074894
1469.540463584622,1469.540463584622,0.9997717720831201,0.00025195590684798754
1469.5474081189163,1469.5474081189163,0.9999200974334803,0.00025193862562787904
1469.5543526530237,1469.5543526530237,1.0002132557300931,0.000251981868426253
1469.5612971870387,1469.5612971870387,0.9998768902071744,0.0002519869613309093
1469.5682417208675,1469.5682417208675,1.0000958681499228,0.0002520246881926497
1469.5751862548825,1469.5751862548825,0.9997730496150871,0.0002519354716417168
1469.5821307884319,1469.5821307884319,0.9998948864877617,0.0002519795555699574
1469.589075321981,1469.589075321981,0.9998841519721167,0.00025191705708578125
1469.59601985553,1469.59601985553,1.0005712073052933,0.00025206758785915797
1469.6029643890793,1469.6029643890793,0.9998290983681318,0.0002519504066228142
1469.609908922163,1469.609908922163,1.0000353226449392,0.0002520299617910769
1469.6168534554326,1469.6168534554326,0.9998972631599197,0.00025198423630939855
1469.6237979885163,1469.6237979885163,1.0000724823150942,0.0002519565530741225
1469.6307425215066,1469.6307425215066,0.9997732765717304,0.0002519794831709095
1469.6376870543108,1469.6376870543108,1.0002945148521571,0.0002519910981138029
1469.644631587115,1469.644631587115,0.9999074736942924,0.000251934187627521
1469.6515761198261,1469.6515761198261,1.0004464098995154,0.00025200254832445694
1469.6585206524444,1469.6585206524444,0.9996656857526283,0.00025190996264593527
1469.6654651848758,1469.6654651848758,0.9998616273121756,0.00025192504491666377
1469.6724097172137,1469.6724097172137,0.9998530300519208,0.0002519495052435389
1469.6793542495525,1469.6793542495525,0.9999657472169903,0.00025197422875845475
1469.6862987817049,1469.6862987817049,0.9999623508257693,0.00025198335006026377
1469.693243313764,1469.693243313764,1.0002584979868279,0.00025200815078203905
1469.7001878456372,1469.7001878456372,0.999990367295949,0.0002519971697538454
1469.7071323775094,1469.7071323775094,1.000186332383905,0.0002519713230800944
1469.7140769092894,1469.7140769092894,1.000018335818178,0.00025199716325951724
1469.7210214408829,1469.7210214408829,0.9999413185660107,0.0002519505289188258
1469.727965972476,1469.727965972476,1.0001250972240177,0.00025200646418662424
1469.7349105038834,1469.7349105038834,0.9992865794182915,0.00025189928579429175
1469.7418550353837,1469.7418550353837,0.9998457044819616,0.000251899730355325
1469.7487995666045,1469.7487995666045,1.0002066526841993,0.00025205862554884855
1469.7557440976393,1469.7557440976393,1.0003462278257262,0.0002519843270573863
1469.7626886285807,1469.7626886285807,1.0000509620980156,0.0002520015403074141
1469.7696331596158,1469.7696331596158,1.0005021441942628,0.00025209271240615467
1469.776577690371,1469.776577690371,0.9999659289482545,0.0002519944318060172
1469.7835222211256,1469.7835222211256,0.9997416006176643,0.00025199749223010423
1469.7904667517882,1469.7904667517882,0.9999974756014115,0.0002519991683845945
1469.7974112821707,1469.7974112821707,0.9997201537358802,0.00025197697242067393
1469.804355812647,1469.804355812647,0.9999403539704055,0.0002520193873801753
1469.8113003429366,1469.8113003429366,0.9998912913242037,0.0002519376815959911
1469.8182448731327,1469.8182448731327,1.0000462700849326,0.0002521174921506437
1469.8251894033292,1469.8251894033292,1.0003113112186264,0.0002519992384759118
1469.8321339332463,1469.8321339332463,1.0002142084966643,0.00025201985239170163
1469.8390784631633,1469.8390784631633,0.9995416649969029,0.00025197669185552426
1469.8460229929874,1469.8460229929874,0.9999054801632248,0.0002519886799787415
1469.852967522625,1469.852967522625,1.000092230755785,0.000252023399380057
1469.8599120523559,1469.8599120523559,1.0002819572196957,0.00025205216196285427
1469.8668565818068,1469.8668565818068,0.9999737345590283,0.0002519975378274449
1469.8738011111652,1469.8738011111652,0.9999840506861606,0.00025194908277874584
1469.8807456404306,1469.8807456404306,0.9994765340811569,0.0002519143424783209
1469.8876901696026,1469.8876901696026,0.9999502396946669,0.00025200362176195604
1469.8946346986816,1469.8946346986816,1.0003990155061622,0.0002520832926439403
1469.9015792278535,1469.9015792278535,1.0001176449551332,0.0002520268155683092
1469.908523756746,1469.908523756746,1.0002795385497,0.0002520543627928521
1469.9154682851733,1469.9154682851733,0.9996708207251059,0.0002520587887186775
1469.9224128140654,1469.9224128140654,1.0001804164823047,0.0002520288794588639
1469.9293573424925,1469.9293573424925,1.0000751696227945,0.0002519694048257485
1469.936301871013,1469.936301871013,0.9998967680471692,0.00025201414639595
1469.9432463994394,1469.9432463994394,0.9997318511899327,0.00025202345457094337
1469.950190927587,1469.950190927587,0.9998530795804085,0.0002521578420814635
1469.9571354559212,1469.9571354559212,0.9999822353419298,0.00025198558064862226
1469.9640799838826,1469.9640799838826,0.9999194133170957,0.000252018945713291
1469.971024511844,1469.971024511844,1.0005428855226974,0.0002521288962516905
1469.9779690397118,1469.9779690397118,1.0000374813877386,0.0002520196663642984
1469.9849135674865,1469.9849135674865,0.9998695723829595,0.000251943021313717
1469.9918580950755,1469.9918580950755,1.0002044915279522,0.0002520316921390418
1469.9988026226642,1469.9988026226642,0.9997433519362998,0.00025203165938984806
1470.0057471500668,1470.0057471500668,0.9998048720718234,0.0002519722132102715
1470.0126916773766,1470.0126916773766,1.0000296477730362,0.000252025852744495
1470.0196362046856,1470.0196362046856,1.0002531417625318,0.0002520395909676192
1470.0265807318085,1470.0265807318085,0.9998319564118561,0.00025202001824945716
1470.0335252588386,1470.0335252588386,1.0000791008066012,0.00025203371754171504
1470.0404697856825,1470.0404697856825,1.000130684931713,0.0002520173469828566
