time,time,flux,flux_err
1325.298982006848,1325.298982006848,0.999961033605068,0.0003283823141927771
1325.3073152218124,1325.3073152218124,1.0002584621721695,0.0003284839448519165
1325.3149540024679,1325.3149540024679,0.9998632199838207,0.00029991948390805984
1325.3218983487566,1325.3218983487566,0.999934426768775,0.0002999980418825218
1325.3288426952547,1325.3288426952547,0.9994997801955152,0.00030000399450274385
1325.3357870419686,1325.3357870419686,1.0003230814607282,0.00030021333069563593
1325.3427313889003,1325.3427313889003,0.9999187192634708,0.0003002846523062424
1325.3496757360422,1325.3496757360422,1.0000672827783028,0.000300418699000421
1325.3566200833902,1325.3566200833902,1.0003088802787254,0.0003005755893528405
1325.3635644309477,1325.3635644309477,0.999942249677104,0.0003006489646391085
1325.3705087787064,1325.3705087787064,0.9999692925412973,0.00030076598553060025
1325.3774531266743,1325.3774531266743,1.0001585243420943,0.00030092677458375903
1325.3843974748436,1325.3843974748436,0.99990347048724,0.0003010354306820804
1325.3913418232132,1325.3913418232132,1.0001774007574178,0.0003011973805768404
1325.3982861717834,1325.3982861717834,0.9997429683782624,0.0003012851451530863
1325.4052305205437,1325.4052305205437,0.9997983484272008,0.0003013739271590468
1325.4121748695065,1325.4121748695065,0.9997830971810909,0.00030148606069572455
1325.4191192186622,1325.4191192186622,1.0002113181863908,0.00030163998027652237
1325.4260635680125,1325.4260635680125,1.000284820359977,0.00030176568237125337
1325.4330079175436,1325.4330079175436,0.9998535163860514,0.0003018261521392189
1325.4399522672757,1325.4399522672757,0.9998863216576404,0.00030192778154938035
1325.4468966171876,1325.4468966171876,1.0004312241201285,0.0003021062047594824
1325.453840967283,1325.453840967283,0.9999337684888371,0.00030212510552823414
1325.4607853175678,1325.4607853175678,0.9998465601594898,0.0003022167086602889
1325.4677296680297,1325.4677296680297,1.0000598003906782,0.0003023457819518583
1325.4746740186758,1325.4746740186758,0.999805723407485,0.0003024785526978996
1325.4816183694961,1325.4816183694961,0.9998719369451374,0.0003026209731447248
1325.488562720491,1325.488562720491,0.9998251890183433,0.00030273163165355513
1325.495507071672,1325.495507071672,1.0006266988073098,0.00030297852361524396
1325.5024514230217,1325.5024514230217,1.0003073338730224,0.00030301721373069367
1325.509395774541,1325.509395774541,0.9996679337244039,0.00030310012648667595
1325.516340126234,1325.516340126234,0.9998377940056742,0.0003032639145350461
1325.5232844780844,1325.5232844780844,0.999884982605965,0.0003033950280523847
1325.5302288301095,1325.5302288301095,0.9999756598706355,0.0003035409898732563
1325.5371731823036,1325.5371731823036,0.9997398308969669,0.00030365696602559125
1325.5441175346664,1325.5441175346664,1.0000686208368237,0.00030381789538210874
1325.5510618871804,1325.5510618871804,1.000358740971922,0.0003039460113864753
1325.5580062398635,1325.5580062398635,0.9995600554796935,0.0003040202905356631
1325.5649505927036,1325.5649505927036,1.000514924745019,0.0003042422025973526
1325.5718949456946,1325.5718949456946,1.0001151421687917,0.0003042853754919363
1325.5788392988436,1325.5788392988436,0.9996904647498702,0.0003043434024037947
1325.585783652155,1325.585783652155,0.9997659017058822,0.00030448750364090403
1325.5927280056176,1325.5927280056176,1.0004020610303368,0.0003046605750824878
1325.5996723592261,1325.5996723592261,1.000157284031841,0.0003046920142909624
1325.6066167129857,1325.6066167129857,1.0000947073039659,0.000304745809582948
1325.6135610668969,1325.6135610668969,0.9993845009831755,0.0003046882267869082
1325.6205054209593,1325.6205054209593,0.9997925971298358,0.00030481922406693044
1325.6274497751615,1325.6274497751615,1.0003439129692848,0.00030488526420832673
1325.634394129515,1325.634394129515,1.0000433578838048,0.00030488415377463073
1325.6413384840025,1325.6413384840025,1.000068146174107,0.00030491585172084875
1325.648282838635,1325.648282838635,1.000546499517952,0.00030500230751581307
1325.6552271934077,1325.6552271934077,0.9990340784876006,0.0003048229263748431
1325.6621715483254,1325.6621715483254,1.0004730524533945,0.00030503276631882356
1325.6691159033721,1325.6691159033721,1.0001704496961892,0.00030496840824490834
1325.6760602585578,1325.6760602585578,0.9998780927484976,0.0003049661561507392
1325.6830046138775,1325.6830046138775,0.999485026166593,0.0003049263403084436
1325.689948969325,1325.689948969325,1.0003945954934712,0.00030511364318822363
1325.6968933249184,1325.6968933249184,0.9997470209136459,0.00030507211103743303
1325.7038376806397,1325.7038376806397,1.000059510592345,0.00030512154990133383
1325.7107820364831,1325.7107820364831,1.0002431636599238,0.00030521570420296185
1325.717726392461,1325.717726392461,0.9997044002577097,0.0003052042045529229
1325.7246707485544,1325.7246707485544,1.0005212945377127,0.00030538564665002365
1325.7316151047823,1325.7316151047823,0.9998408797680705,0.00030536337984986533
1325.7385594611324,1325.7385594611324,1.0001560199561412,0.00030545980384478376
1325.7455038176101,1325.7455038176101,0.9998269295973083,0.00030551612685474387
1325.7524481742105,1325.7524481742105,1.0001125299277924,0.00030567276446971897
1325.7593925309216,1325.7593925309216,0.9995192653538837,0.00030566193660089817
1325.76633688776,1325.76633688776,1.0001977968775375,0.000305834377487802
1325.7732812447157,1325.7732812447157,0.9998326049470782,0.00030591634351400125
1325.7802256017872,1325.7802256017872,1.0003141716435942,0.0003060337445902568
1325.78716995897,1325.78716995897,0.9999822434995794,0.00030608690914340076
1325.7941143162802,1325.7941143162802,1.0000633262343206,0.00030617026545707725
1325.8010586736896,1325.8010586736896,0.9997906361007406,0.00030619837951893184
1325.8080030312155,1325.8080030312155,0.9998481172060618,0.00030629424319300483
1325.814947388863,1325.814947388863,1.0005522110236058,0.00030641200430607074
1325.821891746616,1325.821891746616,0.9998778414788958,0.0003063858190777894
1325.8288361044738,1325.8288361044738,0.9999797666073373,0.00030645055037185627
1325.835780462436,1325.835780462436,0.9998179345601617,0.0003064947382010377
1325.8427248205091,1325.8427248205091,0.9998961992188736,0.00030651145245810796
1325.8496691786982,1325.8496691786982,0.999880153184348,0.00030652563833595027
1325.856613536975,1325.856613536975,1.0000452796068138,0.0003065435558688295
1325.8635578953622,1325.8635578953622,0.9998785300334427,0.0003064696327263461
1325.8705022538657,1325.8705022538657,1.000483234334625,0.00030650017680351434
1325.877446612451,1325.877446612451,1.0000381753487149,0.0003063890814544301
1325.8843909711409,1325.8843909711409,1.0002358168080163,0.00030632069417423243
1325.891335329936,1325.891335329936,0.9994768577913143,0.0003061643798977111
1325.898279688835,1325.898279688835,0.9999693240300107,0.0003062085297344891
1325.9052240478218,1325.9052240478218,0.9999050649191036,0.00030617105650700984
1325.9121684069075,1325.9121684069075,1.0002611310508418,0.00030618502453431007
1325.919112766098,1325.919112766098,0.9997493899058195,0.0003060324830436103
1325.926057125376,1325.926057125376,1.0004692932734651,0.0003061703069456363
1325.9330014847524,1325.9330014847524,0.9999563685278232,0.0003060723542930356
1325.9399458442108,1325.9399458442108,1.000086147412895,0.0003061006195165391
1325.9468902037681,1325.9468902037681,0.9997586950396353,0.00030602708234433404
1325.9538345634126,1325.9538345634126,0.9999811427990855,0.00030603827152195435
1325.9613344719332,1325.9613344719332,0.9993951978645373,0.0003059554423490454
1325.969112154952,1325.969112154952,1.000176656117049,0.0003060849335421576
1325.9760565148877,1325.9760565148877,1.0004771538254265,0.0003061271752110394
1325.9830008749102,1325.9830008749102,0.9999520013029504,0.0003060803955934199
1325.9899452350205,1325.9899452350205,0.9995352413524374,0.0003060939295108033
1325.9968895952181,1325.9968895952181,0.9996020489857766,0.00030614532994093765
1326.0038339554912,1326.0038339554912,1.0004768460041797,0.00030632269331967135
1326.0107783158517,1326.0107783158517,1.000163411219181,0.000306343935399294
1326.017722676294,1326.017722676294,1.000357394435532,0.0003064496242350018
1326.0246670368347,1326.0246670368347,0.9996654207283733,0.0003065015650035784
1326.0316113974397,1326.0316113974397,1.0004376413017009,0.00030662206417841816
1326.038555758126,1326.038555758126,0.9993405264014722,0.000306492969156972
1326.0455001188943,1326.0455001188943,1.0001108382619426,0.0003065706374784731
1326.0524444797488,1326.0524444797488,0.9999016139315706,0.0003066268643511234
1326.0593888406743,1326.0593888406743,1.0008365101664294,0.00030677719699027885
1326.066333201681,1326.066333201681,1.0001477963212408,0.00030671624630293156
1326.0732775627687,1326.0732775627687,0.9996041245164442,0.00030669025584662864
1326.0802219239215,1326.0802219239215,1.0001119209045177,0.0003067882255154752
1326.0871662851605,1326.0871662851605,0.99955840852914,0.0003067446073286784
1326.0941106464702,1326.0941106464702,0.9998784017571666,0.0003067918542748469
1326.101055007849,1326.101055007849,0.9996844495293672,0.00030680816885712776
1326.1079993693038,1326.1079993693038,0.9997987354982592,0.00030683791066257846
1326.1149437308343,1326.1149437308343,1.0004788556186572,0.00030697010271934973
1326.1218880924403,1326.1218880924403,1.0003313084265268,0.0003069465263498915
1326.1288324541047,1326.1288324541047,1.0003205757133489,0.0003069542003885221
1326.1357768158505,1326.1357768158505,0.9998966577734929,0.0003069404022615701
1326.1427211776663,1326.1427211776663,0.9997167915095027,0.00030692527819355233
1326.1496655395404,1326.1496655395404,1.000278934377835,0.0003070230588118004
1326.1566099014894,1326.1566099014894,0.99989146863528,0.0003069870396404526
1326.1635542635154,1326.1635542635154,0.9997003395624169,0.0003070160685975742
1326.1704986255922,1326.1704986255922,0.9998781398320684,0.00030702877352378115
1326.17744298774,1326.17744298774,0.9999705927699976,0.00030703060610756596
1326.1843873499688,1326.1843873499688,1.0002191990295484,0.0003070738136840395
1326.191331712244,1326.191331712244,1.0000824052959523,0.0003071015240180807
1326.19827607459,1326.19827607459,0.999882238145766,0.00030706639275736183
1326.2052204369988,1326.2052204369988,0.9999141434107646,0.00030710036736889955
1326.212164799473,1326.212164799473,1.000042718241263,0.0003071104523218899
1326.2191091620102,1326.2191091620102,0.9999078424745542,0.00030706086421572123
1326.2260535246114,1326.2260535246114,1.0002572569381647,0.0003071296047850399
1326.2329978872654,1326.2329978872654,0.9997749112285732,0.0003070751262784382
1326.2399422499948,1326.2399422499948,1.0000849445971223,0.0003070910410471491
1326.246886612771,1326.246886612771,1.0000812974975264,0.0003071354789429819
1326.253830975617,1326.253830975617,1.0004863874680825,0.000307255608638107
1326.2607753385214,1326.2607753385214,0.9997737451902425,0.00030713832485395687
1326.2677197014718,1326.2677197014718,0.9996270680082082,0.0003070972682540934
1326.2746640644864,1326.2746640644864,1.000154380791414,0.0003072005299124416
1326.2816084275598,1326.2816084275598,0.999825666589298,0.0003071478645520902
1326.2885527906965,1326.2885527906965,1.000051579309226,0.00030715611507951113
1326.295497153886,1326.295497153886,0.9998535698387983,0.0003071592405930041
1326.3024415171217,1326.3024415171217,1.0000266470031967,0.00030722093097459915
1326.309385880422,1326.309385880422,0.999695534206035,0.0003071902375731211
1326.3163302437802,1326.3163302437802,1.0002741724302981,0.0003072757073327656
1326.3232746071847,1326.3232746071847,1.0005184244242935,0.0003073669677751543
1326.3302189706483,1326.3302189706483,0.999858556985129,0.000307275191764069
1326.337163334163,1326.337163334163,1.0000554627093567,0.00030738577411525413
1326.3441076977308,1326.3441076977308,0.9999560153587421,0.00030747597886315295
1326.3538298068179,1326.3538298068179,1.000184554111393,0.0003075524159166168
1326.3607741705075,1326.3607741705075,0.9997474722475295,0.00030750567129503905
1326.3677185342617,1326.3677185342617,1.0000465647024104,0.0003075982482834388
1326.3746628980502,1326.3746628980502,0.9996070526800533,0.00030763094171315123
1326.381607261892,1326.381607261892,0.9997136551370012,0.00030765826629242104
1326.3885516257856,1326.3885516257856,1.000417873387834,0.00030783367247567744
1326.3954959897314,1326.3954959897314,1.0001528057659541,0.0003078441732708509
1326.4024403537246,1326.4024403537246,0.9999497987715452,0.0003078687664974899
1326.4093847177753,1326.4093847177753,0.9997296264798518,0.000307902590779208
1326.4163290818553,1326.4163290818553,1.0005541900278998,0.0003080376457664862
1326.4232734459933,1326.4232734459933,1.0000291170970725,0.0003080396232428383
1326.430217810172,1326.430217810172,1.000137020378783,0.0003081343249155902
1326.4371621744035,1326.4371621744035,0.9996106100634574,0.0003080965464321296
1326.4441065386816,1326.4441065386816,0.9999217572519887,0.00030817672606004494
1326.4510509030058,1326.4510509030058,0.9996729875370726,0.00030821860485372567
1326.4579952673707,1326.4579952673707,1.0003163188598372,0.00030838119184535144
1326.4649396317825,1326.4649396317825,0.9998413557413587,0.0003083433657899324
1326.4718839962352,1326.4718839962352,1.0003572549568087,0.00030843855333791397
1326.4788283607343,1326.4788283607343,0.9998189314895013,0.0003084742990427347
1326.48577272528,1326.48577272528,0.9998734295789566,0.00030852139400916164
1326.492717089872,1326.492717089872,1.0004301372988293,0.0003086289583451343
1326.4996614544937,1326.4996614544937,0.9999481222351259,0.0003086286578553351
1326.5066058191726,1326.5066058191726,0.9995810657845482,0.0003086543898034043
1326.5135501838872,1326.5135501838872,1.0002249775859227,0.0003087736288200624
1326.5204945486425,1326.5204945486425,0.9997289414815638,0.0003088148163828801
1326.5274389134388,1326.5274389134388,0.9998995368864652,0.00030886956687629463
1326.5343832782808,1326.5343832782808,1.0000110254130194,0.0003089861259417721
1326.5413276431582,1326.5413276431582,1.0000702468919198,0.00030907727380022923
1326.5482720080763,1326.5482720080763,1.0004496371715466,0.0003092119463308463
1326.5552163730354,1326.5552163730354,1.000266096202274,0.0003092631748844171
1326.562160738035,1326.562160738035,0.9994826006850259,0.00030920223111612153
1326.5691051030753,1326.5691051030753,1.0001135070115068,0.00030927725603417325
1326.5760494681567,1326.5760494681567,1.0000504058807493,0.00030932521696668854
1326.5829938332606,1326.5829938332606,0.999748163020006,0.00030932026018306804
1326.5899381984118,1326.5899381984118,0.9997708843847863,0.00030937943539774616
1326.5968825636037,1326.5968825636037,1.0002893893207436,0.00030948693069557897
1326.6038269288247,1326.6038269288247,0.9997822232708163,0.0003094723609294387
1326.610771294098,1326.610771294098,1.0002435130507679,0.00030959531198080975
1326.6177156593942,1326.6177156593942,1.0004840933686796,0.0003096794294777246
1326.6246600247373,1326.6246600247373,0.9999264013342852,0.0003096316584788303
1326.6316043901036,1326.6316043901036,0.999913300646632,0.00030965260017888803
1326.6385487555165,1326.6385487555165,0.9997538133107524,0.000309677739263834
1326.6454931209587,1326.6454931209587,1.000100680113443,0.00030972434786316817
1326.6524374864357,1326.6524374864357,0.9997633739391171,0.0003096892867494972
1326.6593818519477,1326.6593818519477,0.9999757841776518,0.00030972570442751627
1326.6663262174998,1326.6663262174998,1.0002394187738963,0.000309698032378869
1326.6732705830877,1326.6732705830877,0.9997403299325847,0.00030961876441965784
1326.6802149486984,1326.6802149486984,0.9997637417143059,0.0003095635700982354
1326.687992638237,1326.687992638237,1.0002381773727627,0.000309599105293617
1326.6954925531713,1326.6954925531713,0.9994073019303681,0.00030939556674564246
1326.7024369188925,1326.7024369188925,1.0008953150777409,0.0003095418770783932
1326.7096590592762,1326.7096590592762,1.0001504380731867,0.00030939768563786543
1326.717714523587,1326.717714523587,1.0001892426509236,0.00030942082260915465
1326.7246588894134,1326.7246588894134,0.9999723070299169,0.0003093480109077206
1326.7316032552685,1326.7316032552685,0.9998908171472479,0.0003093069483830775
1326.738547621159,1326.738547621159,0.9996363824301984,0.00030925538598961086
1326.7454919870784,1326.7454919870784,0.9997540575854347,0.0003092030616531964
1326.7524363530376,1326.7524363530376,1.0001549119205386,0.0003092660973822609
1326.7593807190042,1326.7593807190042,1.0000646017519035,0.0003092478651130201
1326.7663250850105,1326.7663250850105,0.9997750013374291,0.00030918255087619375
1326.7732694510523,1326.7732694510523,1.000033098449638,0.0003092067704636055
1326.780213817123,1326.780213817123,0.9999228112766193,0.00030917400579673555
1326.787158183217,1326.787158183217,1.0001049966562021,0.0003091953847138508
1326.7941025493458,1326.7941025493458,1.000356186852478,0.00030922864100809257
1326.8010469155038,1326.8010469155038,1.0000320276333163,0.0003092347756608942
1326.8079912816852,1326.8079912816852,1.0001922440541768,0.00030928815437442363
1326.814935647901,1326.814935647901,0.9998237390460497,0.0003092373977124817
1326.8218800141524,1326.8218800141524,1.000149715344505,0.00030930798260723834
1326.828824380409,1326.828824380409,0.9995988090138672,0.00030924983567344325
1326.835768746707,1326.835768746707,0.9995944411081235,0.0003092539376765647
1326.8427131130222,1326.8427131130222,1.0004535322182155,0.00030937368785186254
1326.8496574793721,1326.8496574793721,0.999892194701626,0.00030925519907132727
1326.856601845757,1326.856601845757,0.9997746789818102,0.0003092582807589545
1326.8635462121597,1326.8635462121597,1.0000292889675315,0.00030924525273611197
1326.8704905785855,1326.8704905785855,1.000527785557305,0.00030925941453609457
1326.877434945046,1326.877434945046,1.0003434306700645,0.00030917422018898776
1326.884379311524,1326.884379311524,0.9999832546276821,0.00030903699224363323
1326.8913236780313,1326.8913236780313,0.9999007917574347,0.0003089355287101003
1326.8982680445502,1326.8982680445502,1.0001735409123342,0.00030888333623899924
1326.9052124111213,1326.9052124111213,0.9998436699337926,0.0003087399576872975
1326.9121567777042,1326.9121567777042,1.0000890530269042,0.0003086552602544985
1326.9191011443047,1326.9191011443047,0.9998225552828404,0.0003085240596861216
1326.92604551094,1326.92604551094,1.0000096057197667,0.0003083915958883623
1326.932989877593,1326.932989877593,0.9998821716942962,0.00030829266455142387
1326.9399342442746,1326.9399342442746,1.0003744367116099,0.00030823904358567
1326.9468786109796,1326.9468786109796,0.9997378795110805,0.00030801358944975533
1326.9538229777081,1326.9538229777081,1.000040334223613,0.00030799128443725253
1326.9607673444539,1326.9607673444539,1.0000008334381507,0.0003078776080551466
1326.9677117112346,1326.9677117112346,0.999925610759717,0.00030780225162647067
1326.974656078027,1326.974656078027,1.0003461154171502,0.0003077421683933297
1326.9816004448433,1326.9816004448433,0.999702594815313,0.00030759871541927874
1326.9885448116818,1326.9885448116818,1.0001439113903379,0.0003075952398908658
1326.995489178556,1326.995489178556,1.000003553690089,0.0003074999467319454
1327.0024335454414,1327.0024335454414,0.9998365950042725,0.00030747925161646734
1327.0093779123504,1327.0093779123504,1.0000250725268494,0.0003074945602014263
1327.0163222792767,1327.0163222792767,0.9999086959198596,0.00030748205862182553
1327.0232666462264,1327.0232666462264,1.00015509332568,0.0003075041404111437
1327.030211013211,1327.030211013211,1.0003153779940415,0.00030753473272179956
1327.0371553801954,1327.0371553801954,1.0002437495420478,0.0003075127613466413
1327.0440997472092,1327.0440997472092,0.999516956258445,0.0003074804420747277
1327.0510441142458,1327.0510441142458,0.9999156110531666,0.00030747547554035816
1327.058544030665,1327.058544030665,0.9997610121186143,0.00030746874168938876
