time,time,flux,flux_err
1354.1089940358675,1354.1089940358675,969627.44,107.87419
1354.1103829287235,1354.1103829287235,969428.44,107.8685
1354.113160714492,1354.113160714492,968921.6,107.8026
1354.1145496073482,1354.1145496073482,969488.44,107.87668
1354.115938500262,1354.115938500262,969431.6,107.87193
1354.1173273931756,1354.1173273931756,969433.06,107.86814
1354.118716286031,1354.118716286031,969838.6,107.88443
1354.1201051790035,1354.1201051790035,969482.5,107.863945
1354.121494071918,1354.121494071918,969428.44,107.85858
1354.1228829648317,1354.1228829648317,969530.6,107.86698
1354.1242718578037,1354.1242718578037,969441.25,107.858925
1354.125660750717,1354.125660750717,969443.9,107.85134
1354.1270496436891,1354.1270496436891,969417.0,107.85585
1354.1284385366616,1354.1284385366616,969366.7,107.85335
1354.1298274296337,1354.1298274296337,969542.3,107.86218
1354.1312163226053,1354.1312163226053,969323.75,107.84432
1354.132605215578,1354.132605215578,969417.94,107.851036
1354.1339941085498,1354.1339941085498,969251.5,107.84195
1354.1353830015805,1354.1353830015805,969301.1,107.84513
1354.1367718946108,1354.1367718946108,969310.0,107.84085
1354.138160787582,1354.138160787582,969254.44,107.82824
1354.1395496806126,1354.1395496806126,969057.7,107.83076
1354.1409385736433,1354.1409385736433,969237.94,107.83437
1354.1423274667318,1354.1423274667318,969259.0,107.83345
1354.1437163597618,1354.1437163597618,969027.75,107.82744
1354.1451052527918,1354.1451052527918,968941.25,107.8149
1354.1464941458808,1354.1464941458808,968886.4,107.8101
1354.14788303897,1354.14788303897,969030.3,107.82029
1354.1492719319995,1354.1492719319995,969105.1,107.82073
1354.1506608250875,1354.1506608250875,969133.2,107.82368
1354.1520497181764,1354.1520497181764,969093.0,107.82259
1354.1534386113237,1354.1534386113237,968951.6,107.815636
1354.154827504412,1354.154827504412,968984.06,107.81438
1354.1562163974995,1354.1562163974995,968997.6,107.81424
1354.1576052906466,1354.1576052906466,969012.94,107.8128
1354.158994183794,1354.158994183794,968821.8,107.80193
1354.1603830768822,1354.1603830768822,968690.3,107.795525
1354.161771970029,1354.161771970029,968827.75,107.8066
1354.1631608632333,1354.1631608632333,968747.4,107.79903
1354.1645497563807,1354.1645497563807,968559.75,107.788994
1354.165938649528,1354.165938649528,968793.94,107.79999
1354.167327542732,1354.167327542732,968653.8,107.79476
1354.1687164358784,1354.1687164358784,968627.1,107.791824
1354.170105329084,1354.170105329084,968728.44,107.79417
1354.1714942222884,1354.1714942222884,968590.4,107.792465
1354.1728831154937,1354.1728831154937,968477.94,107.77959
1354.1742720086986,1354.1742720086986,968338.3,107.77585
1354.1756609019035,1354.1756609019035,968584.75,107.78909
1354.1770497951088,1354.1770497951088,968460.2,107.783646
1354.1784386883714,1354.1784386883714,968434.6,107.77999
1354.1798275816352,1354.1798275816352,968246.9,107.76931
1354.1812164748399,1354.1812164748399,968291.5,107.77269
1354.182605368102,1354.182605368102,968225.44,107.76551
1354.1839942613658,1354.1839942613658,968362.44,107.77588
1354.1853831546296,1354.1853831546296,968369.75,107.774345
1354.1867720478922,1354.1867720478922,968597.06,107.79054
1354.1881609412135,1354.1881609412135,968085.6,107.76272
1354.1895498344763,1354.1895498344763,968100.0,107.760185
1354.1909387277983,1354.1909387277983,968005.75,107.755615
1354.1923276210618,1354.1923276210618,968026.44,107.760445
1354.1937165143822,1354.1937165143822,967996.7,107.75431
1354.1951054077033,1354.1951054077033,968058.8,107.76086
1354.1964943010253,1354.1964943010253,967864.5,107.747
1354.197883194347,1354.197883194347,968109.9,107.76247
1354.199272087726,1354.199272087726,967802.1,107.74153
1354.2006609810467,1354.2006609810467,967506.8,107.72903
1354.2020498744268,1354.2020498744268,967907.94,107.75034
1354.2034387677486,1354.2034387677486,967670.8,107.738396
1354.2048276611276,1354.2048276611276,967679.8,107.740654
1354.2062165545071,1354.2062165545071,967703.94,107.74524
1354.2076054478866,1354.2076054478866,967640.8,107.737015
1354.2089943412666,1354.2089943412666,967527.94,107.73455
1354.2103832346465,1354.2103832346465,967423.6,107.72202
1354.2117721280833,1354.2117721280833,967435.25,107.73035
1354.2131610214628,1354.2131610214628,967373.5,107.722496
1354.214549914901,1354.214549914901,967811.44,107.75105
1354.2159388083385,1354.2159388083385,967520.4,107.73027
1354.2173277017769,1354.2173277017769,967263.3,107.71938
1354.2187165952141,1354.2187165952141,967209.7,107.71271
1354.2201054886518,1354.2201054886518,967169.0,107.71321
1354.22149438209,1354.22149438209,967273.25,107.71793
1354.2228832755277,1354.2228832755277,966986.2,107.70374
1354.2242721690232,1354.2242721690232,967073.6,107.70799
1354.2256610624609,1354.2256610624609,966905.25,107.70192
1354.2270499559565,1354.2270499559565,966871.6,107.697174
1354.2284388494531,1354.2284388494531,967102.5,107.71454
1354.2298277428913,1354.2298277428913,967049.7,107.705986
1354.231216636387,1354.231216636387,966891.0,107.69639
1354.2326055299409,1354.2326055299409,966970.4,107.706154
1354.2339944234368,1354.2339944234368,966973.0,107.70086
1354.2353833169332,1354.2353833169332,967059.06,107.71328
1354.2367722104877,1354.2367722104877,966942.7,107.69736
1354.2381611039827,1354.2381611039827,966669.6,107.68964
1354.2395499975369,1354.2395499975369,966727.6,107.6927
1354.2409388910914,1354.2409388910914,966686.8,107.68814
1354.242327784646,1354.242327784646,966489.56,107.67507
1354.2437166782001,1354.2437166782001,966580.06,107.68515
1354.2451055717534,1354.2451055717534,966665.7,107.68487
1354.246494465308,1354.246494465308,966414.3,107.6721
1354.2478833588625,1354.2478833588625,966513.6,107.68003
1354.2492722524748,1354.2492722524748,966422.5,107.67283
1354.2506611460867,1354.2506611460867,966388.06,107.671
1354.2520500396408,1354.2520500396408,966308.3,107.661354
1354.2534389332536,1354.2534389332536,966239.75,107.663605
1354.2548278268664,1354.2548278268664,966205.4,107.66217
1354.2562167204778,1354.2562167204778,966289.25,107.65876
1354.2576056140902,1354.2576056140902,966319.7,107.66835
1354.258994507703,1354.258994507703,966309.06,107.662895
1354.2603834013735,1354.2603834013735,966212.94,107.66319
1354.2617722949863,1354.2617722949863,966271.9,107.663055
1354.2631611886566,1354.2631611886566,966259.75,107.65902
1354.2645500823269,1354.2645500823269,966090.8,107.65549
1354.2659389759397,1354.2659389759397,966248.1,107.65937
1354.2673278696102,1354.2673278696102,965867.3,107.64062
1354.2687167632807,1354.2687167632807,966316.8,107.664604
1354.270105657009,1354.270105657009,966165.4,107.6573
1354.2714945506796,1354.2714945506796,966174.3,107.6565
1354.2728834443506,1354.2728834443506,966021.56,107.644516
1354.2742723380798,1354.2742723380798,965848.6,107.638855
1354.2756612317503,1354.2756612317503,965954.4,107.64247
1354.2770501254786,1354.2770501254786,965955.56,107.64136
1354.2784390192073,1354.2784390192073,965765.94,107.63401
1354.2798279129365,1354.2798279129365,965858.5,107.63903
1354.2812168066653,1354.2812168066653,965932.5,107.63734
1354.282605700393,1354.282605700393,965976.0,107.64336
1354.2839945941223,1354.2839945941223,965559.75,107.622795
1354.2853834878515,1354.2853834878515,965490.8,107.6186
1354.286772381639,1354.286772381639,965800.7,107.63443
1354.2881612753677,1354.2881612753677,965634.2,107.624626
1354.2895501691537,1354.2895501691537,965583.7,107.62244
1354.290939062941,1354.290939062941,965657.0,107.62493
1354.2923279566703,1354.2923279566703,965570.44,107.623726
1354.2937168504566,1354.2937168504566,965546.8,107.618965
1354.2951057442433,1354.2951057442433,965418.9,107.61603
1354.296494638089,1354.296494638089,965447.6,107.616
1354.2978835318763,1354.2978835318763,965428.1,107.611855
1354.299272425664,1354.299272425664,965309.5,107.60531
1354.3006613195084,1354.3006613195084,965454.9,107.61408
1354.302050213295,1354.302050213295,965585.44,107.62214
1354.3034391071405,1354.3034391071405,965304.2,107.60571
1354.3048280009857,1354.3048280009857,965366.2,107.60978
1354.3062168948313,1354.3062168948313,965380.5,107.60828
1354.3076057886765,1354.3076057886765,965072.1,107.58987
1354.3089946825214,1354.3089946825214,965376.0,107.60669
1354.3103835763673,1354.3103835763673,965241.56,107.60184
1354.311772470212,1354.311772470212,965049.94,107.59171
1354.3131613641153,1354.3131613641153,965036.8,107.5923
1354.3145502579603,1354.3145502579603,965261.8,107.60404
1354.3159391518634,1354.3159391518634,964977.44,107.58859
1354.317328045709,1354.317328045709,965077.4,107.592354
1354.3187169396128,1354.3187169396128,965106.5,107.59565
1354.3201058335162,1354.3201058335162,965123.4,107.598015
1354.3214947274196,1354.3214947274196,965004.2,107.58721
1354.3228836213225,1354.3228836213225,964831.25,107.58471
1354.3242725152263,1354.3242725152263,964788.8,107.57601
1354.325661409188,1354.325661409188,964767.7,107.57624
1354.3270503030903,1354.3270503030903,964665.8,107.57841
1354.3284391970524,1354.3284391970524,964733.5,107.57672
1354.3298280909564,1354.3298280909564,964744.94,107.57582
1354.3312169849187,1354.3312169849187,964885.75,107.58789
1354.3326058788798,1354.3326058788798,964915.75,107.58382
1354.3339947728405,1354.3339947728405,964714.4,107.579506
1354.3353836668027,1354.3353836668027,964574.25,107.56629
1354.336772560765,1354.336772560765,964590.75,107.57277
1354.3381614547257,1354.3381614547257,964537.8,107.57064
1354.3395503486868,1354.3395503486868,964626.4,107.571045
1354.3409392427072,1354.3409392427072,964617.5,107.57436
1354.3423281366695,1354.3423281366695,964414.3,107.56333
1354.3437170306897,1354.3437170306897,964377.44,107.56445
1354.3451059247086,1354.3451059247086,964474.3,107.56341
1354.34649481867,1354.34649481867,964528.9,107.576645
1354.3478837126904,1354.3478837126904,964323.0,107.55721
1354.3492726067097,1354.3492726067097,964259.3,107.55912
1354.3506615007295,1354.3506615007295,964469.5,107.56759
1354.352050394749,1354.352050394749,964347.1,107.564514
1354.3534392888278,1354.3534392888278,964369.94,107.56604
1354.354828182848,1354.354828182848,964316.5,107.56467
1354.3562170769258,1354.3562170769258,964127.94,107.54669
1354.3576059709453,1354.3576059709453,964318.25,107.569275
1354.3589948650233,1354.3589948650233,964202.9,107.555145
1354.3603837590426,1354.3603837590426,963991.94,107.54942
1354.3617726531213,1354.3617726531213,964129.1,107.547226
1354.3631615472,1354.3631615472,964056.06,107.55302
1354.3645504412775,1354.3645504412775,963955.3,107.544426
1354.3659393353555,1354.3659393353555,963970.1,107.54727
1354.3673282294915,1354.3673282294915,963933.56,107.542206
1354.3687171235701,1354.3687171235701,964108.06,107.54982
1354.3701060176477,1354.3701060176477,963821.7,107.542755
1354.371494911783,1354.371494911783,963889.06,107.54012
1354.3728838058616,1354.3728838058616,963787.9,107.54175
1354.3742726999985,1354.3742726999985,963906.4,107.542786
1354.3756615941352,1354.3756615941352,963847.56,107.543274
1354.3770504882712,1354.3770504882712,963747.6,107.53704
1354.3784393824067,1354.3784393824067,963797.6,107.53604
1354.3798282765433,1354.3798282765433,963620.4,107.533226
1354.38121717068,1354.38121717068,963727.94,107.5382
1354.3826060648153,1354.3826060648153,963655.4,107.5365
1354.3839949589515,1354.3839949589515,963688.44,107.5371
1354.3853838531463,1354.3853838531463,963674.25,107.53375
1354.386772747283,1354.386772747283,963570.1,107.53066
1354.3881616414778,1354.3881616414778,963578.8,107.53247
1354.3895505356713,1354.3895505356713,963436.9,107.52623
1354.3909394298075,1354.3909394298075,963596.9,107.52936
1354.3923283240024,1354.3923283240024,963443.94,107.52981
1354.3937172181968,1354.3937172181968,963589.25,107.52878
1354.3951061123907,1354.3951061123907,963503.6,107.52902
1354.3964950066434,1354.3964950066434,963499.8,107.52667
1354.3978839008382,1354.3978839008382,963397.6,107.52022
1354.399272795033,1354.399272795033,963292.3,107.516945
1354.4006616892275,1354.4006616892275,963307.3,107.51716
1354.4020505834796,1354.4020505834796,963336.9,107.52084
1354.4034394777323,1354.4034394777323,963566.94,107.52898
1354.4048283719267,1354.4048283719267,963527.2,107.53126
1354.4062172661797,1354.4062172661797,963397.3,107.5235
1354.4076061604328,1354.4076061604328,963445.8,107.52223
1354.4089950546852,1354.4089950546852,963329.56,107.52163
1354.4103839489376,1354.4103839489376,963188.8,107.515854
1354.4117728431902,1354.4117728431902,963528.8,107.52871
1354.4131617374433,1354.4131617374433,963166.25,107.5143
1354.4145506316959,1354.4145506316959,963134.25,107.51315
1354.4159395260058,1354.4159395260058,963148.06,107.50851
1354.4173284202589,1354.4173284202589,963235.94,107.51683
1354.4187173145701,1354.4187173145701,963131.75,107.50782
1354.4201062088814,1354.4201062088814,963137.1,107.51071
1354.421495103134,1354.421495103134,963230.06,107.5158
1354.422883997444,1354.422883997444,963230.9,107.51874
1354.4242728917552,1354.4242728917552,963205.4,107.51534
1354.4256617860665,1354.4256617860665,963010.1,107.50071
1354.4270506803764,1354.4270506803764,963307.3,107.521866
1354.4284395746872,1354.4284395746872,963264.8,107.51826
1354.4298284689985,1354.4298284689985,963142.3,107.51004
1354.431217363368,1354.431217363368,963120.94,107.51198
1354.4326062576793,1354.4326062576793,963350.2,107.52305
1354.4339951520474,1354.4339951520474,963302.0,107.514114
1354.4353840463582,1354.4353840463582,963107.1,107.51183
1354.4367729407277,1354.4367729407277,963336.6,107.51956
1354.4381618350967,1354.4381618350967,963081.3,107.50611
1354.4395507294073,1354.4395507294073,963557.1,107.53127
1354.440939623776,1354.440939623776,963193.2,107.51035
1354.4423285181456,1354.4423285181456,963333.7,107.52275
1354.443717412515,1354.443717412515,963117.7,107.50623
1354.4451063069423,1354.4451063069423,963179.56,107.50906
1354.4464952013113,1354.4464952013113,963565.4,107.53286
1354.44788409568,1354.44788409568,963089.4,107.50673
1354.4492729901071,1354.4492729901071,962998.8,107.49482
1354.4506618844766,1354.4506618844766,963329.2,107.52246
1354.4520507789043,1354.4520507789043,963085.0,107.502266
1354.4534396732734,1354.4534396732734,963034.94,107.50117
1354.4548285677004,1354.4548285677004,963369.5,107.51624
1354.4562174621274,1354.4562174621274,963233.7,107.51524
1354.457606356555,1354.457606356555,963389.5,107.51793
1354.4589952509823,1354.4589952509823,963347.75,107.51859
1354.4603841454086,1354.4603841454086,963211.8,107.50755
1354.4617730398363,1354.4617730398363,963198.0,107.50576
1354.463161934264,1354.463161934264,963163.8,107.50253
1354.46455082875,1354.46455082875,963240.56,107.511894
1354.4659397231771,1354.4659397231771,963266.56,107.5088
1354.4673286176617,1354.4673286176617,963672.1,107.53613
1354.4687175120894,1354.4687175120894,963318.1,107.51312
1354.4701064065753,1354.4701064065753,963245.94,107.50831
1354.4714953010018,1354.4714953010018,963356.5,107.5153
1354.472884195487,1354.472884195487,963215.5,107.50729
1354.474273089973,1354.474273089973,963021.2,107.49818
1354.475661984459,1354.475661984459,963299.56,107.51008
1354.4770508789452,1354.4770508789452,963263.44,107.50759
1354.4784397734297,1354.4784397734297,963115.1,107.50178
1354.4798286679147,1354.4798286679147,963331.8,107.51286
1354.481217562459,1354.481217562459,963261.1,107.507645
1354.4826064569443,1354.4826064569443,962891.2,107.48783
1354.4839953514297,1354.4839953514297,963320.7,107.5092
1354.485384245973,1354.485384245973,963357.5,107.51586
1354.4867731405172,1354.4867731405172,963286.0,107.50875
1354.4881620350034,1354.4881620350034,963334.5,107.51186
1354.4895509295466,1354.4895509295466,963156.6,107.50027
1354.4909398240902,1354.4909398240902,963349.5,107.510765
1354.4923287186336,1354.4923287186336,963276.0,107.51071
1354.493717613177,1354.493717613177,963612.94,107.52453
1354.4951065077212,1354.4951065077212,963918.5,107.54367
1354.4964954022655,1354.4964954022655,963905.75,107.54024
1354.497884296809,1354.497884296809,963750.75,107.53363
1354.4992731913526,1354.4992731913526,964051.1,107.54789
1354.500662085954,1354.500662085954,963799.06,107.5325
1354.5020509804983,1354.5020509804983,964069.0,107.54738
1354.5034398751,1354.5034398751,963777.5,107.53404
1354.5048287696427,1354.5048287696427,963753.8,107.53648
1354.506217664245,1354.506217664245,963683.94,107.53031
1354.5076065588476,1354.5076065588476,963896.56,107.53704
1354.508995453392,1354.508995453392,964025.8,107.55229
1354.5103843479933,1354.5103843479933,963744.4,107.53568
1354.5117732425942,1354.5117732425942,964048.56,107.54851
1354.5131621371968,1354.5131621371968,963720.1,107.534546
1354.5145510317993,1354.5145510317993,963732.0,107.529434
1354.5159399264003,1354.5159399264003,963871.44,107.5412
1354.5173288210601,1354.5173288210601,963781.6,107.53588
1354.5187177156627,1354.5187177156627,963603.6,107.522385
1354.520106610265,1354.520106610265,963535.2,107.51757
1354.5214955049255,1354.5214955049255,963616.25,107.526764
1354.5228843995847,1354.5228843995847,963737.9,107.53192
1354.5242732941865,1354.5242732941865,963479.8,107.52163
1354.525662188847,1354.525662188847,963478.9,107.51677
1354.5270510835066,1354.5270510835066,963745.56,107.531944
1354.5284399781085,1354.5284399781085,963507.1,107.52155
1354.5298288727686,1354.5298288727686,963704.94,107.53402
1354.531217767429,1354.531217767429,963693.4,107.52816
1354.5326066620896,1354.5326066620896,963633.3,107.52693
1354.533995556808,1354.533995556808,963462.8,107.515526
1354.5353844514675,1354.5353844514675,963615.8,107.52994
1354.5367733461276,1354.5367733461276,963591.7,107.52217
1354.5381622407874,1354.5381622407874,963746.8,107.53485
1354.5395511355064,1354.5395511355064,963504.9,107.523415
1354.540940030167,1354.540940030167,963409.6,107.51474
1354.5423289248847,1354.5423289248847,963599.25,107.531265
1354.543717819603,1354.543717819603,963708.0,107.535416
1354.545106714263,1354.545106714263,963443.0,107.52533
1354.5464956089818,1354.5464956089818,963640.56,107.528
1354.5478845036996,1354.5478845036996,963457.7,107.526886
1354.5492733984172,1354.5492733984172,963445.7,107.522545
1354.5506622931362,1354.5506622931362,963597.1,107.5302
1354.5520511878549,1354.5520511878549,963630.25,107.53072
1354.5534400825736,1354.5534400825736,963586.44,107.52859
1354.554828977292,1354.554828977292,963624.06,107.53686
1354.5562178720093,1354.5562178720093,963658.94,107.53438
1354.5576067667862,1354.5576067667862,963125.3,107.50818
1354.558995661505,1354.558995661505,963392.06,107.52212
1354.5603845562805,1354.5603845562805,963451.94,107.52854
1354.5617734509988,1354.5617734509988,963595.3,107.53428
1354.5631623457757,1354.5631623457757,963670.3,107.53668
1354.5645512405526,1354.5645512405526,963555.56,107.53311
1354.5659401352714,1354.5659401352714,963518.2,107.53006
1354.567329030047,1354.567329030047,963612.94,107.538345
1354.5687179248234,1354.5687179248234,963638.6,107.54081
1354.5701068196004,1354.5701068196004,963697.5,107.545685
1354.5714957143769,1354.5714957143769,963559.5,107.53627
1354.5728846091529,1354.5728846091529,963520.7,107.53485
1354.5742735039294,1354.5742735039294,963343.7,107.52849
1354.5756623987645,1354.5756623987645,963201.4,107.51775
1354.5770512935414,1354.5770512935414,963490.25,107.536354
1354.578440188318,1354.578440188318,963536.8,107.53494
1354.5798290831524,1354.5798290831524,963533.2,107.53755
1354.5812179779286,1354.5812179779286,963417.25,107.53231
1354.5826068727633,1354.5826068727633,963362.94,107.53111
1354.5839957675403,1354.5839957675403,963350.56,107.530396
1354.5853846623754,1354.5853846623754,963640.8,107.546555
1354.58677355721,1354.58677355721,963607.0,107.54602
1354.5881624520443,1354.5881624520443,963598.5,107.54596
1354.589551346879,1354.589551346879,963597.8,107.54543
1354.5909402417142,1354.5909402417142,963549.75,107.54667
1354.5923291365489,1354.5923291365489,963619.2,107.54747
1354.5937180313827,1354.5937180313827,963515.0,107.54598
1354.5951069262178,1354.5951069262178,963542.2,107.54136
