time,time,flux,flux_err
1410.9114170891016,1410.9114170891016,0.9998893835535375,0.00014580821390741265
1410.9190562494782,1410.9190562494782,1.0003733535912052,0.00013312693286384413
1410.92600094042,1410.92600094042,1.000185461513936,0.00013312963429715793
1410.932945631174,1410.932945631174,1.0001629668885788,0.0001331272291821473
1410.9398903218362,1410.9398903218362,0.9999712859919961,0.0001331000966789527
1410.9468350121251,1410.9468350121251,0.9997373204421338,0.00013308624699584376
1410.9537797023208,1410.9537797023208,0.9998139665888093,0.0001330748162071168
1410.9607243922383,1410.9607243922383,0.9998841193187369,0.00013308172070394223
1410.969058020063,1410.969058020063,1.000199663629098,0.00013304089646057942
1410.9851696992464,1410.9851696992464,1.0000747991717798,0.00013304597905322048
1410.9926699633957,1410.9926699633957,1.000094558673418,0.00013307347052775873
1411.0023925275464,1411.0023925275464,1.0001937699714363,0.00013300665013136966
1411.0121150915115,1411.0121150915115,1.000293424471362,0.00013309622264271202
1411.0190597795652,1411.0190597795652,0.9996236090345638,0.00013304805457138284
1411.0260044676193,1411.0260044676193,1.0004238247013553,0.00013309775172559252
1411.0329491553941,1411.0329491553941,0.9999022127669102,0.0001330519036769848
1411.0398938428884,1411.0398938428884,1.0002460172423229,0.0001330770854153721
1411.0468385304775,1411.0468385304775,1.0001047726115595,0.0001330625082048586
1411.054894367368,1411.054894367368,1.0001001609338855,0.00013303897989126
1411.062116841793,1411.062116841793,0.9999900848512151,0.00013304573612617546
1411.0690615284498,1411.0690615284498,0.9998812838153455,0.0001330447465951473
1411.0760062149207,1411.0760062149207,1.0000460907718816,0.0001330518456797723
1411.0829509011123,1411.0829509011123,1.0000357166037168,0.00013305948949330037
1411.089895587117,1411.089895587117,0.9997586617859586,0.00013301967038928332
1411.096840273029,1411.096840273029,0.9998454824215639,0.0001330463302589632
1411.1037849585687,1411.1037849585687,1.0002064197950977,0.00013310812533502833
1411.1107296440146,1411.1107296440146,1.0002620997440657,0.00013306195900676735
1411.1176743293684,1411.1176743293684,0.9999688496993533,0.00013305822099208683
1411.1246190142551,1411.1246190142551,1.0001238883985006,0.00013307012351999973
1411.1315636990498,1411.1315636990498,1.0000078880802579,0.0001330272672115679
1411.1385083835648,1411.1385083835648,0.9998910424108833,0.00013305102044651942
1411.145453067893,1411.145453067893,1.0000616458255147,0.0001330592725700793
1411.1523977520362,1411.1523977520362,0.999522130499512,0.00013303090721004102
1411.1593424359914,1411.1593424359914,1.0000659745080394,0.00013302470959828484
1411.166287119669,1411.166287119669,1.0002147791128022,0.0001330804813969954
1411.1732318031593,1411.1732318031593,1.0003200967236672,0.00013302347719227527
1411.180176486463,1411.180176486463,0.9998739366486948,0.0001330307169858337
1411.1871211694886,1411.1871211694886,1.0000852316756743,0.000133042368372017
1411.19406585242,1411.19406585242,0.9999317750541821,0.00013305118672143505
1411.201010534979,1411.201010534979,1.000155675252357,0.0001330628519159514
1411.2079552175385,1411.2079552175385,0.9998187327660482,0.00013302950096539683
1411.2148998996313,1411.2148998996313,0.9998926491619669,0.00013301407252249103
1411.2218445816325,1411.2218445816325,0.9999682082868346,0.00013301641138723896
1411.228789263539,1411.228789263539,1.000145014579034,0.00013304853597367539
1411.2357339450741,1411.2357339450741,0.9998524110006711,0.00013299500929690486
1411.242678626516,1411.242678626516,1.0001410523587597,0.00013305467631442297
1411.2496233075844,1411.2496233075844,1.000250239174303,0.00013306133714585184
1411.2565679885613,1411.2565679885613,0.9998355803175254,0.00013303024000397136
1411.2635126693503,1411.2635126693503,1.0002263656646893,0.00013305439033253145
1411.2704573498609,1411.2704573498609,0.9999051674461938,0.00013303360741313253
1411.2774020300917,1411.2774020300917,1.0000552939074545,0.00013301563718997448
1411.284346710322,1411.284346710322,0.9999155679636484,0.00013301553472534755
1411.2912913901807,1411.2912913901807,0.9998058456299475,0.0001330007635343385
1411.2982360699457,1411.2982360699457,0.9998088924766441,0.00013302818662657058
1411.305180749339,1411.305180749339,0.9999005619836527,0.00013302320013428736
1411.3121254286384,1411.3121254286384,1.0001865774055705,0.00013307408154246083
1411.3190701076583,1411.3190701076583,0.9998856247510753,0.00013303883519211302
1411.3260147865858,1411.3260147865858,0.999931843915977,0.00013303309218831513
1411.3329594652328,1411.3329594652328,1.0003946026540542,0.00013305334407259225
1411.3399041436944,1411.3399041436944,1.0002820682985538,0.00013302639488237716
1411.3468488218762,1411.3468488218762,1.0003312272361662,0.0001330670169630362
1411.3537935000581,1411.3537935000581,1.0000891200867432,0.00013304094421304536
1411.360738177775,1411.360738177775,0.9997641587571927,0.00013301471801345147
1411.3676828553973,1411.3676828553973,1.0000269837513922,0.00013302837149821938
1411.374627532742,1411.374627532742,1.000007303844567,0.000133032572106541
1411.381572209992,1411.381572209992,0.9999969039345272,0.00013306601442492704
1411.3885168868703,1411.3885168868703,1.0002728212747916,0.0001330522728795474
1411.3954615636553,1411.3954615636553,0.999923194541573,0.0001330325518037395
1411.4024062403466,1411.4024062403466,1.0001355032965384,0.00013302319879581893
1411.4093509166667,1411.4093509166667,0.9999323565241369,0.0001330387713222663
1411.4162955928928,1411.4162955928928,0.9999352390186663,0.00013304691087061423
1411.4232402688394,1411.4232402688394,0.9998102320353173,0.00013300003875646059
1411.430184944414,1411.430184944414,1.0000653572469838,0.0001330377671274614
1411.4371296199874,1411.4371296199874,0.9998903201938873,0.00013304149641826246
1411.4440742954691,1411.4440742954691,1.0000398060014701,0.0001330071853426935
1411.4510189705775,1411.4510189705775,1.0000002056305335,0.00013302101623352541
1411.4579636455928,1411.4579636455928,1.0001391526937347,0.00013305919342757267
1411.4649083203294,1411.4649083203294,0.9999214785255924,0.00013305275076580715
1411.4718529947854,1411.4718529947854,1.0001152032528495,0.0001330315773292238
1411.47879766915,1411.47879766915,1.0000760373368591,0.0001330197001420149
1411.4857423432336,1411.4857423432336,0.9995390166142869,0.00013300348185093608
1411.4926870172249,1411.4926870172249,1.0003491250525391,0.00013307272119229488
1411.4996316909362,1411.4996316909362,1.0000140130250075,0.00013306148373298934
1411.5065763645543,1411.5065763645543,1.0000040528965797,0.00013305177533694653
1411.5135210378007,1411.5135210378007,0.9999885354256779,0.00013303461584930344
1411.5204657110464,1411.5204657110464,1.0000565505890773,0.0001330370088058329
1411.527410383827,1411.527410383827,1.000048786056381,0.0001330704553223182
1411.5343550565142,1411.5343550565142,1.000150991455445,0.00013307814222525546
1411.541299729108,1411.541299729108,0.9999648311893985,0.00013305415747834895
1411.54824440133,1411.54824440133,0.9997706016445355,0.0001330140309669509
1411.555189073551,1411.555189073551,0.999923478412702,0.00013303545806928882
1411.5621337454936,1411.5621337454936,1.0000537386743613,0.00013305650605923845
1411.5690784171557,1411.5690784171557,0.9999029549504268,0.0001330245609649133
1411.5760230887256,1411.5760230887256,1.0000650341134871,0.0001330567830750078
1411.582967760016,1411.582967760016,1.0003217345698536,0.00013306533860590826
1411.5899124313055,1411.5899124313055,0.9998356858883408,0.00013304773379611885
1411.5968571023172,1411.5968571023172,1.0002032751139696,0.0001330697652942526
1411.6038017727683,1411.6038017727683,1.0003888589479146,0.0001330947025987106
1411.6107464434072,1411.6107464434072,1.0003510552338026,0.00013307417116433803
1411.6176911138589,1411.6176911138589,0.9998278214633858,0.00013305929074454374
1411.624635783938,1411.624635783938,0.9997521099599039,0.00013303546135621375
1411.631580453925,1411.631580453925,0.9999022762735803,0.00013306775112739133
1411.6385251237248,1411.6385251237248,0.9998652940718726,0.00013306119429030633
1411.6454697932454,1411.6454697932454,0.999916742683974,0.00013304449941691274
1411.6524144625798,1411.6524144625798,1.0001306407596222,0.00013307296188575914
1411.659359131821,1411.659359131821,1.0000997023607947,0.00013307532816197903
1411.6663038007832,1411.6663038007832,0.9999726740030891,0.00013307942186771237
1411.6732484696513,1411.6732484696513,1.0001184356199746,0.0001330641003969097
1411.6801931383343,1411.6801931383343,1.0000475158287558,0.00013306808880050874
1411.6871378065512,1411.6871378065512,1.0000820955213703,0.00013303596598867543
1411.694082474861,1411.694082474861,1.000007377282214,0.00013306047162092187
1411.701027142892,1411.701027142892,0.9999373429516835,0.00013304623312834023
1411.7079718107357,1411.7079718107357,0.9999723060434654,0.0001330466324583195
1411.7149164783943,1411.7149164783943,0.9996061031155975,0.00013301604971975106
1411.7218611458654,1411.7218611458654,1.000175812720057,0.00013307094562263155
1411.728805813058,1411.728805813058,1.0002129302909042,0.00013306161495547976
1411.735750480157,1411.735750480157,1.0000390166826332,0.00013305649118573582
1411.7426951470702,1411.7426951470702,0.9997878999085783,0.0001330357411125515
1411.749639813704,1411.749639813704,1.0001365440012273,0.00013307223264363163
1411.756584480337,1411.756584480337,0.9999110503797551,0.00013305339646872962
1411.763529146599,1411.763529146599,0.9998720680886934,0.00013305834471256066
1411.7704738127663,1411.7704738127663,0.9997758815689923,0.00013305873896624003
1411.7774184786551,1411.7774184786551,1.0002142303657973,0.00013308173559944774
1411.784363144357,1411.784363144357,1.0002359731338888,0.0001330886678054199
1411.791307809966,1411.791307809966,0.9997839004249863,0.0001330648157604763
1411.7982524753893,1411.7982524753893,0.9997809320426864,0.00013305930824181636
1411.8051971405325,1411.8051971405325,1.000028663335531,0.0001330966048385857
1411.812141805583,1411.812141805583,0.9999398718551042,0.0001330541414447252
1411.819086470447,1411.819086470447,0.9999490482351112,0.00013307897490662428
1411.8260311351246,1411.8260311351246,1.0004601303281675,0.00013310941323595456
1411.8329757995239,1411.8329757995239,0.9998205073402978,0.0001330698138892377
1411.839920463828,1411.839920463828,1.0000006191047601,0.00013305991817169963
1411.8468651277617,1411.8468651277617,1.000082617907862,0.0001330823468076964
1411.853809791694,1411.853809791694,0.9998061288975848,0.00013307265468677935
1411.8607544555334,1411.8607544555334,0.9999672376188128,0.00013307552882969322
1411.867699119001,1411.867699119001,0.9997996536550143,0.0001330607342921376
1411.8746437823743,1411.8746437823743,1.0002524456392827,0.0001330980319774287
1411.8815884455626,1411.8815884455626,0.9999599440247658,0.00013306746558677712
1411.8885331085635,1411.8885331085635,1.0002163530905113,0.00013309162895890384
1411.8954777714723,1411.8954777714723,0.9999759601609857,0.00013308977091604966
1411.9024224340076,1411.9024224340076,0.9999882958657587,0.00013307018275340214
1411.9093670964508,1411.9093670964508,0.9999617454529346,0.00013305926297393022
1411.916311758707,1411.916311758707,0.9998218079339287,0.0001330549722328923
1411.9232564207769,1411.9232564207769,1.0000930343237255,0.0001330579470359905
1411.9302010827544,1411.9302010827544,0.9997912604058996,0.0001330684427753418
1411.9371457444513,1411.9371457444513,1.0000526889369385,0.00013308824849602347
1411.9440904060561,1411.9440904060561,1.0002022589647066,0.00013307268738837856
1411.9510350672876,1411.9510350672876,0.9998827899453799,0.00013307546336914652
1411.9579797285194,1411.9579797285194,1.0000996312467594,0.00013309287992912597
1411.9649243895653,1411.9649243895653,0.9999526759893727,0.00013309595480990696
1411.9718690503312,1411.9718690503312,0.9999845774866987,0.00013307295875238621
1411.978813711005,1411.978813711005,0.9998964591137863,0.00013307029230069436
1411.9857583714916,1411.9857583714916,0.9997373393433406,0.0001330674530780474
1411.9927030317924,1411.9927030317924,1.0001254039276943,0.00013309854488789094
1411.9996476919068,1411.9996476919068,1.0000255618247194,0.0001330579554730747
1412.0065923518346,1412.0065923518346,1.0000971874414648,0.0001331024022397788
1412.01353701167,1412.01353701167,0.9997384606660582,0.00013306721676340763
1412.0204816711316,1412.0204816711316,1.0002209141674616,0.00013310711878084587
1412.0274263306878,1412.0274263306878,1.0000628363001784,0.00013310371310501485
1412.0343709897772,1412.0343709897772,1.0000553278595512,0.00013308374514741698
1412.0413156489603,1412.0413156489603,0.9998846270247516,0.00013306321796728243
1412.048260307864,1412.048260307864,0.9997539732227606,0.00013303480456010932
1412.0552049665812,1412.0552049665812,1.000235755916858,0.00013310521568381213
1412.0621496251129,1412.0621496251129,0.9997961517764121,0.000133072953515075
1412.069094283457,1412.069094283457,1.0001739886869148,0.00013309567121567341
1412.0760389417096,1412.0760389417096,1.0000925745680431,0.00013310740224179514
1412.082983599681,1412.082983599681,1.00002114188761,0.00013308612219545848
1412.0899282575606,1412.0899282575606,1.0000012414136674,0.0001330885629054445
1412.0968729152532,1412.0968729152532,0.9999638601640968,0.0001330834757915116
1412.1038175727595,1412.1038175727595,0.999828038460549,0.00013309612504581694
1412.1107622300808,1412.1107622300808,1.0002056007050852,0.00013311396085829524
1412.1177068872144,1412.1177068872144,0.9999853280824672,0.0001330985784256978
1412.1246515444416,1412.1246515444416,1.000106181962539,0.00013311198253775335
1412.1315962009237,1412.1315962009237,0.9998382651437563,0.0001330762108537567
1412.1385408577785,1412.1385408577785,0.9997369699227455,0.0001330762187736618
1412.1454855141678,1412.1454855141678,1.0000873697549018,0.00013307764757408317
1412.1524301705563,1412.1524301705563,0.9999226668717414,0.0001330772402483099
1412.1593748266664,1412.1593748266664,1.0001789559678895,0.000133100637790979
1412.1663194825894,1412.1663194825894,0.9999584135864371,0.00013309285642123324
1412.17326413842,1412.17326413842,1.0001574554744244,0.00013311014938749386
1412.1802087940637,1412.1802087940637,0.9999932204091003,0.0001330828290048545
1412.1871534495217,1412.1871534495217,0.9999901315875144,0.0001331111761372701
1412.194098104793,1412.194098104793,1.0001736547103306,0.0001331014336940801
1412.201042759971,1412.201042759971,0.9996873209568294,0.00013307861473991976
1412.2079874148706,1412.2079874148706,1.000002967923351,0.0001330994422871685
1412.214932069862,1412.214932069862,0.9998646831376525,0.00013309982400675117
1412.221876724482,1412.221876724482,0.999953992265928,0.00013310043036966046
1412.228821378729,1412.228821378729,1.0001039029072314,0.00013311767126815088
1412.235766033069,1412.235766033069,1.0002767698652804,0.00013313926066552123
1412.2427106872233,1412.2427106872233,1.000109870357749,0.00013310205491967315
1412.2496553412832,1412.2496553412832,1.0001064272781846,0.0001331205441488978
1412.2574333534333,1412.2574333534333,0.9999690853894532,0.00013309781546214105
1412.2660447238572,1412.2660447238572,0.9999169316720327,0.00013300501944261592
1412.2760450247401,1412.2760450247401,0.9997067083113279,0.0001330380196666525
1412.287434255802,1412.287434255802,0.9998354530406821,0.0001330339424611491
1412.295490053204,1412.295490053204,1.0003961616187467,0.0001331013812415663
1412.3024347059613,1412.3024347059613,0.9997661131381372,0.00013309364532025565
1412.3093793584387,1412.3093793584387,1.0000723204219004,0.00013310330463202493
1412.3163240110093,1412.3163240110093,1.0000879491135102,0.00013311360973154566
1412.3232686631145,1412.3232686631145,1.0002503506323976,0.00013314134240516808
1412.330213315126,1412.330213315126,0.9997823791861415,0.00013305301728299196
1412.3371579670452,1412.3371579670452,1.0001973356971354,0.0001331388416971701
1412.344102618777,1412.344102618777,1.0000297671059335,0.00013311667578488315
1412.351047270324,1412.351047270324,1.000138391232714,0.0001330756819002864
1412.3579919217761,1412.3579919217761,0.999956071455645,0.00013307471184201118
1412.3649365729505,1412.3649365729505,0.9997929786483126,0.00013304838272149016
1412.3718812241239,1412.3718812241239,0.999860346702007,0.00013307673051626872
1412.378825875018,1412.378825875018,1.0001516253123437,0.00013313553540811863
1412.3857705258195,1412.3857705258195,0.9996433557802786,0.00013309302995841992
1412.3927151763405,1412.3927151763405,1.000158557666969,0.00013312767081580197
1412.3996598268632,1412.3996598268632,1.0000293820389763,0.00013312256776959713
1412.4066044771982,1412.4066044771982,1.0000164405364258,0.00013309332369724404
1412.4135491272543,1412.4135491272543,0.9999094443523763,0.00013307245792563272
1412.420493777217,1412.420493777217,0.9997992523666284,0.00013304603794882851
1412.427438427087,1412.427438427087,0.9999301039837188,0.0001331132786629209
1412.4343830766775,1412.4343830766775,1.0000098688697132,0.0001331221655432729
1412.4413277261744,1412.4413277261744,1.000312127081449,0.0001331377675733398
1412.4482723754859,1412.4482723754859,1.0002001799436477,0.0001330967105889792
1412.4552170247034,1412.4552170247034,0.9998606236965418,0.00013309321970148238
1412.4621616736422,1412.4621616736422,1.0001823915419918,0.00013306306414856075
1412.4691063226735,1412.4691063226735,0.9999316230427556,0.00013307210254863522
1412.4760509712396,1412.4760509712396,0.9997107356150374,0.00013306691252352873
1412.4829956198053,1412.4829956198053,0.999696767464112,0.00013302620941556137
1412.4899402681847,1412.4899402681847,1.0001548589065998,0.00013312653624155107
1412.496884916472,1412.496884916472,1.000382107714479,0.0001331406304635018
1412.5038295645716,1412.5038295645716,1.0000537922960797,0.00013308388688154654
1412.5107742123002,1412.5107742123002,0.9999144342651377,0.0001331124226696428
1412.5177188604,1412.5177188604,0.9998906074575415,0.000133102373334461
1412.5246635078486,1412.5246635078486,0.9999388428646363,0.0001331267592672273
1412.531608155204,1412.531608155204,0.9997210274692842,0.00013311097273016603
1412.5385528025586,1412.5385528025586,0.9998563116636401,0.00013311102382202497
1412.545497449728,1412.545497449728,1.0003495041930761,0.0001331303339174046
1412.5524420967101,1412.5524420967101,0.9997880671955013,0.00013310725606159628
1412.559386743507,1412.559386743507,1.0002293874056662,0.00013314217455196793
1412.56633139021,1412.56633139021,1.0003893027820392,0.0001331310191906498
1412.5732760367275,1412.5732760367275,1.0000640627748498,0.0001331210068389531
1412.580220683151,1412.580220683151,1.0000476610393918,0.00013312422128093212
1412.5871653292959,1412.5871653292959,0.9999327249180926,0.0001331162603543723
1412.5941099753475,1412.5941099753475,0.9998001392425764,0.00013311087018154063
1412.6010546213051,1412.6010546213051,0.9999273318267112,0.00013311571622277366
1412.6079992670777,1412.6079992670777,0.9997461050705219,0.00013310425206649522
1412.6149439127557,1412.6149439127557,0.9999802924281319,0.00013312220032601045
1412.621888558156,1412.621888558156,1.0002044446759382,0.00013312994720676252
1412.6288332034617,1412.6288332034617,0.9998037493481261,0.00013307161049589338
1412.635777848675,1412.635777848675,1.0002848509534092,0.000133145826160271
1412.6427224936092,1412.6427224936092,0.9997949910890128,0.00013311318826392585
1412.6496671384498,1412.6496671384498,1.000362079975737,0.00013315633558310007
1412.6566117831044,1412.6566117831044,1.0000014814476206,0.00013313644060268474
1412.663556427665,1412.663556427665,0.999916752908239,0.00013311617154176226
1412.670501072134,1412.670501072134,1.0001363301908708,0.00013312711485457537
1412.677445716322,1412.677445716322,0.9999698279259025,0.0001331195847060329
1412.684390360418,1412.684390360418,1.0000665462896885,0.00013308352100793307
1412.69133500442,1412.69133500442,0.9998225853100013,0.00013309097828838307
