time,time,flux,flux_err
1544.099575012064,1544.099575012064,1.0003256150426767,0.0007510671946902268
1544.1079085488243,1544.1079085488243,1.0001166337745109,0.00074958098064774
1544.1162420856238,1544.1162420856238,0.9995498354760649,0.0007484704356119159
1544.1245756225587,1544.1245756225587,1.0000824659712024,0.0007476627121288752
1544.1322146981092,1544.1322146981092,0.9995531264437283,0.0006816737079158718
1544.1391593123212,1544.1391593123212,0.9993765944749784,0.0006812571573578198
1544.14610392658,1544.14610392658,1.00025779576757,0.0006809996709845542
1544.1541596791772,1544.1541596791772,0.9997098540992321,0.0006798671779910468
1544.1613820781076,1544.1613820781076,1.0008076205399092,0.0006797964142294672
1544.168326692506,1544.168326692506,1.0005097122775384,0.0006790635862585103
1544.175271306974,1544.175271306974,0.9994330155734209,0.0006788380038483235
1544.1822159214892,1544.1822159214892,1.0002459551760576,0.000678384658447249
1544.1891605360508,1544.1891605360508,1.000232409626144,0.0006784411726668898
1544.1961051506353,1544.1961051506353,0.9993616795090574,0.0006776231984324759
1544.203049765267,1544.203049765267,0.9996398885395218,0.0006780126495510697
1544.2099943799676,1544.2099943799676,1.0000432990731245,0.000677122784347844
1544.2169389946926,1544.2169389946926,0.9996324596288991,0.0006771428204656676
1544.22388360944,1544.22388360944,0.9994122803011642,0.0006769283436202287
1544.2308282242807,1544.2308282242807,1.0003248249730279,0.0006770213868960056
1544.2377728391216,1544.2377728391216,0.9999254165816474,0.000676523434782021
1544.2447174540089,1544.2447174540089,0.9999639169579495,0.0006761209444903316
1544.2516620689194,1544.2516620689194,1.0007794580818903,0.0006766957898293958
1544.2586066838771,1544.2586066838771,1.0000856702657313,0.0006765037175300898
1544.265551298904,1544.265551298904,1.0006717325228027,0.0006762383628566791
1544.2724959139543,1544.2724959139543,1.000598574614775,0.000675737600852269
1544.2794405290047,1544.2794405290047,0.9991382771233326,0.0006756273517035556
1544.2863851441016,1544.2863851441016,0.9998312622301502,0.0006749720945694031
1544.2933297592451,1544.2933297592451,1.0001209520523404,0.00067513919625201
1544.3002743744353,1544.3002743744353,0.9983492471983283,0.0006744836301767085
1544.3072189896252,1544.3072189896252,1.0002321135373995,0.0006746805699001328
1544.3141636048854,1544.3141636048854,0.9998890474961156,0.0006744522561607461
1544.3211082201453,1544.3211082201453,1.000533629533803,0.0006739962358772202
1544.328052835428,1544.328052835428,1.0000503680753468,0.000673468806720196
1544.3349974507814,1544.3349974507814,1.0010811571466474,0.0006732686943676722
1544.3419420661344,1544.3419420661344,1.0007027647668107,0.0006730000242282316
1544.348886681534,1544.348886681534,0.9991143848771259,0.00067254869951555
1544.3558312969337,1544.3558312969337,1.0002051699994046,0.0006728089739510372
1544.3627759123797,1544.3627759123797,0.9998816492541824,0.0006722459796440543
1544.3697205278725,1544.3697205278725,1.0002840825480934,0.0006715154745577762
1544.3766651433655,1544.3766651433655,0.9994545894529725,0.000670857277690255
1544.3836097588814,1544.3836097588814,1.0008768372320798,0.0006710371294299533
1544.3905543744672,1544.3905543744672,0.9986550930821039,0.0006706820311543017
1544.3974989899832,1544.3974989899832,0.9998663412838343,0.0006699894579477271
1544.404443605616,1544.404443605616,1.0002373971124343,0.0006697705626685673
1544.4113882212482,1544.4113882212482,0.9998574892162864,0.0006698929850676385
1544.4183328368806,1544.4183328368806,0.9994628443135811,0.000668953807431964
1544.4252774525596,1544.4252774525596,1.0006557523946427,0.0006687137931740351
1544.432222068262,1544.432222068262,1.0010064961384542,0.0006686806537240308
1544.4391666839642,1544.4391666839642,1.000641526813492,0.0006679380754863823
1544.4461112997128,1544.4461112997128,0.9984820288762922,0.0006678167632043866
1544.453055915462,1544.453055915462,1.0001982552609903,0.0006675794129130316
1544.4600005312343,1544.4600005312343,1.0001504467351061,0.0006668588632106531
1544.4669451470297,1544.4669451470297,0.9989297922436837,0.0006666658055618122
1544.473889762825,1544.473889762825,0.999745463446407,0.000666346784836609
1544.480834378667,1544.480834378667,0.9995910169643558,0.0006664453511571798
1544.4877789945322,1544.4877789945322,1.0010637287820043,0.000666707514244852
1544.4947236103972,1544.4947236103972,0.9997314970807072,0.0006660106762476699
1544.501668226286,1544.501668226286,1.0004122298611793,0.0006658135330477502
1544.5086128421747,1544.5086128421747,1.0004080487392124,0.0006661618067821038
1544.5155574580865,1544.5155574580865,0.9995846590486567,0.0006661543069616613
1544.5225020740215,1544.5225020740215,1.000218796721081,0.0006658157867569294
1544.52944668998,1544.52944668998,0.9992199083105534,0.0006655465087039426
1544.5363913059384,1544.5363913059384,1.0004079178344372,0.0006657262846476743
1544.54333592192,1544.54333592192,1.000478217242447,0.0006656582276487201
1544.5502805379017,1544.5502805379017,1.0000556266591165,0.0006655584749345804
1544.5572251539065,1544.5572251539065,1.0008509250686466,0.0006657249015520265
1544.564169769935,1544.564169769935,0.9990000411874543,0.000665404123476851
1544.571114385963,1544.571114385963,0.9997891001756898,0.0006656220569203512
1544.5780590019917,1544.5780590019917,0.9999848589705064,0.000665340786429831
1544.585003618043,1544.585003618043,1.001730298585811,0.0006659625495221981
1544.5919482341176,1544.5919482341176,1.0002283869462611,0.0006651853896746954
1544.5988928501692,1544.5988928501692,0.9989194746663571,0.0006648477708987278
1544.6058374662673,1544.6058374662673,0.9999183852614507,0.0006646132228119756
1544.6127820823654,1544.6127820823654,0.9998125739501212,0.000664764142651489
1544.6197266984873,1544.6197266984873,0.9999637117775666,0.0006650874620451287
1544.626671314585,1544.626671314585,1.0001529158417597,0.0006646103272514687
1544.6336159307066,1544.6336159307066,1.0006532084168733,0.0006646336720936486
1544.6419494700708,1544.6419494700708,1.0006862683910154,0.0006646813892946061
1544.6488940862387,1544.6488940862387,1.0002247248119664,0.0006653490002244895
1544.6558387023367,1544.6558387023367,0.9991797550044339,0.0006648606000532333
1544.6627833185512,1544.6627833185512,1.0013020928117906,0.0006648189440568205
1544.6697279346495,1544.6697279346495,1.0002431902052202,0.000664410664343712
1544.6766725508637,1544.6766725508637,0.9994594854322478,0.0006644380507763293
1544.683617167032,1544.683617167032,0.9996133992960038,0.0006646018732299346
1544.6905617831765,1544.6905617831765,0.9999133848691292,0.0006647640917968801
1544.6975063993912,1544.6975063993912,0.9989843161999868,0.0006652291167860272
1544.7044510156054,1544.7044510156054,0.9995352665170442,0.0006642755560009666
1544.71139563182,1544.71139563182,1.0008038915725503,0.0006643873317489316
1544.7183402480346,1544.7183402480346,0.9988854732364099,0.0006641491720664981
1544.7252848642258,1544.7252848642258,1.0011441100926906,0.0006651344494151668
1544.7322294803469,1544.7322294803469,1.0005455834683672,0.0006644660983274357
1544.7391740965618,1544.7391740965618,1.0009179496971865,0.0006640398124286068
1544.7461187127997,1544.7461187127997,1.000426659625292,0.0006639668856067176
1544.7530633291071,1544.7530633291071,1.0000980089779323,0.0006638709270541949
1544.7600079453218,1544.7600079453218,0.9988384923792349,0.0006639943105459351
1544.766952561536,1544.766952561536,1.0001335960396092,0.0006644528123697332
1544.7738971777505,1544.7738971777505,0.9988250199704701,0.0006642133034421744
1544.7808417939655,1544.7808417939655,0.9998994281389468,0.0006638781360060457
1544.7877864101795,1544.7877864101795,1.0003611248759263,0.0006642288587621716
1544.7947310263942,1544.7947310263942,1.0004098307924134,0.0006643696036080609
1544.8016756426089,1544.8016756426089,0.9997812420003307,0.0006639854239032234
1544.8086202588227,1544.8086202588227,1.0011327786709951,0.0006640514064312676
1544.815564875154,1544.815564875154,0.9998008791729169,0.0006639487709739163
1544.8225094913682,1544.8225094913682,0.9996347161798432,0.0006637929569251981
1544.829454107583,1544.829454107583,0.9988210658522169,0.0006635144946972474
1544.8363987237972,1544.8363987237972,1.0008005880220205,0.0006641197126116344
1544.843343340012,1544.843343340012,1.000012375331241,0.0006638305117146778
1544.8502879562263,1544.8502879562263,1.0004512221186705,0.0006634516658028279
1544.8572325724413,1544.8572325724413,0.9999857851236058,0.000663419529214034
1544.8641771886555,1544.8641771886555,0.9995576741306396,0.0006628802256799512
1544.871121804917,1544.871121804917,0.9997634558041918,0.0006631934506522146
1544.878066421201,1544.878066421201,1.000490700620227,0.0006634234294774058
1544.8850110374156,1544.8850110374156,1.000005836131857,0.0006628581886316501
1544.89195565363,1544.89195565363,1.0000060258455032,0.0006625919445495266
1544.8989002698447,1544.8989002698447,0.999816997158168,0.0006631060764964957
1544.905844885966,1544.905844885966,1.0000696006027547,0.0006627009653402494
1544.912789502157,1544.912789502157,1.000916197588254,0.0006628749874815481
1544.9197341183713,1544.9197341183713,0.9997994222611621,0.0006623254528920112
1544.9266787345862,1544.9266787345862,0.9998528739977168,0.0006624059299774913
1544.9336233508006,1544.9336233508006,0.9988093740541009,0.0006622496270902777
1544.9405679670149,1544.9405679670149,1.0002206277699457,0.0006623478500925468
1544.9475125831366,1544.9475125831366,0.9988117531064715,0.000661608991228384
1544.9544571993279,1544.9544571993279,1.0000128153032606,0.0006617102497851005
1544.9614018155423,1544.9614018155423,1.001663701591036,0.0006621244485826264
1544.9683464316404,1544.9683464316404,1.0000210159329623,0.0006619268812659224
1544.975291047855,1544.975291047855,1.0002837079654758,0.0006618534434138636
1544.982235663976,1544.982235663976,1.000614668544546,0.0006615594871627066
1544.9891802801442,1544.9891802801442,0.9997128290286762,0.0006611391362114731
1544.9961248962654,1544.9961248962654,0.9992753019836819,0.000661590210440164
1545.0030695124103,1545.0030695124103,1.0001817708262093,0.000661067480030869
1545.0100141285548,1545.0100141285548,1.0001539522926448,0.0006611099128212803
1545.0169587446765,1545.0169587446765,0.9998367739056755,0.0006616039842124149
1545.023903360774,1545.023903360774,1.0005537369169044,0.0006618047483348136
1545.0308479768723,1545.0308479768723,0.9999329258991831,0.0006611179619373055
1545.0377925929702,1545.0377925929702,1.0003977425254527,0.0006615026395497726
1545.0447372090687,1545.0447372090687,1.0007748982985993,0.0006610757285131496
1545.051681825143,1545.051681825143,0.9997504880499456,0.0006612185216458568
1545.0586264412182,1545.0586264412182,0.9998416935941947,0.000661345831932045
1545.0655710572933,1545.0655710572933,0.9986517419826839,0.0006603942829632325
1545.0725156733447,1545.0725156733447,1.0002622525819158,0.0006612862915232572
1545.0794602893961,1545.0794602893961,1.0001356994184534,0.0006606121977923311
1545.0864049054244,1545.0864049054244,0.9998665302465725,0.0006602961954002954
1545.0933495214524,1545.0933495214524,1.0000523480250951,0.00066043196808343
1545.1002941374577,1545.1002941374577,1.0007324915523634,0.0006606760648128039
1545.1072387534855,1545.1072387534855,0.9998419592675948,0.0006610001280820014
1545.114183369467,1545.114183369467,1.0000898359070591,0.0006603761507020983
1545.1211279854724,1545.1211279854724,1.000932271430734,0.0006602359611631602
1545.1280726014306,1545.1280726014306,0.9989373391433418,0.0006600463300059045
1545.1350172174123,1545.1350172174123,1.0002879542810938,0.0006604020559520277
1545.1419618333707,1545.1419618333707,0.9993997770500057,0.0006603444337839917
1545.1489064492823,1545.1489064492823,0.9997561589761869,0.0006602676139385781
1545.1558510652178,1545.1558510652178,1.0004587611724447,0.0006597822679215554
1545.1627956811294,1545.1627956811294,1.0001920377628655,0.0006601705129197008
1545.1697402970644,1545.1697402970644,1.0001757250205265,0.0006598993329028167
1545.1766849129765,1545.1766849129765,0.9992070867838146,0.0006596342976039681
1545.1836295288415,1545.1836295288415,1.0002260586702607,0.0006597994225120412
1545.1905741447304,1545.1905741447304,0.9999609339670027,0.0006594182380316073
1545.1975187605954,1545.1975187605954,1.0002658050090818,0.0006596891291852974
1545.2044633764606,1545.2044633764606,0.9996459045901783,0.0006590075493125433
1545.2114079922792,1545.2114079922792,0.9999866789399636,0.0006594428365708199
1545.2183526080983,1545.2183526080983,0.9993291032470826,0.0006587579255889613
1545.2252972239398,1545.2252972239398,1.0012026371623888,0.0006595931202597335
1545.232241839712,1545.232241839712,0.9994166280654658,0.0006589972971745551
1545.2391864555075,1545.2391864555075,1.0011770814253549,0.0006590432693080121
1545.2461310712793,1545.2461310712793,0.999875899969107,0.0006590321651854662
1545.2530756870517,1545.2530756870517,1.0009389279368595,0.0006596822485147156
1545.260020302777,1545.260020302777,0.9993108693235244,0.00065889676698714
1545.2669649185027,1545.2669649185027,0.9993953113291578,0.0006590652744659475
1545.2739095342517,1545.2739095342517,0.9992994199497989,0.00065932770944334
1545.2808541499307,1545.2808541499307,0.9998944736956913,0.0006589668022548579
1545.287798765633,1545.287798765633,0.9994286425551706,0.0006592438850034193
1545.2947433812656,1545.2947433812656,1.000976390741781,0.0006593525229166851
1545.3016879969673,1545.3016879969673,1.0003543920423117,0.0006592882497845915
1545.3086326126468,1545.3086326126468,0.9997440057392808,0.0006593765968479458
1545.3155772282787,1545.3155772282787,1.0002613365902673,0.0006589681609460576
1545.3225218438415,1545.3225218438415,0.9996501671409972,0.0006586960247272956
1545.3294664594273,1545.3294664594273,0.9999975003066893,0.0006588115941276858
1545.3364110750597,1545.3364110750597,0.9997407305176502,0.000659134945589233
1545.3433556905754,1545.3433556905754,1.0002942101696297,0.0006589693957928815
1545.350300306162,1545.350300306162,1.0007753857815112,0.0006588412586077178
1545.3572449217008,1545.3572449217008,0.9992474385289286,0.0006584828334334644
1545.364189537217,1545.364189537217,0.9998728089036499,0.0006588212111021763
1545.3711341527096,1545.3711341527096,1.0006249965642884,0.0006592418434905777
1545.3780787682022,1545.3780787682022,0.999260855595008,0.0006586506163706275
1545.3850233836718,1545.3850233836718,0.9997298805467505,0.0006583341534825685
1545.391967999141,1545.391967999141,0.9996485470315649,0.0006586396271874979
1545.3989126145873,1545.3989126145873,1.0003507371593126,0.0006587588281216396
1545.405857229987,1545.405857229987,0.9990513556572663,0.0006581256392381438
1545.4128018454098,1545.4128018454098,1.0009935942860457,0.0006583259492292911
1545.4197464607864,1545.4197464607864,0.9998580272490774,0.0006579995068273928
1545.4266910761621,1545.4266910761621,1.000253729172322,0.000658732149314182
1545.433635691492,1545.433635691492,0.999766641157079,0.0006578427361472991
1545.440580306845,1545.440580306845,0.9992548997318476,0.0006578499233887086
1545.4475249221748,1545.4475249221748,1.000798748096567,0.0006578829892424397
1545.4544695374582,1545.4544695374582,1.000078342214328,0.0006578641930578991
1545.4614141527643,1545.4614141527643,0.9988814325919677,0.0006579421071452585
1545.468358768001,1545.468358768001,1.0002100735184287,0.0006581542349981338
1545.475303383261,1545.475303383261,1.0001951321863942,0.0006579400776053771
1545.4822479984975,1545.4822479984975,1.0003018560342543,0.0006582872414214597
1545.4891926136872,1545.4891926136872,1.0007954361345575,0.0006585508853070639
1545.4961372288776,1545.4961372288776,0.9990781308354755,0.0006579197806487309
1545.5030818440675,1545.5030818440675,1.000749309696099,0.0006581106623022398
1545.5100264592343,1545.5100264592343,0.9995005917476056,0.0006580299380256982
1545.516971074378,1545.516971074378,1.0003257509981294,0.0006580164785238425
1545.5239156894518,1545.5239156894518,0.9987581519615244,0.0006577433410849442
1545.5308603045949,1545.5308603045949,1.0007064917261368,0.0006582354132535419
1545.5378049196688,1545.5378049196688,1.0001566911298583,0.0006582059669940569
1545.5447495347187,1545.5447495347187,1.0000418559042497,0.0006582549886584291
1545.5516941497692,1545.5516941497692,1.0007817367961944,0.0006578738876021428
1545.5586387647961,1545.5586387647961,0.9998831863379143,0.0006577521625775469
1545.5655833797532,1545.5655833797532,1.000139231856597,0.0006578505533565304
1545.5725279947571,1545.5725279947571,1.0001913679122751,0.0006579251579022345
1545.5794726097142,1545.5794726097142,0.9986076094652512,0.0006577631209211592
1545.5864172246486,1545.5864172246486,1.0010612959039826,0.0006580963037199291
1545.5933618395823,1545.5933618395823,0.9998785760864697,0.0006581160115033812
1545.6003064544695,1545.6003064544695,1.000326114589208,0.0006578625001350586
1545.6072510693568,1545.6072510693568,0.9998176645119164,0.000658691785772688
1545.614195684221,1545.614195684221,1.0007076452647763,0.0006579661516090914
1545.6211402990616,1545.6211402990616,1.0002133155487818,0.000657693256635665
1545.6280849138795,1545.6280849138795,0.9998905089934327,0.0006577383981155422
1545.6350295286734,1545.6350295286734,0.9994019552348499,0.0006577828504252637
1545.641974143468,1545.641974143468,1.000122336694648,0.000658204455367313
1545.6489187582388,1545.6489187582388,0.9997449568069683,0.0006580059281669369
1545.6558633729396,1545.6558633729396,0.9998733161698592,0.0006583991749108959
1545.662807987664,1545.662807987664,1.0005870266662324,0.0006581661013302397
1545.6697526023654,1545.6697526023654,0.9995933694838766,0.0006587396927541791
1545.6766972170194,1545.6766972170194,0.9994482745499937,0.000657978756636126
1545.6836418316975,1545.6836418316975,0.9989633411880291,0.0006580349338405852
1545.6905864463056,1545.6905864463056,0.999556357010043,0.0006582223924298657
1545.6975310609134,1545.6975310609134,1.0006792867466952,0.0006585243699525963
1545.704475675498,1545.704475675498,1.0001356868080866,0.0006582415765012275
1545.711420290059,1545.711420290059,0.9998310051384784,0.0006582269035194379
1545.7183649045744,1545.7183649045744,0.9994144350432622,0.0006582676005575981
1545.7253095191586,1545.7253095191586,0.9993539878813621,0.0006580324691017442
1545.732254133627,1545.732254133627,1.0008917319557435,0.0006580617052344629
1545.7391987480955,1545.7391987480955,1.0004344618606225,0.0006580283226020994
1545.7461433625635,1545.7461433625635,1.0002555206493637,0.0006579939043220902
1545.7530879769852,1545.7530879769852,0.9998247997008505,0.0006584331590726831
1545.7600325913838,1545.7600325913838,0.9993090509237655,0.0006581839682450847
1545.7669772057818,1545.7669772057818,0.999724121209858,0.0006581840295982616
1545.773921820134,1545.773921820134,1.000478807050967,0.0006583200116489589
1545.780866434486,1545.780866434486,1.0004929803131617,0.0006584536234032522
1545.787811048791,1545.787811048791,0.9992155699801648,0.0006580905305890276
1545.7947556630963,1545.7947556630963,0.9990886866502858,0.0006580526172401321
1545.8017002773781,1545.8017002773781,1.000262548741238,0.0006579208915693213
1545.8086448916133,1545.8086448916133,0.9999430066431525,0.0006579104946995297
1545.8155895058258,1545.8155895058258,1.0005736206320084,0.0006584303227130887
1545.8225341200612,1545.8225341200612,0.9999400948644543,0.0006584689654910306
1545.8294787342265,1545.8294787342265,1.0004939381047895,0.0006578724289711092
1545.8364233483692,1545.8364233483692,0.9998334119202535,0.000658149170875914
1545.8433679625111,1545.8433679625111,1.0005524355486508,0.0006582120419813058
1545.850312576607,1545.850312576607,0.9992862417848943,0.000657827132281019
1545.8572571907027,1545.8572571907027,1.0008030586508792,0.0006580631440891071
1545.8642018047517,1545.8642018047517,0.9987952882632231,0.0006579010214624363
1545.8711464187777,1545.8711464187777,0.9994223344084604,0.0006582698858271367
