time,time,flux,flux_err
1325.298530683608,1325.298530683608,0.9990703067678607,0.003977706827018911
1325.3068640971183,1325.3068640971183,1.0001116584332983,0.003982876396202229
1325.3145030597366,1325.3145030597366,1.0006436259553244,0.0036442350452582906
1325.321447571431,1325.321447571431,1.0028522994220803,0.003652854348606296
1325.3283920832885,1325.3283920832885,1.0031755944842582,0.0036621998229180415
1325.335336595344,1325.335336595344,0.9977064579741596,0.0036699004956023177
1325.3422811075511,1325.3422811075511,0.9981561199926716,0.0036785549946713346
1325.3492256199556,1325.3492256199556,1.0026997792014005,0.0036920673463061333
1325.356170132535,1325.356170132535,0.9987004537037679,0.0037001863411943677
1325.3631146453004,1325.3631146453004,0.9953346752018721,0.003709244927228356
1325.3700591582176,1325.3700591582176,0.9992992582633627,0.003725121978767986
1325.377003671309,1325.377003671309,0.9978058704933565,0.0037344994603407413
1325.383948184587,1325.383948184587,1.0058144423470794,0.00374888936892167
1325.3908926980394,1325.3908926980394,0.996561935387772,0.0037516773082433737
1325.3978372116078,1325.3978372116078,1.001720350731929,0.0037634365440917146
1325.4047817253752,1325.4047817253752,0.999815153253307,0.0037709251987404257
1325.4117262392926,1325.4117262392926,1.0026624470638665,0.0037812283080398434
1325.4186707533743,1325.4186707533743,0.9962569981970661,0.003785959509655803
1325.4256152676066,1325.4256152676066,1.0025536285960586,0.003797556616642244
1325.4325597820018,1325.4325597820018,0.9976172544397495,0.0038045861900799912
1325.4395042965489,1325.4395042965489,1.0036293249815504,0.003812976629621448
1325.4464488112467,1325.4464488112467,1.000892041945104,0.003823740130342651
1325.4533933260961,1325.4533933260961,0.9969626549511522,0.003828742965143543
1325.4603378410852,1325.4603378410852,0.9988901847147389,0.0038396237439973268
1325.4672823562255,1325.4672823562255,0.9993202168416693,0.003849395768082647
1325.474226871506,1325.474226871506,1.0043512362677638,0.0038644109541645525
1325.4811713869371,1325.4811713869371,0.9978254178076934,0.0038688536091955896
1325.4881159025088,1325.4881159025088,1.0002873197497695,0.0038832724559265965
1325.49506041822,1325.49506041822,1.0005532034631373,0.0038967126721795213
1325.5020049340583,1325.5020049340583,0.9961254151280314,0.0039059318586284267
1325.5089494500373,1325.5089494500373,1.0059963559323586,0.003923835766350929
1325.5158939661437,1325.5158939661437,0.9934476740444996,0.003930842239776084
1325.5228384823904,1325.5228384823904,1.0001464871357115,0.003948784843308228
1325.5297829987528,1325.5297829987528,1.0031316376108728,0.003964867248496762
1325.5367275152673,1325.5367275152673,1.002781797611074,0.003982287356339707
1325.5436720319096,1325.5436720319096,1.001342406441471,0.00399242378233585
1325.5506165486563,1325.5506165486563,1.0005728770043008,0.004004774817432654
1325.5575610655433,1325.5575610655433,0.9978366423467886,0.004017042363113331
1325.5645055825464,1325.5645055825464,0.997523613435083,0.004030874346341866
1325.571450099666,1325.571450099666,0.9960753611630839,0.004045077797458415
1325.5783946169254,1325.5783946169254,0.9970652686249757,0.004057744215410734
1325.5853391342775,1325.5853391342775,1.0032494592737755,0.004074893897014904
1325.5922836517461,1325.5922836517461,1.0047960119942105,0.004088138444874991
1325.599228169343,1325.599228169343,1.008948701526851,0.004101885685228226
1325.6061726870444,1325.6061726870444,0.9959934718680146,0.0041084010970001954
1325.613117204851,1325.613117204851,0.9949671436956716,0.004118234034123158
1325.6200617227973,1325.6200617227973,0.9953767972634701,0.0041276287128813385
1325.6270062408362,1325.6270062408362,0.9990854109396885,0.004137742164070349
1325.6339507589803,1325.6339507589803,1.0052005565112083,0.004147586911874332
1325.640895277241,1325.640895277241,0.9987741803799057,0.004156222647891464
1325.647839795594,1325.647839795594,1.0049874044869032,0.004167822417359869
1325.6547843140527,1325.6547843140527,0.9939394892121903,0.00417207682639337
1325.6617288326154,1325.6617288326154,1.0018560121442128,0.004182214288271442
1325.6686733512838,1325.6686733512838,1.0011368672384022,0.004190863949023743
1325.6756178700443,1325.6756178700443,0.9971210722445611,0.004198775244886763
1325.6825623889222,1325.6825623889222,1.0022106662661936,0.004214679310342124
1325.6895069078691,1325.6895069078691,1.0007871941388,0.004229578582376087
1325.6964514269328,1325.6964514269328,0.9951370135945243,0.004242199475705783
1325.7033959460782,1325.7033959460782,0.9977018212405924,0.004260073341917243
1325.710340465328,1325.710340465328,1.0101450225711677,0.0042797565215709175
1325.7172849846595,1325.7172849846595,1.0012240373426464,0.004292775542094092
1325.724229504084,1325.724229504084,1.0008972135334155,0.004309614393801181
1325.7311740236248,1325.7311740236248,0.9894014937445293,0.004322177195875575
1325.7381185432125,1325.7381185432125,1.0050574542693966,0.004345671533569956
1325.7450630629046,1325.7450630629046,0.9971444772079057,0.004358692740736583
1325.75200758269,1325.75200758269,0.9978795658364653,0.004379400655856019
1325.7589521025573,1325.7589521025573,0.997787607938905,0.004402296510174888
1325.7658966225051,1325.7658966225051,1.0028578096088139,0.00442614658140868
1325.7728411425355,1325.7728411425355,1.0047634525014928,0.004447612909089498
1325.779785662658,1325.779785662658,1.001872230640624,0.004469206723750198
1325.786730182852,1325.786730182852,1.0033375336424792,0.004486610133990659
1325.7936747031376,1325.7936747031376,1.004888318743258,0.004505616967197101
1325.8006192234934,1325.8006192234934,0.9967593659696042,0.004515222861598009
1325.8075637439192,1325.8075637439192,0.986721564522475,0.004528607843685857
1325.8145082644376,1325.8145082644376,0.9952900688878851,0.004545100789361685
1325.8214527850268,1325.8214527850268,1.0022464066045205,0.0045651911642579646
1325.828397305685,1325.828397305685,1.0051400248833076,0.0045802646521341155
1325.8353418264137,1325.8353418264137,0.9971166696610592,0.0045922441683087945
1325.8422863472356,1325.8422863472356,1.0009065378883093,0.0046017298799063975
1325.8492308681148,1325.8492308681148,1.005787748983706,0.004611266387557567
1325.8561753890644,1325.8561753890644,1.002383560553216,0.004618344276433053
1325.8631199100955,1325.8631199100955,1.0036832701839238,0.004621799894153175
1325.870064431185,1325.870064431185,0.9936227133781497,0.004615816990406803
1325.877008952344,1325.877008952344,1.0000911538372617,0.004621423197225558
1325.8839534735612,1325.8839534735612,0.9983190518325324,0.004626923348789858
1325.8908979948606,1325.8908979948606,0.9999354337205484,0.004633165389122005
1325.8978425162054,1325.8978425162054,1.0015815696208865,0.004637903081890685
1325.904787037644,1325.904787037644,0.9990842725490559,0.004641094125342259
1325.9117315591407,1325.9117315591407,0.9973538727766684,0.0046440050821041435
1325.918676080684,1325.918676080684,0.9987773321626163,0.004648838151458969
1325.9256206022976,1325.9256206022976,1.0051198293010457,0.004655526544225974
1325.9325651239687,1325.9325651239687,0.9930978127859771,0.004660423787382452
1325.9395096457217,1325.9395096457217,0.9996011489317145,0.004669194003149864
1325.9464541675095,1325.9464541675095,1.005902323834543,0.004683326927426411
1325.953398689367,1325.953398689367,1.0089546804720597,0.004692542179239384
1325.960898773052,1325.960898773052,0.9982640683487848,0.004697041037914941
1325.9686766376494,1325.9686766376494,1.0014877429861826,0.004713048614183934
1325.9756211596934,1325.9756211596934,1.0003156243330138,0.0047229003383742274
1325.9825656817952,1325.9825656817952,0.9974560243122255,0.004740803116340182
1325.989510203956,1325.989510203956,1.0028482234264768,0.004760536625907464
1325.9964547261393,1325.9964547261393,0.9969447604867089,0.004773144647548303
1326.0033992484045,1326.0033992484045,0.9968250825344352,0.004790564097756993
1326.010343770728,1326.010343770728,0.9999522088271311,0.004815800228574278
1326.017288293086,1326.017288293086,1.0041806256270829,0.00483957029180432
1326.024232815514,1326.024232815514,1.0006947412530074,0.004858124573771735
1326.031177337989,1326.031177337989,0.9963552449822088,0.004877332670904707
1326.0381218604748,1326.0381218604748,0.9965528207376642,0.004883814708683426
1326.045066383078,1326.045066383078,1.0031342295708738,0.004901270621355506
1326.052010905692,1326.052010905692,1.002687400464674,0.004917290005059614
1326.0589554283529,1326.0589554283529,1.001633277628369,0.0049297062632095365
1326.0658999510838,1326.0658999510838,1.007282158383271,0.004945717681660921
1326.0728444738374,1326.0728444738374,0.9984214756433921,0.004960184534279692
1326.0797889966736,1326.0797889966736,1.0019866462251794,0.004974227566452551
1326.086733519509,1326.086733519509,0.9887598598860702,0.0049826780384267634
1326.0936780424029,1326.0936780424029,0.998655955774445,0.004998445800156625
1326.100622565343,1326.100622565343,0.9945233731515648,0.0050104295062472085
1326.1075670883413,1326.1075670883413,1.0037472351426726,0.005032475352720632
1326.1145116113864,1326.1145116113864,1.0052293552358078,0.005044685768259858
1326.121456134443,1326.121456134443,0.9931959572128569,0.005050792025352741
1326.1284006575697,1326.1284006575697,1.0052826036836988,0.00506787767561073
1326.1353451807313,1326.1353451807313,1.0070769424008081,0.005074574326548534
1326.1422897039392,1326.1422897039392,0.9992628896416509,0.0050795951294952246
1326.1492342271708,1326.1492342271708,0.9939242335833931,0.005083828629487048
1326.15617875046,1326.15617875046,1.0002614999661352,0.005093267527336307
1326.1631232737968,1326.1631232737968,0.9966475818947922,0.005101231320342516
1326.170067797144,1326.170067797144,1.0008892407259395,0.0051114580849820805
1326.1770123205617,1326.1770123205617,1.0007829139379,0.005123580039928728
1326.1839568439912,1326.1839568439912,1.0010925185276038,0.005134758871162947
1326.190901367478,1326.190901367478,0.9958844547747244,0.005144962045790511
1326.1978458909894,1326.1978458909894,1.0015257857832776,0.005155804887482868
1326.2047904145463,1326.2047904145463,1.0006627874177614,0.005166270431205335
1326.2117349381392,1326.2117349381392,1.0025891324216807,0.00517978926771354
1326.2186794617658,1326.2186794617658,1.001205980930735,0.00519504477342028
1326.2256239854164,1326.2256239854164,0.9922198290421443,0.005202874606837269
1326.232568509125,1326.232568509125,0.9989814438782091,0.005217969231012214
1326.2395130328448,1326.2395130328448,0.9953823794364645,0.005235091579052746
1326.246457556624,1326.246457556624,1.0100584749486357,0.005251207536114662
1326.2534020804137,1326.2534020804137,1.0031332112843596,0.00525970347034637
1326.260346604239,1326.260346604239,0.9983277634117791,0.005267269902866988
1326.2672911281109,1326.2672911281109,0.9911113862739022,0.0052725209195429844
1326.2742356520052,1326.2742356520052,0.9948477073038827,0.005284713226432986
1326.2811801759356,1326.2811801759356,1.0114884476534332,0.0052992394118709036
1326.2881246999,1326.2881246999,1.002058093939708,0.005306969743448263
1326.2950692238999,1326.2950692238999,0.9978106607525463,0.005319816057985149
1326.302013747899,1326.302013747899,1.0020578795424173,0.005343773205415332
1326.308958271969,1326.308958271969,1.0080222630339277,0.005365558457229872
1326.3159027960387,1326.3159027960387,1.0017428840672185,0.0053791800817962875
1326.3228473201543,1326.3228473201543,0.9949481448518794,0.005391958999217713
1326.3297918442945,1326.3297918442945,0.9990092796544661,0.005413033749086671
1326.3367363684567,1326.3367363684567,0.9971484477554142,0.005430991147923474
1326.3436808926658,1326.3436808926658,1.0021225229308333,0.005459244835043538
1326.3534032265798,1326.3534032265798,0.993120382015546,0.0054930243744408785
1326.3603477508354,1326.3603477508354,0.99533966758333,0.0055139159869757514
1326.3672922751261,1326.3672922751261,1.0060461010654818,0.005534355553742133
1326.3742367994516,1326.3742367994516,1.0044167557520454,0.005557511809993319
1326.381181323801,1326.381181323801,1.0051693925717697,0.005578943024414631
1326.388125848173,1326.388125848173,0.9952571101775884,0.005593298466418575
1326.3950703725686,1326.3950703725686,0.9989199337865076,0.00561764443448916
1326.4020148969757,1326.4020148969757,1.0075718515666825,0.005640972408128734
1326.4089594214297,1326.4089594214297,1.0017964818361207,0.005661436122935933
1326.415903945895,1326.415903945895,0.9994879251457525,0.005684823712806964
1326.4228484703951,1326.4228484703951,0.9982509908706472,0.005707292142358784
1326.4297929949073,1326.4297929949073,0.996289126832744,0.005737736897053402
1326.436737519442,1326.436737519442,1.0037019171282913,0.005767176764986635
1326.4436820440123,1326.4436820440123,1.001060190293678,0.005784572610963599
1326.450626568594,1326.450626568594,0.9954850702017529,0.0058005492819831386
1326.4575710932222,1326.4575710932222,1.006886819609493,0.005823390128577953
1326.4645156178508,1326.4645156178508,0.9964835756953624,0.005843488884637756
1326.4714601425026,1326.4714601425026,0.9982903881028976,0.005862696305175238
1326.478404667189,1326.478404667189,0.9904529591921367,0.00587554302562534
1326.485349191887,1326.485349191887,1.0016463800552313,0.005893771635265587
1326.492293716597,1326.492293716597,1.0070065587804353,0.005911678357840774
1326.4992382413418,1326.4992382413418,1.0004138162559264,0.005928283518325688
1326.506182766098,1326.506182766098,1.008758119152441,0.00595327234023523
1326.5131272908893,1326.5131272908893,0.991207984662176,0.005965231117886878
1326.5200718156923,1326.5200718156923,0.9912554899765029,0.0059864674862012135
1326.527016340507,1326.527016340507,1.0140835245476787,0.006017467675483541
1326.5339608653564,1326.5339608653564,0.9964670031500447,0.006037394117859103
1326.5409053901944,1326.5409053901944,1.0056840070162014,0.006067218907772118
1326.5478499150788,1326.5478499150788,0.9967240721717671,0.00609317577670172
1326.5547944399982,1326.5547944399982,0.9977782163790229,0.006117918149725672
1326.5617389649058,1326.5617389649058,0.9948177083817628,0.0061334420293781946
1326.5686834898368,1326.5686834898368,1.0044595882457705,0.006147007655508115
1326.5756280147914,1326.5756280147914,0.9973263176769327,0.006160254933098914
1326.5825725397567,1326.5825725397567,1.0018054558049228,0.006178600976046556
1326.5895170647582,1326.5895170647582,0.9975199574083702,0.006196644324908872
1326.5964615897587,1326.5964615897587,0.9984503650311684,0.006218638828157957
1326.6034061147832,1326.6034061147832,1.01216038562767,0.006235256153162953
1326.610350639819,1326.610350639819,1.003947591549919,0.006243491197296951
1326.6172951648778,1326.6172951648778,0.9944487976756727,0.006250422062831787
1326.6242396899484,1326.6242396899484,1.0023632476826367,0.006263601225469806
1326.6311842150308,1326.6311842150308,0.9956843866249807,0.006271407513431727
1326.6381287401364,1326.6381287401364,0.9998038864745903,0.006283266805335311
1326.6450732652654,1326.6450732652654,1.0002638289371777,0.006288067066045596
1326.6520177903826,1326.6520177903826,1.0009993780971873,0.0062942258207636815
1326.6589623155353,1326.6589623155353,0.9961135346580476,0.0062958420303175664
1326.6659068406984,1326.6659068406984,1.014374802188044,0.006301401269663651
1326.6728513658745,1326.6728513658745,1.005914294036614,0.006301964514338949
1326.6797958910847,1326.6797958910847,1.0000783571096814,0.006299034859217345
1326.6875737593032,1326.6875737593032,0.9914529880930942,0.006290972717831059
1326.6950738465498,1326.6950738465498,0.9953588107790287,0.006295444602242642
1326.702018371795,1326.702018371795,0.9958729108960209,0.006289888055000444
1326.709240678059,1326.709240678059,1.000865394221187,0.006290001744632487
1326.7172963273654,1326.7172963273654,0.9872150236978301,0.006282909133564392
1326.7242408526456,1326.7242408526456,1.001205632839881,0.006286120570010349
1326.731185377949,1326.731185377949,1.006178714924149,0.006287118648924199
1326.7381299032527,1326.7381299032527,0.9989138099378906,0.006288579375426058
1326.745074428568,1326.745074428568,0.9934798502592999,0.006287023715197916
1326.7520189538943,1326.7520189538943,1.0124554038195182,0.006291639060142315
1326.7589634792448,1326.7589634792448,0.9972222473252191,0.006288614620086397
1326.7659080045946,1326.7659080045946,1.0027829473846013,0.0062923872555535705
1326.7728525299685,1326.7728525299685,0.9946199954855871,0.00629219757864335
1326.7797970553415,1326.7797970553415,1.0049406436621795,0.006300616684075652
1326.7867415807382,1326.7867415807382,0.9928891507630325,0.0063020043706938
1326.7936861061467,1326.7936861061467,0.9887426080390466,0.006307934367908127
1326.8006306315551,1326.8006306315551,1.000505324515908,0.006323129705519003
1326.8075751569863,1326.8075751569863,0.9954906383275126,0.006331159111108341
1326.8145196824062,1326.8145196824062,1.0016027922942001,0.006338783422906719
1326.8214642078615,1326.8214642078615,0.9943246748170887,0.006352131422322634
1326.8284087333163,1326.8284087333163,1.0178555253779096,0.006362564575580131
1326.835353258771,1326.835353258771,1.004660934425289,0.0063666453540133835
1326.8422977842727,1326.8422977842727,0.9949654655368942,0.006370449887420246
1326.849242309739,1326.849242309739,1.0014185446111044,0.006371582098069081
1326.8561868352522,1326.8561868352522,0.9984223335549846,0.006364152017072225
1326.8631313607539,1326.8631313607539,0.9929518753443206,0.006361925907281565
1326.870075886267,1326.870075886267,1.000519268492835,0.006362744422495528
1326.8770204118032,1326.8770204118032,0.9931667903490442,0.006356121102740929
1326.883964937328,1326.883964937328,0.9993529162954549,0.006350633338641073
1326.8909094628757,1326.8909094628757,0.9983823034839286,0.00634184253950241
1326.897853988424,1326.897853988424,1.009369290118848,0.00633444786331405
1326.9047985139835,1326.9047985139835,1.004582653657393,0.006313012072958331
1326.911743039555,1326.911743039555,1.0026234350120948,0.0062911367372894145
1326.918687565138,1326.918687565138,0.9982987065725843,0.006270717931896072
1326.9256320907207,1326.9256320907207,0.9905939699757,0.0062509931279629335
1326.9325766163154,1326.9325766163154,0.9921474309952506,0.006224758164689582
1326.9395211419214,1326.9395211419214,1.010548708523564,0.006209783428374527
1326.9464656675277,1326.9464656675277,1.0038701419646987,0.006190682957597607
1326.9534101931456,1326.9534101931456,0.999612666619593,0.006169720952773065
1326.9603547187753,1326.9603547187753,0.9930416469933631,0.006147191212830857
1326.9672992444164,1326.9672992444164,1.0076054157320764,0.006132316473302205
1326.9742437700456,1326.9742437700456,0.9973240425313594,0.0061158782051442175
1326.981188295687,1326.981188295687,0.9888029887711596,0.006099179758416855
1326.9881328213628,1326.9881328213628,1.0063266107004516,0.0060958835669755315
1326.9950773470161,1326.9950773470161,1.008176987836631,0.0060935967909880925
1327.0020218726802,1327.0020218726802,1.0045430104086452,0.006090422865680403
1327.0089663983679,1327.0089663983679,0.9947756222654187,0.006091797257703526
1327.015910924044,1327.015910924044,1.0058822481812348,0.006095380214340246
1327.0228554497317,1327.0228554497317,0.9998738551324002,0.006101286130199799
1327.0297999754314,1327.0297999754314,0.9954915918858116,0.006096338738432607
1327.0367445011302,1327.0367445011302,0.9923507635849139,0.006105319956450417
1327.0436890268418,1327.0436890268418,0.9982003881939612,0.006113284357196968
1327.050633552541,1327.050633552541,0.9873637824103785,0.006123819583282643
1327.0581336403347,1327.0581336403347,1.0024594246954004,0.006141117920652066
1327.0659115091355,1327.0659115091355,1.004706612856315,0.00615473342351689
1327.0728560348582,1327.0728560348582,1.0124485603930835,0.006166119006576132
1327.079800560604,1327.079800560604,1.0085963586855118,0.006170099055531304
1327.0867450863498,1327.0867450863498,0.994940838653425,0.006173660980977644
1327.093689612096,1327.093689612096,0.9995740649224214,0.006184192738497721
