time,time,flux,flux_err
1570.5440931207968,1570.5440931207968,0.9998206756363092,0.00033528360309225893
1570.5535841315225,1570.5535841315225,1.0001190177674528,0.0003346547531578953
1570.5619177020408,1570.5619177020408,0.9998573012507963,0.00033406768705628866
1570.570251272599,1570.570251272599,0.9999629307360833,0.00033364636478895745
1570.5778903790397,1570.5778903790397,1.0005209178151415,0.00030420255765428966
1570.5848350213091,1570.5848350213091,0.9999840532284171,0.00030359985360949927
1570.5917796636716,1570.5917796636716,1.0001193667399477,0.00030326872285902387
1570.598724306034,1570.598724306034,0.9999223903886378,0.0003027940467235505
1570.6059467341593,1570.6059467341593,0.9996543585609172,0.0003023279489104169
1570.6140025194748,1570.6140025194748,1.0002953869335838,0.00030193482652552805
1570.6209471620236,1570.6209471620236,0.9998834802558629,0.0003014021462402096
1570.6281695902871,1570.6281695902871,0.9999640886907025,0.0003009994021401878
1570.6362253757895,1570.6362253757895,1.000051703948498,0.0003005062182193111
1570.6431700184787,1570.6431700184787,0.9999802786233938,0.00030003716400557254
1570.6501146612602,1570.6501146612602,0.9998657746137931,0.00029963343795276346
1570.6570593039953,1570.6570593039953,1.0000459986342687,0.0002991928693787826
1570.6640039468698,1570.6640039468698,0.9998929659820712,0.0002987325373154061
1570.6709485897452,1570.6709485897452,0.9999032593836844,0.00029830012800664265
1570.6778932327138,1570.6778932327138,0.9999051305256987,0.0002978772729375499
1570.6848378757281,1570.6848378757281,1.0001842174829518,0.0002974107633645005
1570.6917825187422,1570.6917825187422,0.999976924838467,0.00029700752614003937
1570.6987271618032,1570.6987271618032,1.0008192250094845,0.0002965847158750126
1570.7056718049582,1570.7056718049582,1.0003110262901234,0.0002961585685967856
1570.7126164480662,1570.7126164480662,1.0000809428574597,0.0002956277365013027
1570.7195610913136,1570.7195610913136,0.999432145651852,0.0002952471746009332
1570.726505734514,1570.726505734514,0.999853237680362,0.00029478034179508184
1570.733450377808,1570.733450377808,0.9995726533798436,0.0002943145096425297
1570.7403950211497,1570.7403950211497,1.0004800729612136,0.0002939312863133607
1570.7473396644896,1570.7473396644896,1.0001218284019537,0.00029349478900002877
1570.7542843079234,1570.7542843079234,1.0002047389296878,0.0002930591503724274
1570.7612289513568,1570.7612289513568,0.9995005905970566,0.0002925113670010152
1570.7681735948368,1570.7681735948368,1.0003425552147234,0.0002921790577684573
1570.775118238318,1570.775118238318,0.9999330317870638,0.0002917133240867757
1570.7820628818913,1570.7820628818913,0.9996773797107454,0.0002913829386025121
1570.7890075254645,1570.7890075254645,0.9996494426634669,0.0002910666248300549
1570.7959521690843,1570.7959521690843,0.9993652828508521,0.00029066643053139675
1570.8028968127503,1570.8028968127503,1.0000613037929635,0.0002903931957426517
1570.809841456418,1570.809841456418,1.0001481925280784,0.000290116198664336
1570.8167861001778,1570.8167861001778,0.9999581334608514,0.00028980678149329844
1570.8237307438903,1570.8237307438903,1.0001927299389437,0.00028953334940310136
1570.8306753876964,1570.8306753876964,1.000422903563516,0.0002892146820838704
1570.8376200315024,1570.8376200315024,1.0003414885986575,0.00028887667929241494
1570.8445646753562,1570.8445646753562,1.0001236074664,0.00028862764332374645
1570.8515093192088,1570.8515093192088,1.0002026397031842,0.000288474772613729
1570.8584539632009,1570.8584539632009,1.0002001290074019,0.0002881287860620898
1570.8653986070071,1570.8653986070071,0.999932067226036,0.00028798079326205437
1570.8723432510458,1570.8723432510458,0.9995643984782084,0.00028776019239072956
1570.8801212523706,1570.8801212523706,0.9997272852130283,0.00028762848796856866
1570.8876214679326,1570.8876214679326,1.0002090750187542,0.0002874797983731841
1570.8945661119715,1570.8945661119715,0.9995950770831363,0.0002871516844096975
1570.9015107560103,1570.9015107560103,1.0000950292033637,0.00028702882629665424
1570.9084554000488,1570.9084554000488,0.9999896240346914,0.0002868558605029691
1570.915400044322,1570.915400044322,1.0001807508914096,0.0002866352528449464
1570.9223446883611,1570.9223446883611,1.0003502409466383,0.0002864198489888241
1570.9292893326324,1570.9292893326324,1.000183973492947,0.0002860759023307454
1570.936233976811,1570.936233976811,0.9999488081616178,0.0002859660386437899
1570.9431786210364,1570.9431786210364,0.9998244392500784,0.00028576902241965734
1570.9501232653088,1570.9501232653088,1.0000911370442158,0.0002854626870791375
1570.957067909581,1570.957067909581,1.0000646107252837,0.00028540845639317316
1570.9640125538986,1570.9640125538986,0.9997039298060135,0.00028510848754832453
1570.9709571982173,1570.9709571982173,1.0000136057987903,0.00028489708865233856
1570.9779018425822,1570.9779018425822,0.9995600731948777,0.00028472793422964544
1570.9848464869476,1570.9848464869476,1.0002341792672762,0.00028465230305928826
1570.9917911313598,1570.9917911313598,1.0001719641725102,0.0002844235940666432
1570.9987357757243,1570.9987357757243,0.9998952501377711,0.0002841803990035694
1571.0056804201822,1571.0056804201822,1.0002707422474226,0.0002839743404253282
1571.0126250646404,1571.0126250646404,0.9999203363619144,0.00028370874920785193
1571.019569709099,1571.019569709099,1.0001211193943376,0.00028345734508152995
1571.026514353604,1571.026514353604,0.9999104540361031,0.00028320882218658066
1571.0334589981085,1571.0334589981085,0.9998069034238771,0.0002830618352091619
1571.0404036426594,1571.0404036426594,0.9997589059186236,0.00028279622725355694
1571.047348287164,1571.047348287164,1.000022075935266,0.0002824415283734043
1571.0542929317621,1571.0542929317621,1.000003757577287,0.0002823003594958729
1571.061237576314,1571.061237576314,1.000391681808789,0.00028205762532898017
1571.0681822209115,1571.0681822209115,0.9999714536509281,0.0002818696395437352
1571.0751268655558,1571.0751268655558,0.9998827579598135,0.00028161433011103244
1571.0820715101534,1571.0820715101534,1.0003704923861438,0.00028144989587058526
1571.0890161547977,1571.0890161547977,1.0001213104250255,0.00028118273081345255
1571.0959607993964,1571.0959607993964,1.000088972369771,0.0002810992756139512
1571.102905444134,1571.102905444134,0.9994146250296042,0.0002807921855304518
1571.1098500887783,1571.1098500887783,1.0001685109482155,0.0002806411800054738
1571.1167947335152,1571.1167947335152,0.999595254355987,0.0002804478049100097
1571.123739378206,1571.123739378206,0.9998062959287317,0.00028032488561624574
1571.1306840228976,1571.1306840228976,0.9999455218166309,0.0002801487727428633
1571.1376286676355,1571.1376286676355,1.0005309882623306,0.0002800460437873411
1571.1445733124194,1571.1445733124194,1.0001144409182134,0.00027992193671978267
1571.1515179571566,1571.1515179571566,1.0002727414556898,0.00027979842016003984
1571.158462601894,1571.158462601894,1.000221086391432,0.00027974130271442245
1571.1654072467252,1571.1654072467252,0.9999030347979279,0.00027948179750983306
1571.1723518915096,1571.1723518915096,0.9999811481746452,0.00027943168703075316
1571.1792965362936,1571.1792965362936,0.9997956992037009,0.00027926089876694615
1571.1862411810775,1571.1862411810775,0.9994830569060118,0.0002791937576679749
1571.193185825908,1571.193185825908,0.9995563787834323,0.00027902876902724066
1571.2001304707858,1571.2001304707858,1.0002025186321863,0.0002789904018381445
1571.2070751156166,1571.2070751156166,1.000552787143031,0.0002788963907703492
1571.214019760447,1571.214019760447,0.9999284214126474,0.00027872292038785774
1571.2209644053244,1571.2209644053244,1.0006405501698192,0.00027876158389089753
1571.2279090501545,1571.2279090501545,0.9998853729263683,0.00027854110259138085
1571.234853695032,1571.234853695032,0.9999299326131128,0.000278409390198119
1571.2417983399102,1571.2417983399102,1.0000422294587885,0.0002782702609112895
1571.2487429848334,1571.2487429848334,0.9997972480777777,0.0002782164525379597
1571.2556876296644,1571.2556876296644,0.9997941810293861,0.0002781016379342108
1571.2626322745873,1571.2626322745873,1.0000336142230188,0.00027803499127619744
1571.269576919511,1571.269576919511,1.0002346718765396,0.0002779473408929268
1571.2765215644358,1571.2765215644358,1.00006958135832,0.0002778258440979672
1571.283466209313,1571.283466209313,1.0002020836302672,0.0002776804578112029
1571.2904108542366,1571.2904108542366,0.999827632678963,0.00027759984097695063
1571.29735549916,1571.29735549916,1.000605878308602,0.00027756748990462896
1571.3043001440838,1571.3043001440838,1.0002349356616997,0.00027741176678507633
1571.3112447890544,1571.3112447890544,0.999214365952314,0.00027717909740839505
1571.3181894339323,1571.3181894339323,0.9997903300578702,0.00027711459655961704
1571.3251340789025,1571.3251340789025,0.9998285491629713,0.0002770241338500889
1571.3320787238258,1571.3320787238258,0.9997803586815566,0.0002768786838308697
1571.3390233687962,1571.3390233687962,1.0005131599352879,0.0002769217769760298
1571.3459680137198,1571.3459680137198,1.000150227752627,0.00027680084986103816
1571.352912658691,1571.352912658691,1.000146443441904,0.00027665777488867946
1571.359857303661,1571.359857303661,0.9999879172131075,0.00027651163949261577
1571.3668019485854,1571.3668019485854,0.99992511921879,0.0002763725614614102
1571.373746593555,1571.373746593555,0.9998063919526523,0.0002762469867552945
1571.3806912385253,1571.3806912385253,0.9997651852941738,0.0002761299411177003
1571.387635883496,1571.387635883496,1.0002221815940717,0.0002760767263855782
1571.3945805284202,1571.3945805284202,0.9997703175124766,0.0002759853892504771
1571.4015251733904,1571.4015251733904,1.000119257250639,0.0002758438421428933
1571.4084698183603,1571.4084698183603,1.0002834338174416,0.0002757412487668223
1571.4154144632844,1571.4154144632844,0.9998827796372944,0.00027561300835281103
1571.4223591082543,1571.4223591082543,0.9998547624421736,0.0002755521061313773
1571.4293037532254,1571.4293037532254,1.0000604893101719,0.0002755052311969624
1571.4362483981959,1571.4362483981959,0.9994054231024293,0.0002753997362267598
1571.4431930431194,1571.4431930431194,1.000295229668276,0.00027538584719501136
1571.4501376880896,1571.4501376880896,1.0001807910443528,0.0002752464464452715
1571.4570823330134,1571.4570823330134,0.9998876938059617,0.0002751860883488301
1571.464026977984,1571.464026977984,1.0000748438400506,0.0002751596371690597
1571.470971622955,1571.470971622955,1.0002133830256295,0.00027513037385754014
1571.4779162678785,1571.4779162678785,0.9997955182536025,0.00027515232260198633
1571.4848609128483,1571.4848609128483,1.0003936057756064,0.00027513045202630875
1571.4918055577723,1571.4918055577723,1.0000899605742373,0.00027513564458147123
1571.4987502026956,1571.4987502026956,0.9995491653200428,0.0002750548959358637
1571.5056948476206,1571.5056948476206,0.9997118274088447,0.00027512154120606285
1571.5126394925442,1571.5126394925442,1.00005151991994,0.00027510323581068994
1571.5195841375141,1571.5195841375141,0.9996245012093221,0.00027495759411605544
1571.5265287824382,1571.5265287824382,0.9997894369375186,0.00027499397383942833
1571.5334734273151,1571.5334734273151,1.0004034915690858,0.0002750466520781054
1571.5404180722392,1571.5404180722392,0.9999666781935446,0.00027494102239079994
1571.5473627171637,1571.5473627171637,1.0000804432676649,0.00027489374293924887
1571.5543073620404,1571.5543073620404,1.0003422295235826,0.00027491604451729105
1571.5612520069176,1571.5612520069176,1.0004917448272415,0.0002749578091508888
1571.5681966518412,1571.5681966518412,0.9999217248539042,0.00027492826973916066
1571.5751412966715,1571.5751412966715,0.9995312500651454,0.0002749029485096424
1571.5820859415962,1571.5820859415962,0.9996986386481874,0.00027481534380447787
1571.5890305864732,1571.5890305864732,0.9999221366040402,0.0002748128107516125
1571.595975231304,1571.595975231304,0.9998866908884434,0.0002748326977871888
1571.6029198761812,1571.6029198761812,1.0000574834645106,0.00027480121402588076
1571.6098645210109,1571.6098645210109,0.999583841509071,0.00027475639743122684
1571.616809165842,1571.616809165842,1.0002905186271929,0.0002747350888566135
1571.6237538107202,1571.6237538107202,1.0006885750261623,0.0002748068907444375
1571.6306984555504,1571.6306984555504,0.999851793888228,0.0002747535440595858
1571.637643100381,1571.637643100381,1.0000002635826413,0.0002746671165549726
1571.644587745165,1571.644587745165,0.9998410225775313,0.00027467369278161096
1571.6515323899953,1571.6515323899953,1.0003275358065085,0.0002746820043941764
1571.6584770347797,1571.6584770347797,0.9994554398014909,0.00027456013312313776
1571.6654216795646,1571.6654216795646,0.9999688956720373,0.00027458985357759326
1571.6723663243483,1571.6723663243483,1.0000488794492102,0.0002746302035572943
1571.6793109690857,1571.6793109690857,0.9995681117651175,0.0002745215349251421
1571.6862556138694,1571.6862556138694,1.0002813296229323,0.0002745974102074631
1571.6932002586068,1571.6932002586068,0.9999589550323595,0.000274522942489886
1571.7001449033455,1571.7001449033455,1.0001223075915853,0.000274504076634794
1571.7070895480829,1571.7070895480829,0.9997033866371703,0.0002744708562695442
1571.7140341928202,1571.7140341928202,0.9998149422327476,0.0002744802726876394
1571.7209788375108,1571.7209788375108,0.9998140792472988,0.00027445488256275865
1571.7279234822017,1571.7279234822017,1.000207840727807,0.0002743678455564795
1571.7348681268927,1571.7348681268927,1.0002077640742282,0.000274313970549483
1571.7418127715844,1571.7418127715844,0.9998590473707573,0.00027431319824905957
1571.748757416275,1571.748757416275,0.9996522045205545,0.0002742527077195619
1571.7557020608729,1571.7557020608729,0.9999464853464317,0.00027421287388908634
1571.762646705517,1571.762646705517,1.0001278436476575,0.0002741686104891751
1571.7695913501145,1571.7695913501145,1.0003586232497057,0.000274119977836652
1571.776535994759,1571.776535994759,0.9999857430355439,0.00027405050270051166
1571.783480639358,1571.783480639358,0.9997625282854419,0.0002739944736381802
1571.7904252840021,1571.7904252840021,0.9997708075575986,0.0002740180105640058
1571.7973699285994,1571.7973699285994,1.0001875746449107,0.0002739950312378684
1571.8043145731506,1571.8043145731506,1.0000417532885277,0.0002739405539897643
1571.811259217748,1571.811259217748,1.0001465838289072,0.00027391164474463686
1571.818203862253,1571.818203862253,0.9999315346412487,0.0002739089010475401
1571.8251485068054,1571.8251485068054,1.0002425214211232,0.0002738726405184178
1571.8320931513094,1571.8320931513094,0.9996681575203074,0.0002738282364360417
1571.839037795814,1571.839037795814,0.999948661171206,0.00027382030087878925
1571.8459824403187,1571.8459824403187,0.9998743253982522,0.0002738698407141043
1571.8529270847762,1571.8529270847762,0.9997427480799411,0.00027376803390076514
1571.8598717292352,1571.8598717292352,1.0007025973533479,0.00027380193497397547
1571.8668163736938,1571.8668163736938,0.9997957694434542,0.00027375405313211055
1571.8737610181047,1571.8737610181047,1.0002387727612476,0.0002737724102787397
1571.8807056625167,1571.8807056625167,0.9996400099049894,0.00027366033498780736
1571.8876503069746,1571.8876503069746,0.9997488677702183,0.00027366199805131664
1571.8945949513388,1571.8945949513388,1.0001198265961453,0.0002736627199409367
1571.9015395957513,1571.9015395957513,1.000248042705796,0.00027373008577086645
1571.9084842400698,1571.9084842400698,0.9999684936555024,0.0002737392411499774
1571.9154288844347,1571.9154288844347,1.000016793735171,0.00027369393425325943
1571.922373528753,1571.922373528753,0.999861231253232,0.00027366533962203316
1571.9293181730711,1571.9293181730711,0.9997800882453731,0.0002737315704217952
1571.9362628173894,1571.9362628173894,1.0006966929618202,0.0002736947167660568
1571.9432074616616,1571.9432074616616,0.9998171358321063,0.00027366634219155904
1571.9501521059342,1571.9501521059342,1.0000813097069992,0.0002736850379136886
1571.957096750159,1571.957096750159,0.999824962709044,0.0002736148571760254
1571.9640413943841,1571.9640413943841,1.0000477870641309,0.0002736365451851433
1571.9709860386095,1571.9709860386095,0.9999534960057936,0.00027360490912867506
1571.9779306828807,1571.9779306828807,1.0001201903321504,0.00027357884779988625
1571.9848753270137,1571.9848753270137,0.9996855788311511,0.0002735565290374575
1571.991819971193,1571.991819971193,0.9994678762477985,0.0002736108326755339
1571.9987646153245,1571.9987646153245,1.0000652506262608,0.0002735556074111231
1572.0057092595032,1572.0057092595032,1.0002188219882215,0.00027352782721118657
1572.012653903542,1572.012653903542,1.0004264292010805,0.000273572432329308
1572.0195985475807,1572.0195985475807,0.9999360506196325,0.00027346630553425945
1572.0265431918533,1572.0265431918533,0.999840639246743,0.00027346291841059105
1572.0334878358924,1572.0334878358924,1.0003212724704738,0.00027345356121367075
1572.0404324799315,1572.0404324799315,1.0000437532910542,0.00027339699815947404
1572.0473771239706,1572.0473771239706,1.0001744954415128,0.0002734625785598037
1572.0543217678696,1572.0543217678696,0.9996735957088128,0.0002733355800692185
1572.061266411815,1572.061266411815,0.9999721554430655,0.0002733928624027912
1572.0682110558548,1572.0682110558548,1.000052660163548,0.0002733666916867053
1572.075155699801,1572.075155699801,0.9999573322019041,0.0002733776208887907
1572.0821003437002,1572.0821003437002,0.9997374842930817,0.0002733537706936525
1572.0890449876456,1572.0890449876456,0.9996592593580831,0.00027338615624849426
1572.0959896315449,1572.0959896315449,0.9999996733226674,0.0002733632432389662
1572.1029342753975,1572.1029342753975,1.000442055485746,0.0002734302991358092
1572.1098789192504,1572.1098789192504,1.0006008632804257,0.0002733647736327393
1572.1168235631042,1572.1168235631042,1.0001055348875043,0.00027334081969696076
1572.12376820691,1572.12376820691,0.9994468757508581,0.0002732735542553356
1572.1307128507158,1572.1307128507158,1.000197886342463,0.00027329266561164866
1572.1376574944752,1572.1376574944752,0.999928526056601,0.00027334648996768984
1572.144602138235,1572.144602138235,0.9997147626065033,0.00027327471450885996
1572.1515467819477,1572.1515467819477,0.9999300447911162,0.000273367554319174
1572.1584914256619,1572.1584914256619,0.9999163553556576,0.00027331381170813036
1572.1654360693747,1572.1654360693747,1.0000747765956863,0.00027332148782821823
1572.1723807130409,1572.1723807130409,1.0004103981377734,0.00027335680576535265
1572.1793253566607,1572.1793253566607,0.9997439357607123,0.0002733105179259161
1572.1862700003269,1572.1862700003269,0.9999331349784594,0.00027328799125921435
1572.1932146439,1572.1932146439,1.0002680140666467,0.0002733518173869716
1572.2001592875208,1572.2001592875208,0.9997946039372388,0.0002733121884969993
1572.2071039310945,1572.2071039310945,1.0000603461110267,0.0002733749091414679
1572.214048574621,1572.214048574621,0.999853161803145,0.00027331502865895265
1572.2209932181474,1572.2209932181474,1.0000177404127029,0.00027328461751159665
1572.2279378616277,1572.2279378616277,0.9997840752696258,0.00027321795330324035
1572.234882505154,1572.234882505154,1.0001433374733653,0.00027324523069723126
1572.241827148635,1572.241827148635,1.000223877793777,0.00027330153986979995
1572.2487717920226,1572.2487717920226,0.9997920775899292,0.0002732048741379793
1572.2557164354093,1572.2557164354093,0.9999408566528691,0.0002733135831115658
1572.2626610788427,1572.2626610788427,0.9999140519645072,0.0002732201354827917
1572.2696057221833,1572.2696057221833,1.0004833324525138,0.00027322866856667303
1572.276550365524,1572.276550365524,1.0000122742215616,0.0002732254341586386
1572.283495008864,1572.283495008864,0.9999984376275993,0.00027318079318981096
1572.290439652159,1572.290439652159,0.9998698541823163,0.00027311099310297894
1572.297384295406,1572.297384295406,0.9997302160108799,0.0002730745021024047
1572.3043289386535,1572.3043289386535,1.0000988284306058,0.00027314157346408846
