time,time,flux,flux_err
1468.2792338770262,1468.2792338770262,1.0000113645227493,0.00027080418537037576
1468.286872820197,1468.286872820197,1.0000182865502423,0.0002472867425683146
1468.2938173138853,1468.2938173138853,1.000127540939402,0.000247307931369021
1468.300761807574,1468.300761807574,0.9999240047211249,0.0002471684950566646
1468.307706301123,1468.307706301123,1.0001736745439895,0.0002473046364364145
1468.314650794579,1468.314650794579,0.9994872136602199,0.0002471463500188989
1468.3215952878945,1468.3215952878945,1.0002249221838144,0.0002472463327734827
1468.3285397812106,1468.3285397812106,1.0005379035245001,0.0002472927321843774
1468.3354842743872,1468.3354842743872,1.0001112213257892,0.00024730090384298244
1468.3424287674704,1468.3424287674704,1.000187729200271,0.00024728043726982506
1468.349373260507,1468.349373260507,0.9996894981915508,0.00024717126383572906
1468.3563177533572,1468.3563177533572,1.0001777753088419,0.0002472598026823433
1468.3632622461614,1468.3632622461614,0.999489883925705,0.000247221767007363
1468.3702067389654,1468.3702067389654,0.9999065049455342,0.0002472556364180078
1468.3771512315827,1468.3771512315827,1.0002463200701803,0.0002472546708912642
1468.3938180135665,1468.3938180135665,0.9998334619334482,0.00024715638734634966
1468.4007625058584,1468.4007625058584,0.9999868277407236,0.00024720664835894604
1468.4077069980574,1468.4077069980574,1.000466293225747,0.0002472090107897367
1468.4146514902554,1468.4146514902554,1.0000665393170802,0.00024724402716847464
1468.4215959823139,1468.4215959823139,0.9998288048130387,0.00024725123404429223
1468.42854047428,1468.42854047428,0.9996134161954527,0.00024717619318154015
1468.435484966199,1468.435484966199,0.9999464150303687,0.00024723404051314263
1468.4424294579783,1468.4424294579783,0.9999929427319435,0.00024722531909326077
1468.4493739497113,1468.4493739497113,0.999743327761838,0.000247169086992048
1468.4563184413043,1468.4563184413043,1.0002175710534917,0.0002472777278231097
1468.4632629327577,1468.4632629327577,1.0003953286459693,0.000247288670028274
1468.4702074242116,1468.4702074242116,1.0000935840748428,0.0002472042724148692
1468.477151915525,1468.477151915525,0.9997884812404593,0.00024718293694251184
1468.4840964067917,1468.4840964067917,1.0001665371401218,0.00024721985352741435
1468.491040897966,1468.491040897966,0.999944393985009,0.0002472168673207667
1468.4979853890475,1468.4979853890475,0.9997486130516056,0.0002471770993813301
1468.5049298799884,1468.5049298799884,0.9999633766326284,0.000247271137580586
1468.5118743708829,1468.5118743708829,1.0003687139888366,0.0002472416662922511
1468.5188188616376,1468.5188188616376,0.9996674493209046,0.0002471730528951818
1468.5257633523925,1468.5257633523925,1.0002980744316632,0.0002472987851193825
1468.532707843008,1468.532707843008,1.0001863660904096,0.00024722985647036486
1468.5396523335767,1468.5396523335767,0.9996673584479406,0.0002472171997626825
1468.5465968240055,1468.5465968240055,0.9998611538500043,0.00024717757245207387
1468.5535413142948,1468.5535413142948,0.9997814810518492,0.0002471124815766758
1468.5604858045842,1468.5604858045842,1.0000972937278256,0.00024718397872094944
1468.5674302946875,1468.5674302946875,1.0001056820171659,0.0002472256419988785
1468.5743747847903,1468.5743747847903,1.0000703837617746,0.00024720699770733654
1468.5813192747532,1468.5813192747532,1.0001302657083235,0.0002471440848075161
1468.588263764624,1468.588263764624,1.0001326030930613,0.0002472579906237308
1468.595208254494,1468.595208254494,0.9998178936961821,0.0002471570605834968
1468.602152744225,1468.602152744225,1.0002320984642439,0.00024718528033061384
1468.6090972338154,1468.6090972338154,0.9999907005774865,0.000247223979244752
1468.616041723359,1468.616041723359,0.9999191898828104,0.0002471000158485609
1468.6229862127639,1468.6229862127639,1.0000443073634417,0.0002472619602230202
1468.6299307020756,1468.6299307020756,0.9997525780934403,0.0002472327431485036
1468.636875191387,1468.636875191387,0.9999883912124392,0.00024724584957958083
1468.6438196806046,1468.6438196806046,0.9997410794657412,0.0002472055662744803
1468.6507641696837,1468.6507641696837,1.0002759412705957,0.00024722595371914284
1468.6577086587156,1468.6577086587156,1.000034331921966,0.0002472322452054274
1468.6646531476076,1468.6646531476076,0.9999951339060399,0.00024721335374834266
1468.6715976364535,1468.6715976364535,0.999923309320401,0.0002471901376389508
1468.6785421251593,1468.6785421251593,0.9998260579780028,0.00024724565947138613
1468.6854866138187,1468.6854866138187,1.0004419649466583,0.00024730173728725914
1468.6924311023388,1468.6924311023388,1.0001611235334438,0.0002471935519620243
1468.699375590812,1468.699375590812,0.9997412103426451,0.00024721401716589327
1468.7063200791451,1468.7063200791451,1.0000832201552157,0.0002472074094650914
1468.7132645675254,1468.7132645675254,0.9998804958006765,0.0002471877780340525
1468.7202090556725,1468.7202090556725,0.9998720878458398,0.00024721806365088166
1468.7271535438201,1468.7271535438201,0.9997146835423493,0.00024717646448859027
1468.7340980317344,1468.7340980317344,1.0000245066682756,0.0002472257510004295
1468.7410425196954,1468.7410425196954,1.0003280674727326,0.00024723518327892264
1468.7479870075163,1468.7479870075163,1.0002203089548467,0.0002472679421915307
1468.7549314952912,1468.7549314952912,0.9999735761449143,0.00024726271104320586
1468.761875982973,1468.761875982973,1.000032938021772,0.00024723701449979663
1468.7688204705148,1468.7688204705148,0.9997974891452515,0.0002471676080717038
1468.7757649579635,1468.7757649579635,0.9998564473062824,0.0002471858294502905
1468.7827094453653,1468.7827094453653,1.0000099296258984,0.0002472121658413821
1468.7896539326746,1468.7896539326746,0.9999234919785522,0.0002472276291509782
1468.7965984198904,1468.7965984198904,1.0003530460334484,0.0002472993747310798
1468.8035429069666,1468.8035429069666,1.0002691409111764,0.0002472559451707298
1468.810487394136,1468.810487394136,1.0000538499142044,0.0002471945538187535
1468.8174318809793,1468.8174318809793,1.000004996326406,0.0002472149506265894
1468.8243763678697,1468.8243763678697,1.0002030668986266,0.00024731548681915927
1468.8313208545733,1468.8313208545733,0.9999474320946075,0.0002471544200667802
1468.8382653412768,1468.8382653412768,0.9998199211013976,0.00024715968105409436
1468.8452098278874,1468.8452098278874,0.9999068233607697,0.0002472568464622089
1468.852154314358,1468.852154314358,0.99984961049229,0.0002472706222114681
1468.8590988007359,1468.8590988007359,1.0000261050412669,0.00024727552533031314
1468.8660432871138,1468.8660432871138,1.0000533970414556,0.00024738088301960227
1468.8729877733517,1468.8729877733517,0.999908909920047,0.0002472401933891552
1468.87993225945,1468.87993225945,0.9999321099997239,0.00024725322581412186
1468.8868767455483,1468.8868767455483,1.0001521882052515,0.00024727583088692635
1468.8938212314604,1468.8938212314604,1.0002559420856598,0.00024730281923157973
1468.9007657174657,1468.9007657174657,1.0000053884062525,0.0002471464710120501
1468.9077102031447,1468.9077102031447,1.0001150611393466,0.0002472329138775866
1468.9146546888708,1468.9146546888708,1.0000907513948072,0.00024729400951813753
1468.9215991744568,1468.9215991744568,0.9997440423625698,0.0002472013984011039
1468.9285436599498,1468.9285436599498,1.0003987461069939,0.00024731835938595893
1468.9354881453964,1468.9354881453964,0.9997719997475404,0.0002471579944022345
1468.942432630796,1468.942432630796,1.0000306480085568,0.0002473290053333374
1468.9493771160558,1468.9493771160558,1.000097432002018,0.0002472614954650932
1468.9563216011766,1468.9563216011766,1.000036218904346,0.0002472669218914598
1468.9646549832746,1468.9646549832746,0.9997099163052313,0.0002472337532155307
1468.9715994682551,1468.9715994682551,1.0006118385122558,0.0002473100412312653
1468.9785439530963,1468.9785439530963,0.9998529950627477,0.00024732810270270474
1468.9854884379372,1468.9854884379372,0.9996768642843886,0.0002472576684995633
1468.9924329225923,1468.9924329225923,0.9998583936267662,0.000247303822617949
1468.9993774072468,1468.9993774072468,1.0002159950015597,0.00024726050957531333
1469.006321891762,1469.006321891762,0.9998533335501645,0.0002471691953117809
1469.0132663762301,1469.0132663762301,0.9998719619105652,0.0002472162903373746
1469.0202108606059,1469.0202108606059,1.000087820630592,0.0002473046615957321
1469.0271553448415,1469.0271553448415,1.0000167700500835,0.00024730943770782997
1469.0340998289842,1469.0340998289842,1.000158504357151,0.0002472590954813678
1469.04104431308,1469.04104431308,0.9999874276454517,0.0002472449411308071
1469.0479887970826,1469.0479887970826,0.9999470556652422,0.0002472524503667526
1469.0549332809926,1469.0549332809926,1.0000252034628878,0.00024723964043823056
1469.0618777648092,1469.0618777648092,0.9999726086383687,0.00024715576572954324
1469.0688222485328,1469.0688222485328,0.999918902780313,0.0002472176563164022
1469.0757667321632,1469.0757667321632,1.0001425493766392,0.0002472214768823689
1469.0827112156535,1469.0827112156535,1.0002682476637514,0.00024722800250984845
1469.0896556991443,1469.0896556991443,0.9998046888515366,0.00024721927670553036
1469.096600182635,1469.096600182635,0.9999128913295113,0.00024712861675980875
1469.1035446658927,1469.1035446658927,1.000156634193779,0.0002472547357843077
1469.1104891490572,1469.1104891490572,0.9996807836225747,0.0002471743675774948
1469.1174336321758,1469.1174336321758,0.9999318614573823,0.0002472139748121014
1469.1243781152473,1469.1243781152473,1.000352677602747,0.000247219327722963
1469.131322598179,1469.131322598179,0.9997999859463766,0.0002472476790375048
1469.1382670810174,1469.1382670810174,0.999995448387389,0.0002472153640396021
1469.1452115637635,1469.1452115637635,1.0001526479272644,0.00024723403600907136
1469.152156046462,1469.152156046462,1.0000198528732016,0.0002473351757026996
1469.1591005290215,1469.1591005290215,0.9996434617556483,0.00024728670587322526
1469.1660450114875,1469.1660450114875,1.0002900195261808,0.00024735268747129837
1469.172989494,1469.172989494,1.0000858545900768,0.0002472110619487779
1469.1799339762806,1469.1799339762806,1.0001051099563207,0.00024727438126517765
1469.186878458467,1469.186878458467,0.9996959394698252,0.00024722151021648906
1469.1938229406537,1469.1938229406537,0.9998428435470533,0.0002472350238600713
1469.200767422701,1469.200767422701,1.0002324613449693,0.0002472046743208635
1469.2077119046548,1469.2077119046548,0.9998269506109049,0.0002472445638972652
1469.2146563865624,1469.2146563865624,1.000161805467988,0.0002472750491935086
1469.2216008682833,1469.2216008682833,0.9998468632027029,0.0002472695117396831
1469.228545350051,1469.228545350051,1.0000433154058208,0.0002472321424415166
1469.2354898316323,1469.2354898316323,1.0001801314719145,0.00024724375179783033
1469.242434313214,1469.242434313214,0.9996974636938182,0.00024724995451469553
1469.2493787946091,1469.2493787946091,1.000252363387437,0.0002472756391488314
1469.2563232759574,1469.2563232759574,1.0001454741833922,0.0002472624247937748
1469.263267757306,1469.263267757306,0.9998825484849535,0.00024720976384180906
1469.2702122384685,1469.2702122384685,1.0001447917736281,0.00024724558633197364
1469.2771567194911,1469.2771567194911,0.9995424510782639,0.0002472131369391982
1469.284101200514,1469.284101200514,1.0004236743213872,0.000247335093233172
1469.291045681397,1469.291045681397,0.9998135442688456,0.00024722177000890445
1469.2979901622796,1469.2979901622796,1.0003173945801564,0.00024728052387058976
1469.3049346429757,1469.3049346429757,0.999873680456637,0.00024718514240225614
1469.3118791236266,1469.3118791236266,0.9996962041973478,0.00024718766125382443
1469.31882360423,1469.31882360423,1.0000908127349657,0.00024729131209796966
1469.3257680846473,1469.3257680846473,0.9997287003758129,0.0002472917944282903
1469.3327125650642,1469.3327125650642,1.0000918597454789,0.00024727592013475976
1469.339657045342,1469.339657045342,0.9999081885820523,0.00024720553341882
1469.346601525573,1469.346601525573,1.0003965534443409,0.00024725016460455445
1469.3535460056642,1469.3535460056642,1.0000852556964586,0.00024720455637098455
1469.3604904856627,1469.3604904856627,1.0001291340156508,0.0002472709226311172
1469.3674349656608,1469.3674349656608,0.9998988227781472,0.0002472150913937942
1469.3743794455656,1469.3743794455656,0.9997089818180047,0.00024720456748033535
1469.3813239253311,1469.3813239253311,0.9999840632890182,0.0002472813031467895
1469.38826840505,1469.38826840505,1.0001078233743095,0.0002472373768915235
1469.3952128845824,1469.3952128845824,0.999710802646257,0.00024724126580990885
1469.4021573640684,1469.4021573640684,0.9997022714618062,0.0002472325006844784
1469.4091018435076,1469.4091018435076,1.0001848904479531,0.0002472066828699777
1469.4160463228538,1469.4160463228538,1.0000996929949655,0.0002473193895409666
1469.4229908021068,1469.4229908021068,0.9998827795510319,0.00024714249475021714
1469.4299352812668,1469.4299352812668,1.0000849359310542,0.0002472602271866165
1469.436879760334,1469.436879760334,1.0000328854938172,0.0002471923301275245
1469.4438242393542,1469.4438242393542,1.0001332374685463,0.0002472324619415875
1469.4507687181879,1469.4507687181879,0.999706016369103,0.00024718249784245897
1469.4577131970223,1469.4577131970223,1.000437026911483,0.00024728607488649055
1469.464657675763,1469.464657675763,0.9996782052377645,0.0002471859881604215
1469.4716021544107,1469.4716021544107,1.0001491296045875,0.0002472052555998499
1469.4785466329654,1469.4785466329654,0.9999260552295739,0.0002473039793148769
1469.4854911114267,1469.4854911114267,0.9998467920130203,0.0002472628139031819
1469.4924355897952,1469.4924355897952,0.9998711425470607,0.00024731544060669237
1469.4993800681173,1469.4993800681173,1.000201537850843,0.0002472829196612861
1469.506324546253,1469.506324546253,1.0003196099393865,0.00024733124034773845
1469.5132690243418,1469.5132690243418,0.99985000019128,0.00024721950623361445
1469.5202135024304,1469.5202135024304,0.9997497169193468,0.00024724492052907124
1469.527157980333,1469.527157980333,0.9999757493173332,0.00024727733016064395
1469.534102458143,1469.534102458143,1.00017651353033,0.0002473282604788708
1469.541046935999,1469.541046935999,1.0001770134265673,0.00024725771307655816
1469.547991413669,1469.547991413669,0.9999087064420917,0.0002471994929940514
1469.5549358911521,1469.5549358911521,0.99991310160591,0.00024730147130172785
1469.5618803686823,1469.5618803686823,0.9997643366515101,0.00024732023553358963
1469.5688248461197,1469.5688248461197,1.000019978339963,0.0002472634981511271
1469.5757693234634,1469.5757693234634,1.0002150342219858,0.00024726185197579675
1469.5827138006675,1469.5827138006675,0.9996323123380074,0.0002473151958903635
1469.5896582778255,1469.5896582778255,1.000026120206605,0.0002472368056234386
1469.5966027548898,1469.5966027548898,1.0002594249196934,0.00024732099927520255
1469.6035472318613,1469.6035472318613,1.000216037271072,0.00024729139819229306
1469.6104917087396,1469.6104917087396,1.0001642493027194,0.00024723116811272805
1469.6174361855713,1469.6174361855713,0.9998149620516456,0.00024728438954950925
1469.6243806622635,1469.6243806622635,0.999696494262413,0.0002472329215861649
1469.6313251389086,1469.6313251389086,1.0001140499540178,0.00024724980096175927
1469.6382696155074,1469.6382696155074,0.9997819521529703,0.0002471930203243115
1469.6452140918732,1469.6452140918732,1.0000484104904486,0.00024723612470920885
1469.652158568286,1469.652158568286,1.0004026541657542,0.0002472670890100525
1469.6591030445127,1469.6591030445127,0.9998749692975812,0.0002472957804562593
1469.6660475207386,1469.6660475207386,0.9999675255221305,0.0002472529028211039
1469.672991996825,1469.672991996825,0.9996933834592644,0.0002472327874553468
1469.679936472865,1469.679936472865,1.0001022515848923,0.0002473935215741187
1469.6868809487655,1469.6868809487655,1.000521809662119,0.0002473250293108058
1469.6938254246193,1469.6938254246193,0.9997420132924354,0.00024721396973479966
1469.7007699003802,1469.7007699003802,0.9999877178046107,0.00024720609415099183
1469.7077143760475,1469.7077143760475,1.0001580221394413,0.000247281247624581
1469.7146588516218,1469.7146588516218,0.9994844529514605,0.0002471825460902726
1469.7216033270565,1469.7216033270565,1.0000018950109602,0.00024726522638757377
1469.7285478025847,1469.7285478025847,0.9999292149621727,0.0002472436181680286
1469.7354922778334,1469.7354922778334,1.000296076679582,0.0002472669861126163
1469.7424367530814,1469.7424367530814,1.0003096649599559,0.0002473068267072476
1469.7493812282362,1469.7493812282362,0.999970806159143,0.00024729468786055336
1469.7563257032525,1469.7563257032525,0.999786925642381,0.0002472055275719729
1469.7632701782682,1469.7632701782682,1.0000285100730504,0.0002473346623604079
1469.7702146531437,1469.7702146531437,0.9995637408471131,0.0002472216019453081
1469.7771591279732,1469.7771591279732,1.0000895019322207,0.00024725323199907545
1469.784103602616,1469.784103602616,1.0002775411111315,0.00024731929462390635
1469.791048077306,1469.791048077306,1.0002312757973708,0.0002473117419656409
1469.797992551809,1469.797992551809,0.9999168546664198,0.0002472229004688106
1469.8049370262659,1469.8049370262659,1.0001612005739955,0.00024727201960935525
1469.8118815006765,1469.8118815006765,0.999939903766573,0.0002471962237882142
1469.8188259748538,1469.8188259748538,0.9999830957717283,0.0002472277473856087
1469.8257704490309,1469.8257704490309,0.9995637203584877,0.0002472504818843892
1469.8327149232084,1469.8327149232084,0.9998534877730151,0.0002472128898169093
1469.8396593971995,1469.8396593971995,0.9999475570091494,0.00024734697090101986
1469.8466038711445,1469.8466038711445,1.0004864386143661,0.00024731343247650863
1469.8535483449493,1469.8535483449493,0.9999703487634207,0.00024734651529745104
1469.8604928187538,1469.8604928187538,0.999954491903179,0.00024729955662540406
1469.8674372924193,1469.8674372924193,0.9999838570339168,0.0002472659273312188
1469.874381765991,1469.874381765991,0.999918216076856,0.00024727971993140625
1469.8813262395167,1469.8813262395167,1.0002346171858472,0.00024734538219478434
1469.8882707129028,1469.8882707129028,1.0000197253025371,0.0002473062915685497
1469.8952151862416,1469.8952151862416,1.0003209809691231,0.00024731859968217475
1469.9021596594412,1469.9021596594412,0.9996290834239643,0.0002472770505842176
1469.9091041326406,1469.9091041326406,1.0002563388858494,0.0002473215062989436
1469.916048605654,1469.916048605654,0.9999039030823015,0.0002473089746348773
1469.922993078667,1469.922993078667,1.0001042588930393,0.00024738804707440944
1469.9299375514943,1469.9299375514943,0.99999531411302,0.0002472865206191645
1469.9368820243212,1469.9368820243212,1.0000474923761407,0.00024729849129562285
1469.9438264970547,1469.9438264970547,0.9998647071200706,0.0002472653710660649
1469.950770969649,1469.950770969649,0.9998130162846308,0.0002472916547245987
1469.957715442197,1469.957715442197,1.000139095622491,0.0002472629139442119
1469.964659914698,1469.964659914698,0.9999485748024011,0.00024728813618664
1469.9716043870128,1469.9716043870128,1.0003249666008598,0.0002472691321386402
1469.978548859281,1469.978548859281,0.9999347607166131,0.0002472739970923909
1469.9854933315023,1469.9854933315023,1.0002033866476905,0.0002473126591581087
1469.992437803631,1469.992437803631,0.9995764550824455,0.00024735468424901756
1469.9993822756198,1469.9993822756198,1.000039289598328,0.0002472279112578544
1470.006326747609,1470.006326747609,1.000131727924329,0.00024729847667463343
1470.013271219458,1470.013271219458,0.999866064776205,0.00024720759817000294
1470.0202156911669,1470.0202156911669,1.0001762100788663,0.0002473788034578686
1470.0271601628297,1470.0271601628297,0.9999749937823863,0.00024731211010708894
1470.0341046344463,1470.0341046344463,1.0002118573294971,0.00024735957947569513
1470.041049105923,1470.041049105923,0.9999309686131544,0.0002473632940446721
1470.0479935773528,1470.0479935773528,0.9998987880153667,0.000247327992379383
