time,time,flux,flux_err,quality,centroid_col,centroid_row
2559.1401207859803,2559.1401207859803,1.0004251015360763,3.923450344585907e-05,0,824.7174662821363,997.5383313587299
2559.264758094786,2559.264758094786,0.9995958335119829,3.580311557368619e-05,0,824.5226257450438,997.5400963076625
2559.3750926908688,2559.3750926908688,0.999323180948168,3.5764136124957665e-05,0,824.281530904617,997.545267644044
2559.5058596162316,2559.5058596162316,1.001608162331142,3.573860166483348e-05,2048,824.5449606406786,997.5163983312802
2559.620280660344,2559.620280660344,1.0003028624821975,3.580802727144718e-05,0,824.6137120830538,997.504106420018
2559.7306152403603,2559.7306152403603,0.9993633972311471,3.5773219656264624e-05,0,824.3413121540088,997.5176077965258
2559.8450362076865,2559.8450362076865,1.0000128964574437,3.5691123595933605e-05,8192,824.1784548776811,997.526259415314
2560.0125812695856,2560.0125812695856,1.0011603283372246,3.5709041733140604e-05,0,824.5466040133254,997.4934680827555
2560.1310886749766,2560.1310886749766,0.9996136481489698,3.573202079492082e-05,0,824.3213368395964,997.5083244263384
2560.2659419830393,2560.2659419830393,1.000716864857593,3.571655651926717e-05,0,824.5897999624046,997.4841774073568
2560.376276404894,2560.376276404894,0.999753269112699,3.571669451501416e-05,0,824.336510737252,997.5008703055964
2560.511129567135,2560.511129567135,0.9999273093214376,3.567679167999716e-05,0,824.2503920716324,997.5041251245964
2560.70319322469,2560.70319322469,1.0019234934966121,3.557307065198644e-05,0,824.5027254408903,997.4799027331603
2560.846219285784,2560.846219285784,0.9998623169963409,3.5715991752262975e-05,0,824.535622007138,997.4737081017058
2560.9647265714766,2560.9647265714766,1.0000136848561214,3.564375441313419e-05,0,824.4816806410032,997.475222630053
2561.091406732812,2561.091406732812,1.0003182325078512,3.5708077391448804e-05,0,824.6955833060194,997.4591678224535
2561.2017410676344,2561.2017410676344,0.9999733336035337,3.5696012007670945e-05,0,824.5575538510966,997.4664095210146
2561.3161618016647,2561.3161618016647,0.9999705203404285,3.570270265331925e-05,0,824.5253598133291,997.4683160110695
2561.422409668013,2561.422409668013,0.9999709017998327,3.5621021521146834e-05,0,824.2838227037848,997.4841026155175
2561.540916861227,2561.540916861227,0.9998217034904131,3.56882474541415e-05,0,824.4674158824689,997.4713262909861
2561.643078221804,2561.643078221804,1.001217785306303,3.55504022766054e-05,2048,824.0950618276589,997.49703459806
2561.7656718319645,2561.7656718319645,0.999635372492128,3.566585868787347e-05,0,824.3970747728829,997.4747052181419
2561.900524774831,2561.900524774831,1.0008079142370587,3.555117164589765e-05,0,824.4359734337302,997.4706679845318
2562.051723482183,2562.051723482183,1.0002330114307676,3.5685017298173386e-05,0,824.7271326324986,997.4493620441426
2562.1579711820827,2562.1579711820827,0.9997001175785121,3.56674497513388e-05,0,824.4625797141082,997.4677723384837
2562.2764782766462,2562.2764782766462,0.9998029034168334,3.567453558624513e-05,0,824.5033535136857,997.464662972249
2562.378639535242,2562.378639535242,1.000874293503811,3.554651253688658e-05,2048,824.1169337231213,997.4942370655077
2562.5012330427476,2562.5012330427476,0.9998373163491348,3.5676075112365426e-05,0,824.5216235919419,997.4634187468773
2562.6156535932837,2562.6156535932837,1.0004779255163645,3.556472201119758e-05,0,824.2589529696697,997.4827685604948
2562.766852173301,2562.766852173301,0.9998933185559423,3.5673904430960025e-05,8192,824.4648955937603,997.4662747967523
2562.88127266323,2562.88127266323,1.0013179695122567,3.5558870168941894e-05,2048,824.2662138701953,997.4811822179294
2563.0120389602307,2563.0120389602307,1.0004245409766923,3.567079933367498e-05,0,824.8093116645734,997.4374068723176
2563.1142001177795,2563.1142001177795,0.9999579297678662,3.567560848434436e-05,8192,824.5117529129975,997.4599925773116
2563.2367935443062,2563.2367935443062,1.0004063490882718,3.5656458208064426e-05,0,824.8479444888666,997.4347890221104
2563.338954631216,2563.338954631216,0.9999380092924071,3.567526451303859e-05,0,824.5138207102034,997.4611847160202
2563.4574614774638,2563.4574614774638,0.999900254567225,3.5672499376712996e-05,0,824.5224724381002,997.4606459038862
2563.5637089973156,2563.5637089973156,0.9996317394330282,3.561179050742132e-05,0,824.2859919786704,997.4769320171847
2563.6985616363613,2563.6985616363613,1.000371729662339,3.5647641202823916e-05,0,824.519770166271,997.4596778457433
2563.808895544034,2563.808895544034,0.9994295305133761,3.5624230932146124e-05,0,824.3191322699716,997.4741032368071
2563.923315935454,2563.923315935454,1.0003919839339157,3.5589668615539095e-05,0,824.2952058685636,997.4755396086906
2564.0336498702513,2564.0336498702513,1.0011105120670274,3.550680762736976e-05,0,824.1193222657952,997.4883228124027
2564.2175396386533,2564.2175396386533,1.0003829605562076,3.5675389624982105e-05,0,824.772689928635,997.4391200999244
2564.319700632755,2564.319700632755,0.9997651830174007,3.565518947542027e-05,0,824.4240150142836,997.4632225589028
2564.4382073657093,2564.4382073657093,0.9998774411768316,3.565540345484117e-05,0,824.4423329549481,997.4614946016414
2564.5444547480975,2564.5444547480975,1.0008392937246153,3.5521301036085126e-05,0,824.1408494211412,997.4839285029142
2564.7079122505734,2564.7079122505734,1.000262964947365,3.567785219967134e-05,0,824.7471769514392,997.4369131239488
2564.810073179388,2564.810073179388,0.9997237789203774,3.562786596650063e-05,0,824.3434811035593,997.4678504775299
2564.9449255975223,2564.9449255975223,1.0004462381284154,3.5642923852413457e-05,0,824.6516027283755,997.4399856881562
2565.0552593250786,2565.0552593250786,0.9999394414101902,3.567608711919277e-05,0,824.5396419445572,997.4478196412426
2565.173765944317,2565.173765944317,1.00010572719154,3.5677171038542844e-05,0,824.6596507054024,997.4409170104952
2565.2800132651914,2565.2800132651914,0.9999250289426547,3.56760119077533e-05,0,824.4861915340134,997.4554377828696
2565.394433376726,2565.394433376726,0.9999694822854502,3.5658171730145305e-05,0,824.4972176987936,997.4541584399116
2565.504767059926,2565.504767059926,0.9998487704192269,3.563069698475791e-05,0,824.3396299004871,997.4646568927341
2565.6151007666426,2565.6151007666426,1.001153915318468,3.557678534880019e-05,2048,824.2209520901615,997.4734322905636
2565.729520869655,2565.729520869655,1.0002329852523022,3.557505579812623e-05,0,824.2091819766072,997.473855962107
2565.897064550285,2565.897064550285,1.0008421839269457,3.563311030821271e-05,0,824.5325776538187,997.4482819919149
2566.015571002956,2566.015571002956,0.9997317309830628,3.564268686444975e-05,0,824.3826604636286,997.4592882806292
2566.1299910865505,2566.1299910865505,1.0002826099175492,3.563903710143357e-05,8192,824.4603299596204,997.4524876500379
2566.2403246658155,2566.2403246658155,0.9998008128775326,3.563935404984378e-05,0,824.3606682770584,997.4595869282945
2566.3670039400663,2566.3670039400663,1.0003915673835468,3.5608364151217354e-05,0,824.3231892307406,997.4616809578547
2566.4855103411187,2566.4855103411187,1.0003625162920955,3.556669121906047e-05,0,824.1884303797096,997.4718404398302
2566.6367081752164,2566.6367081752164,1.0008330202798177,3.562200813926083e-05,0,824.655589971448,997.4354770715001
2566.751128130054,2566.751128130054,0.9996455777248754,3.5661786824150074e-05,0,824.507676340555,997.4463592406146
2566.877807322441,2566.877807322441,0.9999475464090922,3.5645472468534445e-05,0,824.5921506425839,997.4367518980947
2566.9963136672186,2566.9963136672186,1.0000322993027404,3.568384352875271e-05,8192,824.6212820768964,997.4328014581372
2567.1107335488778,2567.1107335488778,1.0000425969402191,3.567245578155984e-05,0,824.6683457515064,997.4307705517513
2567.2210669916108,2567.2210669916108,0.9999358185441857,3.5682155292213254e-05,0,824.6183847786948,997.4351367492836
2567.3314003981404,2567.3314003981404,0.9997853943744864,3.565892201068651e-05,8192,824.6216588513158,997.4350885249054
2567.445820292675,2567.445820292675,1.0001438570420942,3.5686195035178854e-05,0,824.7715889998393,997.4219197088742
2567.5520673067717,2567.5520673067717,0.9997239541879084,3.5661031987624595e-05,8192,824.629820292888,997.4333877108527
2567.670573530874,2567.670573530874,0.999944233048885,3.566013620835783e-05,0,824.8996840090301,997.4115806109545
2567.7727340747747,2567.7727340747747,1.0001068379888427,3.5688391083289154e-05,0,824.6912562479505,997.4271523295547
2567.874894585824,2567.874894585824,0.9996171042805038,3.565091166586623e-05,0,824.4155688182348,997.4477144851422
2567.9770551038355,2567.9770551038355,1.0009363099584216,3.551693849028099e-05,0,824.1145442240698,997.4716059137008
2568.1405118339403,2568.1405118339403,0.9998811343384656,3.564875309871653e-05,0,824.3615811711188,997.4510476551841
2568.2467587567676,2568.2467587567676,1.0016840791036432,3.5541553483441205e-05,2048,824.0884780220667,997.4729607253894
2568.3856970277266,2568.3856970277266,0.9998400333866819,3.566504694229839e-05,0,824.448614227265,997.442226070409
2568.4878574615677,2568.4878574615677,1.0002988555774253,3.555684925385721e-05,0,824.1701136025891,997.4641727901426
2568.630882087845,2568.630882087845,1.0000044346025896,3.569071331685805e-05,0,824.606695862786,997.4302675007297
2568.733042470952,2568.733042470952,0.9997610353577876,3.5619426288269874e-05,0,824.3004282004383,997.4531211823966
2568.8515485227604,2568.8515485227604,1.0003676851930174,3.566158880445949e-05,0,824.6131801608987,997.4252634554147
2568.9577952736654,2568.9577952736654,1.0000701062182626,3.5694791158508485e-05,8192,824.5801940124318,997.4278305560359
2569.07221493891,2569.07221493891,1.0000393031106303,3.567808362776386e-05,0,824.7066184610055,997.4178383357815
2569.1825481552833,2569.1825481552833,1.0001839506123813,3.570213422614354e-05,0,824.7216464453129,997.4185771816203
2569.305140554282,2569.305140554282,0.9999618054573857,3.5687223004382564e-05,8192,824.707626746624,997.4196609441094
2569.4685971218482,2569.4685971218482,1.00026526537274,3.570012085015482e-05,0,824.7308327594089,997.4147082262161
2569.5707573816735,2569.5707573816735,1.0004075493672635,3.568730354322436e-05,0,824.5187674675972,997.4307628020504
2569.672917649112,2569.672917649112,0.9995000969488009,3.5628143218730114e-05,0,824.3048151860414,997.4483320889937
2569.783250745114,2569.783250745114,1.0002245062263353,3.5611801317951895e-05,0,824.2879071087124,997.4493031815462
2569.8976702974805,2569.8976702974805,0.9997366771091418,3.564421766498399e-05,0,824.3316120855015,997.4454820163495
2570.016176202582,2570.016176202582,1.0005313312840929,3.5617966013683455e-05,0,824.3748413944104,997.4416071012953
2570.1428549107486,2570.1428549107486,1.000030580904594,3.5700627008693745e-05,8192,824.5866181774896,997.4244380051489
2570.249101556903,2570.249101556903,0.9997421974371461,3.565466844214175e-05,0,824.5302869324347,997.4274554322437
2570.3676073736688,2570.3676073736688,0.9999774788461953,3.567326089834841e-05,0,824.9449489353289,997.3930314319181
2570.469767584435,2570.469767584435,1.0002661145058092,3.570578511795228e-05,0,824.7782451813731,997.4079199218298
2570.571927742909,2570.571927742909,1.0001464754362153,3.57059959087914e-05,8192,824.6146226023162,997.4202853726256
2570.6740879490885,2570.6740879490885,0.999784515306845,3.567041538191957e-05,0,824.428148640829,997.4345854151497
2570.7885073203843,2570.7885073203843,0.999831202465365,3.566312518147597e-05,0,824.6883717861089,997.4106729668956
2570.8988403115654,2570.8988403115654,1.0001332645994954,3.569188721509205e-05,0,824.8642977666889,997.392876384731
2571.001000478724,2571.001000478724,1.0002105155476593,3.5712910482014116e-05,0,824.7419245945327,997.4058568840844
2571.1031605535873,2571.1031605535873,1.000122628385213,3.57245074395473e-05,0,824.6210023237787,997.416744867179
2571.205320676438,2571.205320676438,0.999890282842153,3.5694652553707414e-05,8192,824.5105308076024,997.4252145137522
2571.32791280384,2571.32791280384,0.9997002837772996,3.5656163396531743e-05,0,825.0133636906069,997.3821694713437
2571.4300728800545,2571.4300728800545,1.0000862325770365,3.5702912560776936e-05,0,824.8523674359478,997.3937930083646
2571.532232944161,2571.532232944161,1.0000921585882527,3.571518067702005e-05,0,824.6940388372474,997.4066151316636
2571.6343930363482,2571.6343930363482,0.9999263601000706,3.5695744240078734e-05,0,824.5165931123311,997.423252138706
2571.7447258787506,2571.7447258787506,0.9998616898011068,3.566635269741783e-05,0,824.6010767896363,997.4149988062779
2571.859145128858,2571.859145128858,1.0000706358593399,3.5705707749764466e-05,0,824.8321176543684,997.3946331846595
2571.9613051424867,2571.9613051424867,1.0001466878742058,3.571582532662357e-05,8192,824.6547852466981,997.4110898250249
2572.0634651645682,2572.0634651645682,0.9998646124341445,3.5681176547048864e-05,0,824.4437194246309,997.427301421907
2572.1656251746344,2572.1656251746344,1.0000067822712415,3.561360353770969e-05,0,824.2370936893665,997.4439114246554
2572.2841307278345,2572.2841307278345,1.0002026454750117,3.568123971074836e-05,0,824.5133051569053,997.4199273386569
2572.3903771308906,2572.3903771308906,0.9999022059961169,3.566708634502565e-05,0,824.4148306287403,997.4270178052111
2572.5047962760596,2572.5047962760596,1.00018565775607,3.567780284660394e-05,8192,824.5328643656806,997.4180667961737
2572.6151290099633,2572.6151290099633,1.0001509185160378,3.5714953239933525e-05,0,824.6107925145309,997.4110796897861
2572.7336345424424,2572.7336345424424,0.9995744505798638,3.5642512137962364e-05,8192,824.78754891329,997.394907581511
2572.860312873215,2572.860312873215,0.999441403894928,3.562730383828519e-05,0,825.1125732675752,997.3617512477225
2572.962472771268,2572.962472771268,1.000036051434647,3.568713179264531e-05,8192,824.9710569317101,997.3766032055346
2573.064632677773,2573.064632677773,1.0002454822854694,3.5713211069657136e-05,0,824.8526571196708,997.3894286275012
2573.1667925526344,2573.1667925526344,1.0001791750825657,3.572231787352242e-05,0,824.7112619727637,997.40160591566
2573.268952435763,2573.268952435763,1.0000272031512882,3.570352344909662e-05,0,824.5350117223776,997.4148729235873
2573.371112287436,2573.371112287436,0.9998786591638696,3.567468745959601e-05,0,824.4079304044974,997.4242031036047
2573.4855312872487,2573.4855312872487,0.9996916690703005,3.565261431269389e-05,8192,824.7685540899671,997.3915141057089
2573.5958639604532,2573.5958639604532,0.9999847171787641,3.5674334653226894e-05,0,825.0108662866575,997.3724258842831
2573.698023795153,2573.698023795153,1.0001633879841973,3.5702308169515105e-05,0,824.9385603455815,997.3789081497383
2573.8001835983973,2573.8001835983973,1.0002322648344142,3.571652895141745e-05,0,824.8210616640166,997.3875456685485
2573.902343410185,2573.902343410185,1.0002625737283526,3.5723413309152606e-05,0,824.6803753644748,997.3997404180722
2574.004503190519,2574.004503190519,1.000225921517261,3.571626674642011e-05,0,824.5761444424963,997.4082322407694
2574.1066629794905,2574.1066629794905,1.0000149376546363,3.569580660830269e-05,0,824.4827006984094,997.4156643423818
2574.2210819069164,2574.2210819069164,0.999302165560626,3.561688096447505e-05,8192,824.89148927528,997.3810118951271
2574.331414411086,2574.331414411086,0.9991262224370809,3.562163324989679e-05,0,825.1407384972226,997.358989297191
2574.4335741838267,2574.4335741838267,0.9997837417357592,3.567125957259168e-05,0,825.0345165277195,997.3667560304318
2574.5439067220127,2574.5439067220127,1.0000808597578983,3.571209724472681e-05,0,824.8873461441314,997.3805602775759
2574.6664983715773,2574.6664983715773,1.0001266606642598,3.572865246875312e-05,0,824.767026655862,997.3892209566036
2574.801349188047,2574.801349188047,1.0001432778262687,3.5725053619028645e-05,0,824.7714774982853,997.386858980147
2574.9035088890087,2574.9035088890087,1.0002925587620022,3.57282901073871e-05,8192,824.7142606805861,997.390367519444
2575.0056685387945,2575.0056685387945,1.0000655145537125,3.572605799480696e-05,0,824.6370190575115,997.4004331769523
2575.107828197403,2575.107828197403,0.9999858867893838,3.57115097911089e-05,0,824.5369111672528,997.40784314703
2575.2263333872716,2575.2263333872716,0.9997225463412921,3.569119322332491e-05,0,824.9107291868529,997.3744291670607
2575.332579467322,2575.332579467322,1.0000234206091363,3.570418541456107e-05,0,824.9503712270518,997.3715334276465
2575.4347391306337,2575.4347391306337,1.0000002733392752,3.5718410815440727e-05,0,824.8394364047763,997.3806011643453
2575.5368987227703,2575.5368987227703,1.0001044907074106,3.572854056822606e-05,0,824.7573577769597,997.387972984828
2575.639058343916,2575.639058343916,1.000143781566718,3.5733156974745206e-05,0,824.676949681156,997.3951521636839
2575.741217934074,2575.741217934074,0.9999539643583144,3.5723335802444794e-05,0,824.5924130299034,997.400038331329
2575.8433774934265,2575.8433774934265,0.9999828585618843,3.5691504870382034e-05,0,824.4416437552339,997.4113676741244
2575.961882611374,2575.961882611374,0.9997942249576879,3.568687556441493e-05,8192,824.8525732276178,997.3748864784087
2576.0681285692817,2576.0681285692817,0.9999399360740948,3.5710140646186194e-05,0,824.9092847142971,997.3677413449502
2576.1702881537117,2576.1702881537117,0.9999836223421115,3.572584137632988e-05,0,824.794000338012,997.3801578894172
2576.272447727338,2576.272447727338,1.000066583623555,3.573159768264962e-05,0,824.674055370036,997.3912619667715
2576.3746072301597,2576.3746072301597,0.9999799150335196,3.571664779901462e-05,0,824.5623075955142,997.399203997738
2576.4767667420847,2576.4767667420847,1.0000686126567653,3.569115711471912e-05,0,824.4314434636814,997.4098653114313
2576.5789262435806,2576.5789262435806,1.0001457843101824,3.5648303798692876e-05,8192,824.2816309294398,997.4222044315615
2576.713776768197,2576.713776768197,1.0000727965531677,3.570188947842455e-05,0,824.7307884815515,997.3794717797407
2576.824109022913,2576.824109022913,1.0000160091117003,3.572814231137652e-05,0,824.8091907333479,997.3736693485349
2576.9262685077133,2576.9262685077133,0.9998958880820042,3.573613075643817e-05,0,824.7604279592048,997.3799085046237
2577.0284280019914,2577.0284280019914,0.999967254875398,3.5738504259297196e-05,0,824.702357318946,997.3861234495187
2577.1305874856525,2577.1305874856525,0.9998977454960217,3.573620424468125e-05,0,824.6253827698663,997.3918759652645
2577.2327468987874,2577.2327468987874,0.9999899746495586,3.572959692516694e-05,0,824.5633791314416,997.3969991121214
2577.3349063014,2577.3349063014,0.999946152331632,3.5715119666887096e-05,8192,824.4947983496019,997.4018953973713
2577.457497614733,2577.457497614733,1.000011969083617,3.5723072610793067e-05,0,824.9679979868099,997.3594999615538
2577.559657034156,2577.559657034156,1.0001732764198554,3.573435524911922e-05,0,824.9103909491602,997.3650896708263
2577.6618164233323,2577.6618164233323,1.0000328909459717,3.574385316779082e-05,0,824.8477366880595,997.3687182249547
2577.7639758218925,2577.7639758218925,0.9999198420158006,3.5748607645101666e-05,0,824.7683957269631,997.3750408281046
2577.886567122606,2577.886567122606,1.0000440954254093,3.5749084113815264e-05,0,824.6578935149926,997.3859178372965
2577.988726458256,2577.988726458256,0.9999603784190384,3.5727415356492234e-05,0,824.5481770823937,997.3947904656634
2578.094972157209,2578.094972157209,0.9996527122791461,3.56972785621627e-05,0,824.5609981066627,997.3919264017019
2578.2134770047005,2578.2134770047005,0.9999513226859682,3.5713276371601225e-05,0,825.0129899389513,997.3516120490522
2578.3156363675675,2578.3156363675675,1.000149383752798,3.574154194483515e-05,0,824.8665377478144,997.366152294617
2578.4177956601443,2578.4177956601443,1.0000933270624532,3.5752036703549175e-05,0,824.7595441636525,997.3763174004487
2578.519954982522,2578.519954982522,1.0000342247979452,3.575241436257612e-05,0,824.7101452275332,997.3794511370579
2578.6343734487805,2578.6343734487805,1.0001867009446008,3.574889147562016e-05,8192,824.7922633128019,997.3707098846786
