time,time,flux,flux_err
1517.3653991564388,1517.3653991564388,1.0002064827082104,0.00022072839517255639
1517.374890116023,1517.374890116023,0.9999961608848833,0.00019948749115509143
1517.3818347209997,1517.3818347209997,0.9999219237837249,0.00019793679734655668
1517.3887793263962,1517.3887793263962,0.9999389655895407,0.00019662952777956024
1517.396001716345,1517.396001716345,0.9998074155882397,0.00019542089615772542
1517.4040574594405,1517.4040574594405,0.9998719795023809,0.00019412501143668376
1517.411002065954,1517.411002065954,1.0001134406233758,0.0001931752156999371
1517.4179466727937,1517.4179466727937,0.9999043448548897,0.00019223873054836712
1517.424891280052,1517.424891280052,1.0001195759239372,0.00019138982350677672
1517.4318358874975,1517.4318358874975,0.999834060159784,0.00019063114987566702
1517.4387804954076,1517.4387804954076,1.000215018732274,0.00018989597589415036
1517.445725103458,1517.445725103458,0.9999357172974715,0.00018924623315509363
1517.4526697119272,1517.4526697119272,1.0000370245873984,0.00018863423175087367
1517.459614320676,1517.459614320676,0.999790564791647,0.00018808483669759842
1517.4665589297506,1517.4665589297506,1.0001894079590223,0.00018761686412272367
1517.473503539012,1517.473503539012,0.9998621257620994,0.00018707847368879942
1517.4804481485985,1517.4804481485985,1.0000213069368367,0.00018671121797633479
1517.4873927585118,1517.4873927585118,0.9998882870564886,0.0001861830140033821
1517.4943373687506,1517.4943373687506,1.0001262337884973,0.00018583647450816276
1517.5012819790823,1517.5012819790823,1.0001352468517406,0.00018545268086453976
1517.5082265897406,1517.5082265897406,1.0000213063047145,0.00018507720731130855
1517.5151712006314,1517.5151712006314,1.0000278871595065,0.00018472793172718047
1517.5221158118015,1517.5221158118015,1.0001922185408458,0.0001843827132123435
1517.5290604232046,1517.5290604232046,0.9999651740351796,0.00018409471268868925
1517.5360050348404,1517.5360050348404,0.9998658886831964,0.00018378344978155968
1517.5429496467555,1517.5429496467555,0.9997534114860688,0.00018350492635596267
1517.5498942588572,1517.5498942588572,1.0000051507781489,0.00018323220578238473
1517.556838871145,1517.556838871145,1.0000081066654234,0.0001829617214620564
1517.563783483712,1517.563783483712,0.9999774772294494,0.00018273159164075456
1517.570728096419,1517.570728096419,0.9999642388180938,0.00018250395748839351
1517.5776727093585,1517.5776727093585,1.0003945312431426,0.00018236031658704812
1517.584617322578,1517.584617322578,0.9997892337608004,0.00018206236724708998
1517.59156193589,1517.59156193589,0.9999258150640372,0.00018188276323487668
1517.5985065493885,1517.5985065493885,0.9999940406168488,0.00018171870761980177
1517.6054511631664,1517.6054511631664,1.0001358564111387,0.00018153582759770532
1517.6123957770374,1517.6123957770374,1.0001731751600569,0.00018141282673215424
1517.6193403911413,1517.6193403911413,0.9998892741392863,0.00018124381360541406
1517.6262850053852,1517.6262850053852,0.9998058446421194,0.00018104593263876587
1517.6332296198611,1517.6332296198611,0.9999383389714979,0.00018088732751746136
1517.6401742344774,1517.6401742344774,1.0000427879096727,0.00018079469643777381
1517.6471188491864,1517.6471188491864,1.0002642252734237,0.00018067141405065165
1517.6540634641287,1517.6540634641287,0.9996864180722589,0.0001805105839418487
1517.6610080792107,1517.6610080792107,1.0000763483766542,0.00018036715371445579
1517.6679526944783,1517.6679526944783,1.000310068544529,0.0001802652652382358
1517.6748973098397,1517.6748973098397,0.9998288219367193,0.00018013700634876445
1517.6818419254334,1517.6818419254334,1.0002246630529434,0.00018002936650466544
1517.6887865410276,1517.6887865410276,0.9999594626418615,0.00017986471634788903
1517.6957311569008,1517.6957311569008,0.9995691220895058,0.0001797144383830283
1517.7026757727745,1517.7026757727745,0.99978441950538,0.00017957049789459973
1517.7096203889269,1517.7096203889269,1.000512279448304,0.00017948581754304377
1517.7165650050797,1517.7165650050797,1.0000417036179126,0.00017938284196192857
1517.7235096214185,1517.7235096214185,0.999498908606118,0.0001791591997932263
1517.7304542378977,1517.7304542378977,1.0002428118631108,0.00017909081783808444
1517.737398854423,1517.737398854423,1.0000863566195217,0.00017897142155505336
1517.7443434711345,1517.7443434711345,0.9997767092809831,0.00017883927675602752
1517.751288087939,1517.751288087939,1.0002736003568535,0.00017873312641061365
1517.7582327048835,1517.7582327048835,0.999952016335661,0.00017860179929051829
1517.7651773218745,1517.7651773218745,1.000243740825486,0.00017851423420364585
1517.7721219389587,1517.7721219389587,1.0002732272823756,0.0001784583786789299
1517.7790665562757,1517.7790665562757,1.0000028148313151,0.00017828794722681175
1517.7860111735922,1517.7860111735922,0.9998017801954392,0.00017815908162891202
1517.7929557910024,1517.7929557910024,1.0002824420395053,0.0001780829380606601
1517.7999004085057,1517.7999004085057,1.0000198859027474,0.00017799180252397532
1517.8068450261485,1517.8068450261485,0.9997008471903754,0.00017790017705889412
1517.813789643838,1517.813789643838,1.0001172235572877,0.00017786048530678988
1517.8207342616206,1517.8207342616206,1.000022261700448,0.0001777149442708829
1517.8276788795429,1517.8276788795429,1.0001380654651615,0.00017761900726474014
1517.8346234974651,1517.8346234974651,0.9997554098741835,0.0001775847333978499
1517.841568115527,1517.841568115527,1.000146461686451,0.00017750969031592377
1517.8485127336353,1517.8485127336353,1.0001392106962714,0.00017746560656540914
1517.8554573518375,1517.8554573518375,1.000031310309066,0.00017738432660376998
1517.8624019701322,1517.8624019701322,1.0000203064946742,0.00017730535766517972
1517.8693465884267,1517.8693465884267,0.9998501792904172,0.00017725052880385327
1517.8762912068619,1517.8762912068619,1.0000343706693138,0.00017716032635092333
1517.8832358253421,1517.8832358253421,1.0000543390613874,0.00017717971994030466
1517.89018044387,1517.89018044387,1.0001612237762365,0.0001770969116113717
1517.8971250625377,1517.8971250625377,0.9998346184134757,0.0001770372223877078
1517.9040696812049,1517.9040696812049,0.999805809336517,0.0001769751802959617
1517.9110142999186,1517.9110142999186,1.0001280522507074,0.00017696214573575123
1517.9179589187722,1517.9179589187722,1.0000812013334104,0.0001768992463067521
1517.9249035375792,1517.9249035375792,0.9999082936592512,0.00017685744052650613
1517.9318481564792,1517.9318481564792,1.0000438304965538,0.00017683219711607984
1517.9387927754728,1517.9387927754728,0.9998864778600585,0.00017679177174581654
1517.9471263182554,1517.9471263182554,0.9998989217144387,0.00017676411471002717
1517.9540709373882,1517.9540709373882,1.0002932740869022,0.0001767369647420111
1517.961015556475,1517.961015556475,0.9999158939711787,0.00017672524936279384
1517.967960175654,1517.967960175654,0.9999042431562979,0.0001766897441285066
1517.9749047948808,1517.9749047948808,1.0000530480236964,0.00017667466037725053
1517.9818494141532,1517.9818494141532,1.0000653548953604,0.0001766365699325026
1517.9887940333792,1517.9887940333792,1.000009372790642,0.00017657724510789869
1517.9957386527453,1517.9957386527453,1.000089248778084,0.00017656241650587906
1518.0026832721574,1518.0026832721574,0.9999151128096699,0.00017650596768497396
1518.0096278915237,1518.0096278915237,0.9998863011560554,0.00017651593643505903
1518.0165725109825,1518.0165725109825,1.0002232722184166,0.00017648906285400837
1518.0235171305344,1518.0235171305344,0.9999733365893224,0.00017641583621116268
1518.030461749947,1518.030461749947,0.9999103354513934,0.000176388346310583
1518.0374063695922,1518.0374063695922,1.0000694426912733,0.0001763727795276222
1518.044350989237,1518.044350989237,0.9996861980216087,0.00017634699413982905
1518.0512956087427,1518.0512956087427,1.000133885792623,0.00017640226910076019
1518.0582402283414,1518.0582402283414,0.9998605833481463,0.000176284933097348
1518.0651848481725,1518.0651848481725,0.9998853712809964,0.00017624997770569712
1518.0721294678183,1518.0721294678183,1.0004114630613723,0.0001762470693912816
1518.0790740874634,1518.0790740874634,1.0003012123265587,0.00017622383356555402
1518.086018707248,1518.086018707248,0.9998769965698852,0.00017611481153384452
1518.0929633269866,1518.0929633269866,0.9999493426774626,0.00017617540344128715
1518.0999079468181,1518.0999079468181,0.9997664244114134,0.00017609004344237763
1518.1068525666026,1518.1068525666026,0.9998552905860943,0.00017608707959096659
1518.113797186388,1518.113797186388,1.00006049156696,0.00017610230454096192
1518.1207418062659,1518.1207418062659,0.9999124808753809,0.00017603028704858546
1518.127686426144,1518.127686426144,1.0002517984228967,0.0001760430021639186
1518.1346310460224,1518.1346310460224,0.9999290831066416,0.000175997389144497
1518.1415756659,1518.1415756659,1.0000421585098773,0.00017600132273759084
1518.1485202858246,1518.1485202858246,1.000077698125041,0.000175978578170881
1518.1554649057493,1518.1554649057493,1.0000080232894197,0.00017592852053656665
1518.1624095256739,1518.1624095256739,0.9997413367268704,0.00017586089332315944
1518.1693541455984,1518.1693541455984,1.0001077948634085,0.00017592150757748178
1518.17629876557,1518.17629876557,0.9999774780031576,0.00017589900579202097
1518.1832433854943,1518.1832433854943,0.9999381726449856,0.00017585811639663418
1518.1901880054654,1518.1901880054654,0.9999696123849174,0.00017582042638441232
1518.1971326254834,1518.1971326254834,1.0002020214520697,0.00017579068529425897
1518.2040772454075,1518.2040772454075,1.0001343365178135,0.0001758217829203726
1518.2110218654257,1518.2110218654257,1.0000261823459757,0.00017581768073046845
1518.2179664853968,1518.2179664853968,1.0000006906801153,0.00017577276831893922
1518.2249111054145,1518.2249111054145,0.9998184411296922,0.0001757685149767279
1518.2318557253861,1518.2318557253861,0.9998203474545807,0.0001757781617518413
1518.2388003454037,1518.2388003454037,0.9999384336711026,0.000175763795113095
1518.2457449653746,1518.2457449653746,1.000221352992414,0.0001757220330450883
1518.2526895853925,1518.2526895853925,0.9999469603903359,0.00017572640346639594
1518.259634205364,1518.259634205364,1.000058199182154,0.00017581439446055663
1518.2671343949992,1518.2671343949992,0.9999813904726753,0.00017565933147887174
1518.2749123693745,1518.2749123693745,0.9999140774516789,0.00017567528860683846
1518.281856989392,1518.281856989392,0.9999853043585917,0.00017566517828754763
1518.2888016093634,1518.2888016093634,1.0000430186388798,0.00017562668472480205
1518.2957462293348,1518.2957462293348,0.9998160282594079,0.0001756436821315484
1518.302690849306,1518.302690849306,1.0004866415537705,0.00017562964344978096
1518.3099132541097,1518.3099132541097,0.9999115535688723,0.0001756367372114072
1518.3179690132704,1518.3179690132704,0.9999718568251371,0.00017562448529537074
1518.3249136332415,1518.3249136332415,0.9998084934806805,0.00017557378189674483
1518.3318582531665,1518.3318582531665,1.0000497654386664,0.00017559068242859426
1518.3388028730908,1518.3388028730908,1.0003477806437675,0.00017560650920713484
1518.345747493062,1518.345747493062,0.9998101117050222,0.00017556524934379006
1518.3526921129867,1518.3526921129867,0.9997961348925806,0.00017558116935736874
1518.3596367329114,1518.3596367329114,1.000049076450836,0.00017556664016818007
1518.3665813527891,1518.3665813527891,1.0000123851099105,0.00017558667187099917
1518.373525972714,1518.373525972714,1.0000366049072718,0.0001755079773703934
1518.3804705925918,1518.3804705925918,0.9998901329745049,0.00017550009440137228
1518.3874152124702,1518.3874152124702,0.9997468025075875,0.00017549920549735296
1518.3943598323015,1518.3943598323015,1.000078737673594,0.00017549253333023088
1518.4013044521325,1518.4013044521325,0.9998924631206378,0.00017547010524180128
1518.4082490719643,1518.4082490719643,1.0001904532858366,0.00017546354030900955
1518.4163048309395,1518.4163048309395,1.0000371447512069,0.00017543386592257527
1518.4235272355565,1518.4235272355565,1.00002559272778,0.00017548668979135618
1518.4304718552485,1518.4304718552485,1.0002752130242758,0.00017543031776827664
1518.4374164751266,1518.4374164751266,0.9996745062711107,0.00017538331854209606
1518.4443610947715,1518.4443610947715,0.9997857167639383,0.00017545217756856815
1518.4513057145564,1518.4513057145564,0.9997255494660064,0.00017544129896859608
1518.4585281190807,1518.4585281190807,1.0001198796695245,0.00017543321485497947
1518.4665838778692,1518.4665838778692,1.0002777546322754,0.00017538922727722482
1518.473528497514,1518.473528497514,0.9999798915711338,0.000175427814328564
1518.4804731171594,1518.4804731171594,0.9999086878945734,0.00017541320823727144
1518.4874177368047,1518.4874177368047,1.0000273503546344,0.00017546691030012655
1518.49436235645,1518.49436235645,1.000278826178882,0.00017549758450096392
1518.501306976002,1518.501306976002,0.9998146276393559,0.00017538967004821157
1518.5082515955078,1518.5082515955078,1.0000668176657377,0.00017539496414979139
1518.515196215106,1518.515196215106,1.0001458821542855,0.00017537180555597052
1518.5221408345649,1518.5221408345649,1.0000711820081174,0.00017540796401448747
1518.5290854540708,1518.5290854540708,1.0000358139482506,0.00017544299930223796
1518.5360300735758,1518.5360300735758,0.9995317469899978,0.00017539189734277474
1518.5429746929885,1518.5429746929885,0.9996893199867862,0.00017540231511690196
1518.549919312401,1518.549919312401,0.9998682649017573,0.00017545110821842342
1518.556863931813,1518.556863931813,1.0005075271079418,0.00017546315111266836
1518.5638085511791,1518.5638085511791,1.0001004737760826,0.00017542397058939837
1518.5707531705448,1518.5707531705448,0.9999565375455559,0.00017543630362000366
1518.577697789864,1518.577697789864,0.9999129534937048,0.0001754169539244734
1518.5846424091367,1518.5846424091367,1.0000499501627516,0.00017535140428052263
1518.591587028363,1518.591587028363,1.00010366420879,0.00017536540512066496
1518.5985316476354,1518.5985316476354,1.000023020935668,0.00017537827435391018
1518.605476266862,1518.605476266862,0.9998958626364827,0.00017535586350437643
1518.612420886041,1518.612420886041,0.999956344146657,0.00017537050357021574
1518.6193655052207,1518.6193655052207,1.0004532368307384,0.00017546745624438315
1518.6263101243069,1518.6263101243069,0.9999636283287933,0.0001753557795557359
1518.633254743487,1518.633254743487,0.9995227840974538,0.00017545670785552042
1518.6401993625266,1518.6401993625266,0.9996557279326737,0.00017536877245747024
1518.6471439815664,1518.6471439815664,1.0000477925526967,0.00017539110475160667
1518.6540886005598,1518.6540886005598,1.0003008372572573,0.0001753913975938535
1518.6610332195528,1518.6610332195528,1.0001457770552904,0.00017540560718983303
1518.6679778384998,1518.6679778384998,1.0001071866994544,0.00017540815328091986
1518.6749224573998,1518.6749224573998,0.9999806752808716,0.00017541394198236757
1518.6818670763,1518.6818670763,1.0001218605854456,0.00017537893299622115
1518.6888116951534,1518.6888116951534,0.9998624755266254,0.00017536270289209095
1518.6957563139604,1518.6957563139604,0.9999303812992046,0.00017541851947624402
1518.7027009327212,1518.7027009327212,0.9998395396799544,0.00017542214114266112
1518.709645551528,1518.709645551528,1.0000125986891635,0.0001753455585918184
1518.7165901702417,1518.7165901702417,0.9998933092804656,0.00017542944736659603
1518.7235347889095,1518.7235347889095,1.0004361285043248,0.00017536608431172558
1518.730479407623,1518.730479407623,0.9999608949188543,0.00017537602792828364
1518.737424026244,1518.737424026244,1.0000121487436515,0.0001753856914280949
1518.7443686448182,1518.7443686448182,0.9996216979135838,0.00017538767983692015
1518.751313263299,1518.751313263299,1.0001066399120337,0.00017542876477673257
1518.7582578819663,1518.7582578819663,0.9998903700988135,0.00017539077521367893
1518.765202500494,1518.765202500494,1.0001932404106735,0.00017537654925317998
1518.7721471187886,1518.7721471187886,0.9999009887185466,0.00017538347155391423
1518.7790917372236,1518.7790917372236,1.0002423373352949,0.00017542782089540978
1518.7860363557043,1518.7860363557043,0.9996621479125842,0.00017540759954517092
1518.7929809739524,1518.7929809739524,1.0004013042098028,0.00017543457590702931
1518.799925592294,1518.799925592294,1.0000004765028372,0.00017541112174710935
1518.8068702105886,1518.8068702105886,0.9999034190553469,0.00017541587270711252
1518.813814828837,1518.813814828837,0.9997971668894508,0.00017540840927610105
1518.8207594470384,1518.8207594470384,0.9999653062207325,0.0001753715637938574
1518.8277040651938,1518.8277040651938,1.0000271126156774,0.0001753924975823591
1518.834648683302,1518.834648683302,0.9999805534107132,0.0001754257366175728
1518.8415933013644,1518.8415933013644,1.0002742361019679,0.00017542242333943426
1518.8485379194726,1518.8485379194726,0.9997224495779709,0.0001753923051961029
1518.8554825374881,1518.8554825374881,1.0000845046253293,0.00017545344451353446
1518.8624271554568,1518.8624271554568,1.0000442324992567,0.00017544288291221073
1518.8693717733324,1518.8693717733324,0.999960787959987,0.00017542808734073899
1518.8763163912547,1518.8763163912547,1.0000647975837171,0.0001754518891184061
1518.8832610091304,1518.8832610091304,1.0000133176438546,0.00017546381259334986
1518.8902056269599,1518.8902056269599,1.0000949388992588,0.00017541233402857244
1518.8971502447419,1518.8971502447419,0.9999671784217185,0.00017539532604000883
1518.9040948625247,1518.9040948625247,0.9999280087787561,0.0001754581344952338
1518.9110394801676,1518.9110394801676,1.0002219561916623,0.00017540569824500213
1518.917984097857,1518.917984097857,0.9999678428111167,0.00017545308785379206
1518.9249287154532,1518.9249287154532,0.9999858708366578,0.00017548014733870967
1518.9318733330492,1518.9318733330492,1.000064967666939,0.00017546980623170372
1518.9388179505995,1518.9388179505995,0.9999828539801134,0.0001754655599573739
1518.945762568102,1518.945762568102,0.9999665826868893,0.0001754327339595538
1518.9527071855125,1518.9527071855125,0.9999859066295904,0.00017542156423375603
1518.9596518029693,1518.9596518029693,1.0000270649367213,0.00017540675371214084
1518.9665964203791,1518.9665964203791,0.9999439538112581,0.00017539691616885467
1518.9735410376957,1518.9735410376957,1.0002403130418043,0.00017544728684383012
1518.9804856550131,1518.9804856550131,0.999935491782818,0.00017545141710309834
1518.9874302721903,1518.9874302721903,0.999648115019394,0.00017540943695738
1518.9943748894136,1518.9943748894136,1.000101943239579,0.00017540287803404297
1519.0013195065446,1519.0013195065446,1.0002679978001465,0.00017538056639766905
1519.0082641237218,1519.0082641237218,1.0000136250403757,0.00017540924300441316
1519.0152087407591,1519.0152087407591,0.9999651070119231,0.00017547716809005278
1519.022153357843,1519.022153357843,0.9998939121614143,0.0001754250020051995
1519.0290979747876,1519.0290979747876,0.9998405771865478,0.00017539718496274297
1519.0360425917788,1519.0360425917788,1.0002913188194367,0.0001754658371277799
1519.0429872086763,1519.0429872086763,0.9999007387219245,0.00017541007433120789
1519.0499318255274,1519.0499318255274,0.9998811885054,0.000175430578321567
1519.0568764423322,1519.0568764423322,1.000151614834873,0.00017542515624760854
1519.0638210591374,1519.0638210591374,1.0003373643387519,0.00017543808779970645
1519.0707656758948,1519.0707656758948,0.9999166126985248,0.0001754779531144538
1519.0777102925135,1519.0777102925135,0.999661676598304,0.0001753971061775751
1519.0846549091784,1519.0846549091784,0.9999709467940743,0.00017545207311724548
1519.0915995257965,1519.0915995257965,0.9998415439260195,0.00017542044588201612
1519.0985441423218,1519.0985441423218,0.999776720735559,0.00017539848531754692
1519.1054887588473,1519.1054887588473,1.0003043455136016,0.0001754315975577052
1519.112433375326,1519.112433375326,1.000037614561849,0.00017545009262981854
1519.1193779917114,1519.1193779917114,0.9998488585228473,0.00017545709443159607
