time,time,flux,flux_err
1325.2992847067478,1325.2992847067478,0.9987977082578601,0.001031002131052844
1325.3076181056163,1325.3076181056163,1.000179457854207,0.001032839321512147
1325.3152570547834,1325.3152570547834,1.0003233501467659,0.0009443254955868015
1325.3222015541946,1325.3222015541946,1.0006313054610483,0.0009456285461141953
1325.329146053763,1325.329146053763,0.9995347656794594,0.0009466766974675405
1325.3360905534857,1325.3360905534857,1.0010061639172205,0.0009486782735732549
1325.3430350533642,1325.3430350533642,1.0011630097238613,0.0009505306233711125
1325.3499795533955,1325.3499795533955,1.000635013428322,0.0009520463720161743
1325.356924053575,1325.356924053575,1.0004940972184673,0.0009538932469001686
1325.363868553906,1325.363868553906,0.99868614584796,0.0009555594991146268
1325.3708130543873,1325.3708130543873,0.9979947037508881,0.0009575398028980502
1325.3777575550116,1325.3777575550116,1.0019463815645684,0.0009609038171023343
1325.3847020557798,1325.3847020557798,0.9998274682867623,0.0009622047142339373
1325.3916465566926,1325.3916465566926,0.9986648659332251,0.0009640767904265766
1325.398591057748,1325.398591057748,1.000488229635896,0.0009667580441221396
1325.4055355589423,1325.4055355589423,1.000198669558023,0.0009688099225182902
1325.4124800602726,1325.4124800602726,0.999242798025328,0.0009710666671374308
1325.4194245617418,1325.4194245617418,1.0009825263350414,0.0009736944485764616
1325.4263690633447,1325.4263690633447,0.9987608964835841,0.0009757545196651084
1325.4333135650827,1325.4333135650827,0.9999467804446901,0.0009788471578499143
1325.440258066952,1325.440258066952,1.001554555743381,0.000981354833842181
1325.4472025689533,1325.4472025689533,1.000564416527021,0.0009836535161710683
1325.45414707108,1325.45414707108,1.00122572357659,0.0009864223290599456
1325.4610915733347,1325.4610915733347,0.9985340214073324,0.0009883823525789416
1325.4680360757188,1325.4680360757188,0.9994725343185301,0.0009917151498188537
1325.4749805782255,1325.4749805782255,1.000204598627478,0.0009948908924698498
1325.481925080857,1325.481925080857,0.9999908659513025,0.0009986268260489596
1325.4888695836084,1325.4888695836084,1.0001590120816208,0.0010019288089827742
1325.4958140864815,1325.4958140864815,0.9992476402555568,0.001005722959795397
1325.5027585894723,1325.5027585894723,1.0000107318474356,0.001009937053715761
1325.5097030925785,1325.5097030925785,0.9994276304371681,0.001013628989153836
1325.5166475958038,1325.5166475958038,1.000391315570208,0.0010180823243638173
1325.5235920991458,1325.5235920991458,1.000088393629792,0.001022116169114759
1325.5305366025964,1325.5305366025964,1.0010211148847195,0.0010265865209945044
1325.5374811061624,1325.5374811061624,0.9997463728639511,0.0010310553082030524
1325.5444256098376,1325.5444256098376,1.0004156482710918,0.0010356072129142821
1325.5513701136201,1325.5513701136201,0.9997647025633032,0.0010397793368653043
1325.558314617512,1325.558314617512,1.0004860999141032,0.0010446680912049634
1325.5652591215116,1325.5652591215116,0.999152637104037,0.0010484628695314755
1325.5722036256157,1325.5722036256157,1.0003712052137324,0.0010529997664178745
1325.5791481298238,1325.5791481298238,0.9987956249114015,0.0010566986328117962
1325.5860926341343,1325.5860926341343,0.999246227371213,0.0010607580293741732
1325.593037138547,1325.593037138547,1.0011527513930703,0.001064772226728362
1325.5999816430617,1325.5999816430617,0.9994603049812334,0.001067383439842366
1325.606926147671,1325.606926147671,1.0007511755741563,0.0010702506152363885
1325.6138706523793,1325.6138706523793,1.0000818522053574,0.0010726381780527658
1325.6208151571877,1325.6208151571877,0.9988814956845731,0.0010747988131031524
1325.6277596620882,1325.6277596620882,1.0003263719503532,0.0010769151075956304
1325.6347041670845,1325.6347041670845,1.0001903014838098,0.0010779715164213742
1325.6416486721714,1325.6416486721714,0.9975732692295741,0.0010787418102526623
1325.6485931773536,1325.6485931773536,1.000409834920657,0.0010808196420360164
1325.655537682625,1325.655537682625,1.0003406572271083,0.0010819831923665907
1325.662482187988,1325.662482187988,1.0014674522846507,0.0010829800051675492
1325.6694266934358,1325.6694266934358,0.9995283157341067,0.001083022794898865
1325.676371198973,1325.676371198973,0.9991059977674135,0.001084146295117059
1325.6833157045985,1325.6833157045985,1.0000311495780962,0.001085308773000508
1325.6902602103032,1325.6902602103032,0.9999465958858857,0.0010869108803724485
1325.6972047160955,1325.6972047160955,0.9987446519279652,0.001088045818808852
1325.7041492219694,1325.7041492219694,1.001032005748717,0.0010896075134615923
1325.7110937279276,1325.7110937279276,0.9991895418189813,0.0010906329969133392
1325.718038233966,1325.718038233966,1.0006433745409304,0.0010930280312651983
1325.7249827400842,1325.7249827400842,1.0003583123178261,0.0010948182999086986
1325.7319272462794,1325.7319272462794,0.999582370000131,0.001095983319897922
1325.7388717525537,1325.7388717525537,0.998721762095722,0.0010978502992166753
1325.7458162589046,1325.7458162589046,0.9992856442674978,0.001099991090267931
1325.7527607653326,1325.7527607653326,1.0000188850267775,0.001101727122760894
1325.7597052718338,1325.7597052718338,1.0024438868897672,0.0011046179629643532
1325.7666497784103,1325.7666497784103,0.999980165351112,0.0011058863836421503
1325.7735942850586,1325.7735942850586,1.000542942181912,0.001107744277717187
1325.7805387917804,1325.7805387917804,1.0005323437246476,0.00110971349337341
1325.787483298573,1325.787483298573,0.9982853603181594,0.0011108120266888819
1325.7944278054347,1325.7944278054347,0.9992388005244074,0.0011127191608046787
1325.8013723123677,1325.8013723123677,0.9995105006690526,0.0011141329269347161
1325.8083168193666,1325.8083168193666,0.9998260396137368,0.0011151707570026656
1325.8152613264378,1325.8152613264378,1.000996586156103,0.001116782959474666
1325.8222058335693,1325.8222058335693,0.998824606692937,0.0011168271770000482
1325.8291503407697,1325.8291503407697,1.001234248683937,0.001118081168405653
1325.836094848035,1325.836094848035,0.9995055947152223,0.0011178639263153421
1325.8430393553656,1325.8430393553656,1.0004655018980766,0.0011179425468450961
1325.849983862758,1325.849983862758,0.9989465748667211,0.0011169399024310886
1325.8569283702138,1325.8569283702138,0.9998186471859555,0.0011164321658331158
1325.8638728777307,1325.8638728777307,0.9992447388239973,0.0011146020880360252
1325.8708173853072,1325.8708173853072,1.0002028248998478,0.0011129855094001101
1325.8777618929464,1325.8777618929464,1.0000273906215762,0.0011104336773693376
1325.8847064006418,1325.8847064006418,1.0006975519697463,0.0011086249728643324
1325.8916509083988,1325.8916509083988,1.0001133888135487,0.0011070410219018185
1325.8985954162122,1325.8985954162122,1.0011697772317447,0.001105735614881159
1325.9055399240824,1325.9055399240824,0.999160654702129,0.001103585970241772
1325.9124844320081,1325.9124844320081,0.9990285729154044,0.0011021198644975522
1325.9194289399904,1325.9194289399904,1.0006547423292205,0.0011013222188402541
1325.9263734480285,1325.9263734480285,1.0007326731149544,0.0011003009674014597
1325.9333179561195,1325.9333179561195,0.9995271971225355,0.0010994482245344358
1325.9402624642626,1325.9402624642626,1.0003586270151443,0.0010984012628971224
1325.9472069724602,1325.9472069724602,1.0004803645739528,0.0010978411567664332
1325.9541514807072,1325.9541514807072,0.9971959574498349,0.0010966049216902995
1325.961651549677,1325.961651549677,1.0019254017584633,0.0010970625419567796
1325.9694293990347,1325.9694293990347,1.0036516431702356,0.0010970257005189711
1325.9763739074465,1325.9763739074465,0.9997685074204832,0.0010960292409198384
1325.9833184159072,1325.9833184159072,0.9981790640140954,0.0010956032782366517
1325.9902629244134,1325.9902629244134,1.000674864110069,0.001096325521001479
1325.9972074329694,1325.9972074329694,1.000850266145404,0.001096684412102632
1326.0041519415731,1326.0041519415731,0.9984753610929584,0.0010971910797303488
1326.0110964502219,1326.0110964502219,0.9999811349430908,0.0010990151697312285
1326.0180409589175,1326.0180409589175,1.0007462312922057,0.0011004222699493563
1326.0249854676579,1326.0249854676579,1.001035569837752,0.0011017176984636744
1326.0319299764456,1326.0319299764456,0.9997914971777442,0.0011026629360975757
1326.0388744852742,1326.0388744852742,0.9997118582161949,0.0011018765515406457
1326.0458189941462,1326.0458189941462,1.0005943274291644,0.0011010541265780813
1326.0527635030624,1326.0527635030624,0.9987049446707342,0.0011013639099381803
1326.0597080120212,1326.0597080120212,0.9998933936026593,0.0011018823091043972
1326.0666525210208,1326.0666525210208,1.0007089583172655,0.0011024181487655949
1326.0735970300625,1326.0735970300625,0.9999054850171522,0.0011024791463081886
1326.080541539147,1326.080541539147,1.0006963904491362,0.001102744737361686
1326.0874860482668,1326.0874860482668,0.9999586398035554,0.0011030964754307226
1326.0944305574283,1326.0944305574283,0.9994560625434336,0.0011026888731005902
1326.1013750666302,1326.1013750666302,1.000014886412497,0.001103163991612422
1326.1083195758667,1326.1083195758667,0.9997664118166145,0.0011026755724987014
1326.1152640851456,1326.1152640851456,1.0008201406585615,0.0011030581408434114
1326.1222085944605,1326.1222085944605,1.0004056475722796,0.0011028584474767603
1326.1291531038144,1326.1291531038144,0.9983736928395605,0.001101763946145594
1326.1360976131994,1326.1360976131994,1.0011578594530859,0.0011019682581274197
1326.143042122624,1326.143042122624,1.000136818501504,0.0011012588903467524
1326.149986632085,1326.149986632085,0.9981184652947096,0.0011005587480174199
1326.1569311415774,1326.1569311415774,0.9990955430001452,0.0011003574798824425
1326.1638756511074,1326.1638756511074,1.000683326281417,0.0011003632838273991
1326.170820160671,1326.170820160671,1.0012827713589356,0.0011002473246996898
1326.1777646702658,1326.1777646702658,1.00073291405179,0.0010993847405710625
1326.1847091798954,1326.1847091798954,1.0018495616760799,0.001099177269475336
1326.1916536895583,1326.1916536895583,0.9995285867092711,0.0010981288250974564
1326.198598199254,1326.198598199254,0.9982832072550721,0.0010970341421959458
1326.2055427089763,1326.2055427089763,0.9985236257240352,0.0010967401525353074
1326.2124872187362,1326.2124872187362,0.9994769722338844,0.001096743653727166
1326.2194317285225,1326.2194317285225,0.9993618349988711,0.0010966092597341573
1326.2263762383413,1326.2263762383413,1.002052217892617,0.0010966295727865172
1326.2333207481893,1326.2333207481893,1.001223190746656,0.0010961803567484227
1326.2402652580663,1326.2402652580663,0.9997130963762683,0.0010954522792423144
1326.2472097679727,1326.2472097679727,1.0003500943707235,0.0010952274794306393
1326.2541542779077,1326.2541542779077,0.9994040515784173,0.0010944731019108523
1326.2610987878725,1326.2610987878725,0.9989506385659537,0.0010939750904890061
1326.2680432978657,1326.2680432978657,1.0007309653719496,0.0010941652740840558
1326.274987807885,1326.274987807885,0.9989424104590267,0.0010933136993382725
1326.2819323179315,1326.2819323179315,1.0018499834398336,0.001093505437536375
1326.2888768280018,1326.2888768280018,1.0003171068915218,0.0010931764535503502
1326.2958213381014,1326.2958213381014,0.9978503996408088,0.0010922797012934142
1326.3027658482272,1326.3027658482272,1.0000690745426302,0.001092248540456283
1326.3097103583782,1326.3097103583782,1.0006851388045126,0.0010923110041910365
1326.316654868555,1326.316654868555,1.0003128899664744,0.0010920927421697768
1326.3235993787562,1326.3235993787562,0.9996224760654163,0.0010921026511257661
1326.3305438889788,1326.3305438889788,0.9993299470447343,0.0010917196518229187
1326.3374883992292,1326.3374883992292,0.9998845559089974,0.001092412446763276
1326.3444329095007,1326.3444329095007,1.0009833331338651,0.0010929697908254503
1326.3541552239226,1326.3541552239226,1.0018432747685195,0.0010938737178312077
1326.3610997342516,1326.3610997342516,0.9996043668909609,0.0010934925961885327
1326.368044244602,1326.368044244602,1.0003934436007131,0.0010939365928231647
1326.3749887549748,1326.3749887549748,0.9989537474149216,0.0010940129306089355
1326.3819332653718,1326.3819332653718,0.9998967489151548,0.0010941375937473402
1326.388877775787,1326.388877775787,1.0016562585837216,0.001095211433655112
1326.3958222862261,1326.3958222862261,1.0004101532212861,0.001095227986336917
1326.4027667966836,1326.4027667966836,0.9996646727603565,0.0010954893257894107
1326.4097113071646,1326.4097113071646,0.9995864268609364,0.0010958149823792024
1326.4166558176632,1326.4166558176632,0.9986233643770129,0.0010957553956350643
1326.4236003281846,1326.4236003281846,1.0012394476213435,0.001096654816802214
1326.430544838724,1326.430544838724,1.0001210169296635,0.0010968377326571836
1326.4374893492802,1326.4374893492802,0.9996507649393689,0.0010970047742645448
1326.4444338598591,1326.4444338598591,0.9988442024416562,0.001097261523517554
1326.4513783704551,1326.4513783704551,1.0001498552872667,0.00109772240536567
1326.4583228810711,1326.4583228810711,1.0005479247529332,0.0010978575781026008
1326.4652673917037,1326.4652673917037,1.0020459217796602,0.0010984456408624714
1326.472211902355,1326.472211902355,1.0004214756075842,0.0010982616164752189
1326.4791564130235,1326.4791564130235,0.999792439958515,0.0010987660278308025
1326.4861009237095,1326.4861009237095,0.9981523716609544,0.0010980683706549527
1326.4930454344103,1326.4930454344103,0.9982481294359354,0.0010984328844944374
1326.49998994513,1326.49998994513,1.00077382613229,0.0010993133593859609
1326.5069344558665,1326.5069344558665,0.9999067477729955,0.0010995453567058308
1326.51387896662,1326.51387896662,1.0017831666445445,0.0011004385065739556
1326.5208234773877,1326.5208234773877,0.9987079348872332,0.0011002754307432594
1326.5277679881715,1326.5277679881715,1.0006754322387295,0.001101821208921212
1326.534712498971,1326.534712498971,1.0011224387832833,0.0011029995293465968
1326.5416570097852,1326.5416570097852,0.9989326528250337,0.0011029752569019417
1326.5486015206138,1326.5486015206138,1.0015154167943394,0.0011046410641422483
1326.5555460314586,1326.5555460314586,0.9998657258896536,0.0011044131578093756
1326.5624905423151,1326.5624905423151,0.9979089433309409,0.0011042659340771408
1326.569435053189,1326.569435053189,0.9995480573280311,0.0011047310981238342
1326.5763795640762,1326.5763795640762,1.0001648141671045,0.0011051154302727357
1326.5833240749757,1326.5833240749757,1.0004863898946594,0.0011056310616096765
1326.5902685858891,1326.5902685858891,0.9993244246492783,0.0011053389736954136
1326.5972130968169,1326.5972130968169,1.0008925517445886,0.0011061635996492587
1326.6041576077564,1326.6041576077564,1.0005030934485895,0.0011065003575891712
1326.6111021187103,1326.6111021187103,1.0007770888243723,0.0011065494596671467
1326.6180466296742,1326.6180466296742,1.0000237647985526,0.0011065322895349094
1326.6249911406514,1326.6249911406514,0.9992051511751086,0.001106450894610991
1326.6319356516415,1326.6319356516415,0.9992498104454789,0.0011061879876538433
1326.6388801626422,1326.6388801626422,1.0003491951828216,0.0011064427572096856
1326.645824673654,1326.645824673654,0.9997097352765136,0.0011061258468339072
1326.652769184678,1326.652769184678,1.000553748101405,0.0011050594051487095
1326.659713695715,1326.659713695715,0.9986792779115963,0.001104404378682247
1326.6666582067617,1326.6666582067617,1.0007403774643466,0.0011043398557441602
1326.6736027178179,1326.6736027178179,1.0010527598755312,0.0011032429661317652
1326.680547228885,1326.680547228885,0.9991982948339644,0.0011015912956281431
1326.6883250812957,1326.6883250812957,1.000439985318643,0.0011010188400143578
1326.69582515327,1326.69582515327,0.9997970038753892,0.001099745912394149
1326.7027696643695,1326.7027696643695,0.9994212123839142,0.0010983873271710658
1326.7099919559255,1326.7099919559255,1.0011008955285292,0.0010977793767213302
1326.718047588826,1326.718047588826,0.9983208991346324,0.0010964362264993873
1326.7249920999548,1326.7249920999548,0.9997290124977315,0.0010956150042898257
1326.7319366110937,1326.7319366110937,1.0019012995755983,0.0010952017290150886
1326.7388811222424,1326.7388811222424,1.0014499386302962,0.0010945399129903062
1326.7458256333987,1326.7458256333987,0.9990146166236187,0.001092824947573627
1326.7527701445658,1326.7527701445658,0.9993445698497793,0.0010922227993110877
1326.7597146557387,1326.7597146557387,0.9992768660341615,0.0010912993497900032
1326.766659166922,1326.766659166922,0.9995529588440754,0.001091040507509197
1326.773603678109,1326.773603678109,0.9985213993891829,0.001090456019177162
1326.7805481893104,1326.7805481893104,1.0004683511116694,0.0010904136138691425
1326.7874927005146,1326.7874927005146,1.0020588019191967,0.0010906471626339572
1326.7944372117277,1326.7944372117277,1.0009334539896222,0.0010906262524089103
1326.8013817229491,1326.8013817229491,1.0003924365386176,0.001090166349624157
1326.8083262341736,1326.8083262341736,1.0001476647073901,0.0010902916918296914
1326.8152707454096,1326.8152707454096,1.0001286938000118,0.0010904569631887257
1326.8222152566518,1326.8222152566518,0.997119621749025,0.001089745102381879
1326.8291597678995,1326.8291597678995,1.0002976967575126,0.001090221823842939
1326.8361042791535,1326.8361042791535,1.0005588195836892,0.0010904826445511985
1326.843048790413,1326.843048790413,1.000400775983507,0.0010902088496560552
1326.8499933016797,1326.8499933016797,1.0000357804053916,0.0010900872621466143
1326.856937812952,1326.856937812952,1.0017950536282902,0.0010897435215169618
1326.8638823242309,1326.8638823242309,0.998927439257629,0.0010882477198786145
1326.870826835515,1326.870826835515,0.9974918354222222,0.0010868531705816628
1326.877771346802,1326.877771346802,0.9996001611643152,0.0010861510958739581
1326.884715858098,1326.884715858098,1.000309992498659,0.0010846495077724266
1326.8916603693967,1326.8916603693967,1.0010884945784118,0.0010835450822441566
1326.8986048807028,1326.8986048807028,1.0001832759017768,0.0010817231047886944
1326.9055493920132,1326.9055493920132,1.0016750597589863,0.0010799991637101141
1326.9124939033277,1326.9124939033277,1.0000986756605856,0.0010775823683363485
1326.9194384146472,1326.9194384146472,1.0007636172776477,0.0010758670255364105
1326.9263829259703,1326.9263829259703,0.9986406932341954,0.0010728380112064594
1326.9333274372989,1326.9333274372989,0.9985973998713089,0.0010711074689505296
1326.9402719486293,1326.9402719486293,1.0001647201091053,0.0010698813346103355
1326.9472164599672,1326.9472164599672,0.9996524394045834,0.001067904069751883
1326.954160971307,1326.954160971307,0.999917858186606,0.0010664436947639112
1326.9611054826496,1326.9611054826496,1.0001527485608226,0.0010647694220039952
1326.9680499939964,1326.9680499939964,1.0011511109902056,0.0010633228856268121
1326.9749945053472,1326.9749945053472,0.9991037881919367,0.001061768577876561
1326.9819390167015,1326.9819390167015,1.0000503949187984,0.0010609632937482955
1326.9888835280585,1326.9888835280585,1.000729075077777,0.001059962148561654
1326.9958280394203,1326.9958280394203,0.9983091364092583,0.0010587755424301957
1327.0027725507825,1327.0027725507825,1.001783080182615,0.001058739822579559
1327.0097170621484,1327.0097170621484,0.9998521818297534,0.0010578266910076914
1327.0166615735168,1327.0166615735168,0.9999444260108794,0.0010578123105921308
1327.0236060848915,1327.0236060848915,0.998262353703921,0.0010574967775057805
1327.0305505962601,1327.0305505962601,1.0004263625284922,0.0010577425492060146
1327.0374951076371,1327.0374951076371,0.9987767635840299,0.0010573270644192935
1327.0444396190192,1327.0444396190192,0.9998101608926925,0.001057535313248041
1327.0513841303982,1327.0513841303982,1.0008672679101727,0.0010582778091238472
1327.0588842026912,1327.0588842026912,0.9997586466834122,0.0010579832843885424
1327.0666620554412,1327.0666620554412,1.0002107604985802,0.0010581443565864392
1327.0736065668286,1327.0736065668286,1.0000304105154953,0.0010584645185847887
