time,time,flux,flux_err
1325.2988047499518,1325.2988047499518,0.9992147900516292,0.0019482234256443334
1325.307137906844,1325.307137906844,1.000196935204134,0.001950387203907426
1325.3154710640808,1325.3154710640808,0.9991208735702443,0.0019528275012638215
1325.3238042216617,1325.3238042216617,0.9996154275704403,0.001955233359020133
1325.3314429497455,1325.3314429497455,1.0024123396150184,0.0017882506263048193
1325.3383872482368,1325.3383872482368,0.9992372132682161,0.0017900031708739418
1325.3453315469733,1325.3453315469733,0.9988111486099551,0.0017916737012632906
1325.352275845942,1325.352275845942,0.9981147482349423,0.0017942878962499196
1325.359220145126,1325.359220145126,1.0002483137673968,0.001798297143992635
1325.3661644445376,1325.3661644445376,1.0002341246897088,0.0018010078524586491
1325.373108744193,1325.373108744193,0.9981405282117771,0.0018030502944077465
1325.380053044047,1325.380053044047,0.9988044381833069,0.0018068130442783395
1325.3869973441392,1325.3869973441392,1.0019467756459948,0.001810539322622641
1325.3939416444523,1325.3939416444523,1.000729645824246,0.00181208363535218
1325.4008859449698,1325.4008859449698,1.0000216224155836,0.0018150843294410597
1325.407830245708,1325.407830245708,0.9993694834325216,0.0018178951372086881
1325.4147745466676,1325.4147745466676,1.0021044882285581,0.001819900983798669
1325.4217188478308,1325.4217188478308,1.002311785883951,0.0018225244360748224
1325.4286631492093,1325.4286631492093,0.9975813192008165,0.0018240028312275496
1325.4356074507918,1325.4356074507918,0.9978606892303208,0.0018271020874422311
1325.4425517525838,1325.4425517525838,1.000302033241328,0.001830667698163938
1325.4494960545794,1325.4494960545794,0.9998432884816099,0.0018334216952817822
1325.4564403567729,1325.4564403567729,0.9984103674212188,0.001837412920427312
1325.4633846591819,1325.4633846591819,1.0001562401032706,0.0018397334747127525
1325.4703289617885,1325.4703289617885,1.002140920428185,0.0018419755450663328
1325.477273264582,1325.477273264582,1.0008649754549785,0.0018458184329543516
1325.4842175675844,1325.4842175675844,0.9983154194093876,0.0018483756608737637
1325.4911618707736,1325.4911618707736,0.9998899743499108,0.0018514151637737072
1325.4981061741544,1325.4981061741544,0.996604888042452,0.0018528761881311466
1325.5050504777332,1325.5050504777332,1.000209104943842,0.0018573151661997016
1325.511994781487,1325.511994781487,1.000045448463967,0.001860057744865942
1325.5189390854441,1325.5189390854441,0.9998838854227564,0.0018635159281731762
1325.525883389576,1325.525883389576,1.000689033149806,0.0018665531744428206
1325.5328276939058,1325.5328276939058,1.001703146567813,0.0018699973616910907
1325.539771998404,1325.539771998404,1.0010282788220632,0.0018733207708616368
1325.5467163030894,1325.5467163030894,1.0035222156024015,0.0018765268918962338
1325.5536606079545,1325.5536606079545,1.001251687624605,0.001879912762886605
1325.5606049130006,1325.5606049130006,0.9986893364446425,0.0018823382388162536
1325.5675492182265,1325.5675492182265,0.9961701890068835,0.0018849407838071454
1325.5744935236157,1325.5744935236157,0.9976975045004494,0.0018878448998915641
1325.5814378291855,1325.5814378291855,0.9996134116414623,0.0018901737152107276
1325.5883821349232,1325.5883821349232,1.0012208910747706,0.0018939273450757107
1325.5953264408195,1325.5953264408195,1.000385680580925,0.0018958506230112196
1325.602270746895,1325.602270746895,0.9997528166607568,0.001897123848064319
1325.6092150531342,1325.6092150531342,0.9986065886891392,0.001897894934632201
1325.6161593595536,1325.6161593595536,1.0026289864766027,0.001900401191599821
1325.6231036661186,1325.6231036661186,0.9996428859917517,0.0018997320485751395
1325.6300479728466,1325.6300479728466,0.9989814656949682,0.0019005811637023476
1325.6369922797435,1325.6369922797435,1.0009543594701398,0.0019018068164582806
1325.6439365867914,1325.6439365867914,1.0014666909923333,0.001902825037798922
1325.6508808940084,1325.6508808940084,1.0007882645833863,0.0019039663839409444
1325.6578252013646,1325.6578252013646,0.9990937609556776,0.0019046516705488515
1325.6647695088845,1325.6647695088845,0.9989357445544682,0.001904338598904531
1325.6717138165554,1325.6717138165554,1.0012030866854766,0.0019049560908240813
1325.6786581243837,1325.6786581243837,0.9972624097982277,0.001904075638228253
1325.685602432357,1325.685602432357,0.9991790405872368,0.0019058863130552277
1325.6925467404758,1325.6925467404758,1.0001131461687185,0.001906456680771931
1325.6994910487467,1325.6994910487467,1.0002357142858584,0.0019080522489550195
1325.7064353571684,1325.7064353571684,1.0021504112667157,0.001908343225600873
1325.7133796657183,1325.7133796657183,1.000390306610577,0.0019096279708349466
1325.7203239744251,1325.7203239744251,0.9996160861179151,0.0019094318828796878
1325.727268283272,1325.727268283272,1.0003231233015297,0.001911783605981153
1325.7342125922526,1325.7342125922526,0.9990539987652836,0.0019127035167160599
1325.7411569013784,1325.7411569013784,0.9993784515876216,0.001914016346599211
1325.7481012106325,1325.7481012106325,0.999609586872954,0.0019157337031639385
1325.7550455200442,1325.7550455200442,1.0012914280700944,0.001918208368777807
1325.7619898295716,1325.7619898295716,0.9997762972028076,0.0019194103790720744
1325.7689341392393,1325.7689341392393,1.0018915269973667,0.0019224336665958006
1325.7758784490402,1325.7758784490402,0.9987554270198965,0.0019238925705775383
1325.7828227589698,1325.7828227589698,0.9979070172411525,0.0019258454069700204
1325.7897670690272,1325.7897670690272,1.0001703163024906,0.0019276191238868346
1325.7967113792242,1325.7967113792242,1.0021783905552089,0.0019308372911884906
1325.8036556895381,1325.8036556895381,1.0002084173065484,0.0019315178411625038
1325.8105999999793,1325.8105999999793,0.9985772641582178,0.0019328914827043426
1325.8175443105606,1325.8175443105606,1.0011894174274172,0.0019342081762780106
1325.824488621247,1325.824488621247,0.9995831957183869,0.0019355568334288823
1325.831432932061,1325.831432932061,0.9989106686272707,0.0019360651490091952
1325.8383772430032,1325.8383772430032,0.999942377727085,0.0019367023823285557
1325.84532155405,1325.84532155405,1.0007527216468648,0.0019364602688251176
1325.8522658652364,1325.8522658652364,0.9979219944350024,0.001935875385843562
1325.8592101765282,1325.8592101765282,0.9998851710471259,0.0019353609779991048
1325.866154487936,1325.866154487936,1.0034040460863447,0.0019338154804879489
1325.8730987994663,1325.8730987994663,0.9984953497595155,0.001931008543568011
1325.8800431111129,1325.8800431111129,0.9986253614153655,0.0019293648160614563
1325.8869874228699,1325.8869874228699,0.999582399274761,0.0019276433597119607
1325.893931734743,1325.893931734743,1.001630751536322,0.0019277244947009252
1325.9008760467216,1325.9008760467216,1.003450575431327,0.0019272477408193579
1325.907820358822,1325.907820358822,1.0002858388453062,0.001926170485095436
1325.9147646710212,1325.9147646710212,0.9973246170219353,0.0019241258750809756
1325.9217089833314,1325.9217089833314,1.0010107960578316,0.0019241261705428246
1325.9286532957462,1325.9286532957462,0.9991672291214521,0.0019235020742989154
1325.9355976082775,1325.9355976082775,0.9987693058940812,0.0019226806584853665
1325.942541920902,1325.942541920902,0.9986969916335997,0.001921510095968529
1325.9494862336428,1325.9494862336428,0.998883451947617,0.0019229380051479252
1325.9564305464826,1325.9564305464826,1.0034275118071623,0.0019222541632501957
1325.9644859495008,1325.9644859495008,1.0012217385456197,0.0019225100717944845
1325.9717080350815,1325.9717080350815,1.001148681145056,0.0019217954699888775
1325.9786523482412,1325.9786523482412,1.0015069150009448,0.0019211494912368843
1325.9855966615119,1325.9855966615119,0.9981668859488501,0.0019211440903863695
1325.9925409748755,1325.9925409748755,1.00343406185505,0.0019223253967889631
1325.9994852883324,1325.9994852883324,0.9956819278155843,0.0019215648750073211
1326.0064296018936,1326.0064296018936,0.9987925606044946,0.0019229363782344623
1326.013373915537,1326.013373915537,1.0002842706024304,0.0019252807047431756
1326.0203182292903,1326.0203182292903,0.9998727339641906,0.0019272402537882014
1326.0272625431314,1326.0272625431314,1.00129384944077,0.001928810216902363
1326.0342068570656,1326.0342068570656,1.0014099816914661,0.001930386348080045
1326.0411511710925,1326.0411511710925,0.9983761452484321,0.0019285868307505633
1326.0480954852017,1326.0480954852017,1.0016728908699197,0.001929089314727132
1326.0550397994205,1326.0550397994205,0.9999867078817752,0.0019286569367222782
1326.0619841137154,1326.0619841137154,0.9995898097900531,0.001929981420480532
1326.0689284281036,1326.0689284281036,0.9974116223599406,0.0019300558890015522
1326.0758727425848,1326.0758727425848,0.9983001866157778,0.0019310473527514734
1326.0828170571417,1326.0828170571417,1.0002589512605788,0.0019321321328145367
1326.0897613717975,1326.0897613717975,1.0010241408068563,0.001933145932171888
1326.096705686535,1326.096705686535,0.9991855204693592,0.0019337507521015938
1326.1036500013538,1326.1036500013538,1.0007927413450486,0.0019349422798559924
1326.1105943162597,1326.1105943162597,1.0026585085637527,0.0019347484712023781
1326.1175386312532,1326.1175386312532,0.9998924445923372,0.001934498540402512
1326.1244829463221,1326.1244829463221,0.998624258075432,0.0019345954389167982
1326.1314272614786,1326.1314272614786,0.9993325704673589,0.0019350139406216708
1326.1383715767106,1326.1383715767106,0.9984382227372061,0.0019350790675009392
1326.1453158920244,1326.1453158920244,1.0005755410202337,0.001935122370630903
1326.1522602074315,1326.1522602074315,0.997626158893471,0.0019348204838076759
1326.159204522902,1326.159204522902,1.0019367643057087,0.0019351316885322218
1326.1661488384543,1326.1661488384543,1.001971961425837,0.001935054241045453
1326.173093154082,1326.173093154082,1.0009432503358417,0.0019347419676651483
1326.1800374697857,1326.1800374697857,1.0003472550535442,0.0019347580019645392
1326.1869817855763,1326.1869817855763,0.99855871825615,0.00193407704472015
1326.1939261014427,1326.1939261014427,0.9988951579997458,0.0019337040051016208
1326.200870417368,1326.200870417368,1.0021033209302226,0.0019347759741932275
1326.207814733374,1326.207814733374,0.9979063301462286,0.0019334754710296949
1326.2147590494558,1326.2147590494558,1.0020960471727147,0.0019338272683095867
1326.2217033656136,1326.2217033656136,0.9996077275802324,0.0019335653698313508
1326.228647681835,1326.228647681835,0.9985507371700404,0.001933202470176413
1326.2355919981383,1326.2355919981383,0.999301822722891,0.0019333915635158998
1326.2425363145053,1326.2425363145053,1.0002722314136192,0.0019332509837231254
1326.2494806309428,1326.2494806309428,0.9994764548256786,0.0019334393517582038
1326.256424947455,1326.256424947455,1.0019278171025563,0.0019323722491991393
1326.2633692640377,1326.2633692640377,1.0004626947145459,0.0019330895256987237
1326.2703135806842,1326.2703135806842,0.9993419952986242,0.0019315157476754064
1326.2772578974004,1326.2772578974004,0.9998796090040966,0.0019325716261398666
1326.284202214181,1326.284202214181,0.9994574794290221,0.0019322077235138448
1326.291146531025,1326.291146531025,1.0001905370813424,0.0019325518464992863
1326.2980908479396,1326.2980908479396,0.999915469789886,0.0019315641915541668
1326.3050351649235,1326.3050351649235,1.0013122750314936,0.0019321634180426007
1326.311979481966,1326.311979481966,0.9998300614838124,0.0019333029694910526
1326.3189237990723,1326.3189237990723,0.999522523293319,0.0019330308258178924
1326.3258681162547,1326.3258681162547,0.9989769388332412,0.0019332633888920429
1326.3328124334832,1326.3328124334832,0.9983953928774388,0.0019340015077351873
1326.3397567507875,1326.3397567507875,0.9998780344751491,0.0019341206947189895
1326.3478121589337,1326.3478121589337,1.0023452289572905,0.0019346726988055142
1326.356423112562,1326.356423112562,1.0006168002075548,0.0019356082855732208
1326.3633674300704,1326.3633674300704,0.9998149679826757,0.0019362674037016689
1326.3703117476364,1326.3703117476364,0.9995409650907376,0.0019364829533956036
1326.3772560652608,1326.3772560652608,0.9984940110418709,0.0019373732683712753
1326.3842003829548,1326.3842003829548,1.0009540474219392,0.0019384488556814215
1326.3911447006958,1326.3911447006958,0.9996733037672711,0.0019383272413150035
1326.398089018501,1326.398089018501,1.0014216859991945,0.0019398023755048135
1326.4050333363696,1326.4050333363696,1.0005561554718883,0.0019394525036782022
1326.4119776542857,1326.4119776542857,0.9989481375472812,0.0019408958115502682
1326.4189219722646,1326.4189219722646,0.998112467807224,0.0019420422224722272
1326.4258662902964,1326.4258662902964,0.999834484474655,0.0019423193819217606
1326.4328106083865,1326.4328106083865,1.0008170400747602,0.001943355399787802
1326.439754926529,1326.439754926529,1.0011047009942473,0.0019446655462500215
1326.4466992447356,1326.4466992447356,1.0008464728737607,0.0019451826639410464
1326.4536435629827,1326.4536435629827,1.0001346350554627,0.0019460116945843574
1326.460587881294,1326.460587881294,0.9999014121484867,0.0019461714749119598
1326.467532199646,1326.467532199646,0.9975617163287133,0.001946374201881984
1326.4744765180678,1326.4744765180678,1.0006507254575117,0.0019472251576858716
1326.4814208365308,1326.4814208365308,0.9995908824241392,0.001948141334275219
1326.4883651550515,1326.4883651550515,1.000241945150115,0.001948719190027419
1326.495309473625,1326.495309473625,1.002114416972478,0.0019496735176070448
1326.50225379225,1326.50225379225,0.9996741153978373,0.001949247285350092
1326.5091981109224,1326.5091981109224,0.9987519516647314,0.0019506905223249018
1326.5161424296411,1326.5161424296411,1.0007437883026402,0.0019517516204259288
1326.5230867484124,1326.5230867484124,0.9990718679791767,0.00195270657921485
1326.530031067236,1326.530031067236,1.0027239485391946,0.00195429451955501
1326.5369753861055,1326.5369753861055,0.9977409484168381,0.0019546846344146215
1326.5439197050287,1326.5439197050287,0.998328659512814,0.001956691652141785
1326.5508640239973,1326.5508640239973,1.0005855540638682,0.001957809732710789
1326.5578083430187,1326.5578083430187,1.0025718849607455,0.0019590455196126064
1326.5647526620749,1326.5647526620749,0.9986607093749942,0.0019580488206257618
1326.5716969811897,1326.5716969811897,0.9996093784978738,0.001958029000830015
1326.578641300345,1326.578641300345,0.9989172492145857,0.0019585125765807583
1326.5855856195524,1326.5855856195524,0.9999412810055484,0.001958878772246224
1326.5925299388014,1326.5925299388014,1.0013497402440552,0.0019607453358159947
1326.599474258096,1326.599474258096,1.0008057103226153,0.0019600615736233
1326.6064185774376,1326.6064185774376,0.9977628461277561,0.001960205555055365
1326.613362896826,1326.613362896826,0.9988559799388206,0.0019607913143162648
1326.6203072162543,1326.6203072162543,1.0015702220835379,0.001961351209405721
1326.62725153573,1326.62725153573,0.9999826855709883,0.001961754627852489
1326.6341958552575,1326.6341958552575,0.9985811266009398,0.001961300686477087
1326.6411401748146,1326.6411401748146,1.0015199204004088,0.001962140806156619
1326.6480844944124,1326.6480844944124,0.998235086301003,0.001960743502105571
1326.6550288140684,1326.6550288140684,1.0007536667061636,0.001961680434532764
1326.6619731337591,1326.6619731337591,1.0001512946577151,0.0019600023620846637
1326.6689174534845,1326.6689174534845,0.9996855279913511,0.001959593842795147
1326.675861773263,1326.675861773263,0.999395324855309,0.001958385909619639
1326.6828060930643,1326.6828060930643,1.0000865268443595,0.001958042434994419
1326.6911392769086,1326.6911392769086,1.000860740520428,0.001957157964755821
1326.698083596809,1326.698083596809,0.9991696689913493,0.0019555485316628714
1326.7050279167502,1326.7050279167502,1.000816946223001,0.001954709498039371
1326.7128055551416,1326.7128055551416,0.9996156893160384,0.0019540245134679265
1326.7203054207687,1326.7203054207687,0.9994252299564282,0.0019526496907023819
1326.7272497408435,1326.7272497408435,1.0030909497387708,0.0019532528791747898
1326.7341940609592,1326.7341940609592,0.9974514628364922,0.0019513708313826604
1326.7411383811043,1326.7411383811043,1.0013157672699802,0.0019517005292966662
1326.748082701295,1326.748082701295,1.0004667213548133,0.001951176976719424
1326.7550270215156,1326.7550270215156,0.9947607547863848,0.001948996010809366
1326.7619713417885,1326.7619713417885,1.0003139200301743,0.0019494216367510167
1326.7689156620788,1326.7689156620788,1.0022151799291923,0.0019497804755499993
1326.775859982416,1326.775859982416,0.9985428607547917,0.0019490770314286522
1326.7828043027876,1326.7828043027876,0.9984277220089119,0.0019498276213318253
1326.7897486232002,1326.7897486232002,1.002127759391871,0.0019499941343527516
1326.7966929436475,1326.7966929436475,1.0000208073669659,0.0019498443069236727
1326.8036372641304,1326.8036372641304,1.000276021130442,0.0019492103801710035
1326.8105815846416,1326.8105815846416,1.0018108382585953,0.0019505406344698442
1326.817525905194,1326.817525905194,0.9980143028901847,0.0019500820730427716
1326.8244702257869,1326.8244702257869,1.0004214976512504,0.0019509404019767227
1326.831414546409,1326.831414546409,0.9973541028082963,0.0019500260398466088
1326.8383588670663,1326.8383588670663,1.0002177241957204,0.0019510688321587107
1326.8453031877696,1326.8453031877696,1.0020427473948197,0.0019515814014242974
1326.852247508485,1326.852247508485,1.0003983045422506,0.0019504566994752962
1326.8591918292411,1326.8591918292411,1.0006728785361627,0.001949817071373143
1326.8661361500322,1326.8661361500322,1.000217569017733,0.0019473940115506765
1326.8730804708698,1326.8730804708698,0.995902403583519,0.0019465638362721432
1326.8800247917243,1326.8800247917243,1.001312728894199,0.001946111449086996
1326.8869691126085,1326.8869691126085,0.9998562168726949,0.0019444779732689886
1326.893913433533,1326.893913433533,0.9998707489034271,0.0019419409020410713
1326.9008577544932,1326.9008577544932,1.0041295175169818,0.0019416170778635254
1326.9078020754816,1326.9078020754816,1.001950084922287,0.0019387667500514291
1326.9147463964996,1326.9147463964996,1.0000211511343757,0.0019365535269894288
1326.9216907175469,1326.9216907175469,1.000826606106417,0.001934237134197335
1326.928635038629,1326.928635038629,0.9972304933889415,0.001930214310093451
1326.9355793597401,1326.9355793597401,0.995250972135685,0.0019271631260856733
1326.9425236808856,1326.9425236808856,0.9992739489758282,0.0019246166655536288
1326.9494680020612,1326.9494680020612,1.0032283072959118,0.00192394143478537
1326.9564123232592,1326.9564123232592,1.0011699107454954,0.0019218581372414628
1326.9633566444986,1326.9633566444986,1.0004207588801415,0.001919815120092146
1326.970300965755,1326.970300965755,1.001949459097473,0.0019182593287857992
1326.9772452870525,1326.9772452870525,0.99937739755642,0.0019167175114804275
1326.9841896083733,1326.9841896083733,0.9996925574446586,0.0019151492436647172
1326.9911339297346,1326.9911339297346,1.0007339379824483,0.0019146880088102666
1326.9980782511075,1326.9980782511075,1.000285810413077,0.0019127182696469527
1327.0050225725156,1327.0050225725156,0.9971948616333824,0.0019116860824123672
1327.0119668939524,1327.0119668939524,0.9990913938842076,0.0019121417728101154
1327.0189112154185,1327.0189112154185,1.0015027319225613,0.0019117268719068803
1327.025855536908,1327.025855536908,0.998590938781234,0.0019115517455112994
1327.0327998584328,1327.0327998584328,1.0023066852026654,0.0019121290874403098
1327.039744179974,1327.039744179974,0.9990360965752579,0.001911923451283791
1327.0466885015567,1327.0466885015567,1.0044940281528476,0.0019136855775818515
1327.0536328231567,1327.0536328231567,0.9983538221708882,0.0019122519278929016
1327.061688236251,1327.061688236251,1.0025214413960573,0.0019139206923834216
1327.0689103307782,1327.0689103307782,0.9996444776527958,0.0019142587325782993
1327.0758546524653,1327.0758546524653,0.9973308494577413,0.0019148772390148682
1327.0827989741642,1327.0827989741642,1.0014929938391635,0.001915435913671287
