time,time,flux,flux_err
1325.298174718054,1325.298174718054,1.0017870034870706,0.0007741330602272141
1325.306507946794,1325.306507946794,1.0000805579112557,0.0007748525457357867
1325.3141467400958,1325.3141467400958,0.9993951736719904,0.0007073804019743955
1325.3210910978776,1325.3210910978776,0.9995691322068886,0.0007077666451907642
1325.3280354559388,1325.3280354559388,0.9997194557035736,0.000707795412702389
1325.3349798142563,1325.3349798142563,0.999482599661814,0.0007081723312376322
1325.3419241727597,1325.3419241727597,0.9991108429873743,0.0007085986566933974
1325.3488685315428,1325.3488685315428,0.9994284117489325,0.0007091932879975053
1325.3558128905588,1325.3558128905588,1.000412298745194,0.0007098179098358334
1325.3627572498074,1325.3627572498074,1.0010348504485027,0.0007105300595013094
1325.369701609289,1325.369701609289,1.0004517800648194,0.0007108588846335077
1325.37664596898,1325.37664596898,0.9993062427941768,0.0007112046454334874
1325.3835903289507,1325.3835903289507,1.00081138912789,0.0007117920991355608
1325.3905346890842,1325.3905346890842,0.9993903096636796,0.0007121592505114794
1325.3974790494735,1325.3974790494735,1.0001732156669745,0.0007127546377192604
1325.4044234101198,1325.4044234101198,1.0003415013425243,0.000713163215164347
1325.4113677709279,1325.4113677709279,0.9990229098552502,0.0007135254436152164
1325.4183121319697,1325.4183121319697,1.0007629957618385,0.0007145218810927831
1325.4252564932206,1325.4252564932206,1.0000360074368617,0.0007148211055555369
1325.432200854681,1325.432200854681,1.0001344329590567,0.0007153001751362203
1325.439145216375,1325.439145216375,1.0003733277901932,0.0007159957946670846
1325.4460895782777,1325.4460895782777,0.9999719077718954,0.0007163985438704511
1325.4530339404132,1325.4530339404132,0.9984567215118553,0.0007167432524894392
1325.4599783026656,1325.4599783026656,1.0001269953472347,0.0007174887684932149
1325.4669226651736,1325.4669226651736,1.0002017043850082,0.0007179273332447273
1325.4738670278919,1325.4738670278919,1.000247927070982,0.0007184139420380718
1325.4808113907727,1325.4808113907727,0.9993393637038693,0.0007187587645095136
1325.4877557539098,1325.4877557539098,1.0008579771434047,0.0007195295199334376
1325.4947001171631,1325.4947001171631,0.9998928503023462,0.0007201699086894122
1325.5016444806724,1325.5016444806724,1.000334795032813,0.0007208062034102253
1325.5085888443455,1325.5085888443455,1.0008185598810784,0.0007213554100704166
1325.5155332082038,1325.5155332082038,0.9996884457274888,0.0007218153963327456
1325.5224775722954,1325.5224775722954,0.9992867504386164,0.000722295627603108
1325.5294219365264,1325.5294219365264,0.9996638502565995,0.0007229898973735352
1325.536366300921,1325.536366300921,1.0005339370308186,0.0007236855704311436
1325.5433106655482,1325.5433106655482,0.9997265436247178,0.0007241306492434374
1325.5502550303381,1325.5502550303381,0.9999428705814568,0.0007246016534128071
1325.5571993952913,1325.5571993952913,0.9992905782394731,0.0007249059627465479
1325.5641437604309,1325.5641437604309,1.0005348856894993,0.0007257453723918752
1325.5710881257794,1325.5710881257794,1.0002924236000896,0.0007261995999194654
1325.578032491245,1325.578032491245,0.9999729219619583,0.0007265988313019942
1325.5849768569196,1325.5849768569196,0.9999209023198166,0.0007266902695924616
1325.591921222734,1325.591921222734,1.0001267892580452,0.0007269898323634695
1325.598865588735,1325.598865588735,0.9998679933838543,0.0007274782809298791
1325.6058099548752,1325.6058099548752,0.9996036798591954,0.0007275055274923164
1325.6127543212021,1325.6127543212021,1.0000438996187382,0.0007275778742783531
1325.6196986877153,1325.6196986877153,1.0005938959391634,0.0007281341933001612
1325.6266430543449,1325.6266430543449,0.9990921699533313,0.0007280128390368248
1325.6335874211836,1325.6335874211836,1.0004324071031157,0.000727984848749355
1325.640531788116,1325.640531788116,1.000895883333382,0.0007282240299866167
1325.647476155234,1325.647476155234,1.0008116861920098,0.0007282463391272846
1325.6544205225157,1325.6544205225157,0.9992130264420505,0.0007280870977494952
1325.6613648899363,1325.6613648899363,1.0002340306674005,0.0007282574012322603
1325.6683092575208,1325.6683092575208,0.9990751186186211,0.0007279487446839805
1325.6752536252445,1325.6752536252445,0.9993175064495133,0.0007279289026963716
1325.6821979931315,1325.6821979931315,1.0002431877608537,0.0007283039410741361
1325.6891423611344,1325.6891423611344,1.0001661396422008,0.0007283965032184388
1325.6960867293005,1325.6960867293005,1.0003185095984843,0.0007284545391936133
1325.7030310976063,1325.7030310976063,0.9999395357799553,0.0007288437156281154
1325.709975466075,1325.709975466075,1.000419529196149,0.00072909367874492
1325.7169198346605,1325.7169198346605,1.0006973338014729,0.0007294314047271038
1325.723864203362,1325.723864203362,1.0002427602350386,0.0007295197482300628
1325.7308085722266,1325.7308085722266,0.9998286352308223,0.0007296790161650771
1325.737752941231,1325.737752941231,0.9990441894775269,0.0007297630263565868
1325.7446973103981,1325.7446973103981,0.9995043057512479,0.0007302452967681023
1325.7516416796352,1325.7516416796352,0.9998690123458607,0.0007305321227910219
1325.7585860490587,1325.7585860490587,0.999209507978388,0.0007307238393381712
1325.7655304185516,1325.7655304185516,1.000400593621714,0.0007311419662416831
1325.7724747882316,1325.7724747882316,0.9995162993119562,0.000731507639109287
1325.7794191580037,1325.7794191580037,1.0006776413015182,0.0007319287008629421
1325.7863635279168,1325.7863635279168,1.0005399555610728,0.000731884830741921
1325.7933078979686,1325.7933078979686,1.0007165635612392,0.000732358488560349
1325.8002522681138,1325.8002522681138,1.0005462135079377,0.0007325068164437956
1325.8071966383757,1325.8071966383757,0.9996473035029982,0.0007325274525630853
1325.814141008823,1325.814141008823,0.9997899667022893,0.000732801763433973
1325.8210853793644,1325.8210853793644,0.9994691212918353,0.0007328402373209534
1325.8280297499984,1325.8280297499984,0.9983690932972781,0.0007328993853525429
1325.834974120749,1325.834974120749,1.0011911791124175,0.0007337677255862897
1325.8419184916627,1325.8419184916627,1.0000929931917044,0.0007333824037269285
1325.8488628626224,1325.8488628626224,0.9994296793287246,0.0007330786426581224
1325.8558072337457,1325.8558072337457,0.999696350127824,0.0007328888930763758
1325.8627516049619,1325.8627516049619,1.0000152898743055,0.0007330501177636543
1325.8696959762945,1325.8696959762945,1.0004622444318751,0.0007325625239912347
1325.8766403477437,1325.8766403477437,0.9999285942565009,0.0007319628676040608
1325.8835847192859,1325.8835847192859,1.0001470322891175,0.0007318995311695459
1325.8905290909681,1325.8905290909681,0.9996686376590878,0.0007314715026107566
1325.8974734627193,1325.8974734627193,1.0007473272790386,0.0007315063315872472
1325.9044178346107,1325.9044178346107,1.0008238593545,0.0007308745026859616
1325.9113622066186,1325.9113622066186,1.0005375866073094,0.0007308806728625496
1325.918306578696,1325.918306578696,1.0000949528041354,0.0007301406042087816
1325.925250950844,1325.925250950844,0.9991060661456561,0.000730149391997743
1325.9321953231774,1325.9321953231774,0.9998524968005527,0.000730096731280207
1325.939139695558,1325.939139695558,0.9995193570569529,0.0007301650425990098
1325.9460840680315,1325.9460840680315,1.0002500635122609,0.0007299750943110212
1325.953028440598,1325.953028440598,1.0008331077930381,0.0007304151923617079
1325.9605283631176,1325.9605283631176,0.9999422658025828,0.0007304581297080116
1325.9683060606826,1325.9683060606826,0.9994926736102168,0.0007300023758028608
1325.9752504335518,1325.9752504335518,1.000718388102827,0.0007306317358496721
1325.982194806584,1325.982194806584,0.9997686633204885,0.0007304338543243467
1325.989139179663,1325.989139179663,0.9995083846886283,0.000730250154916119
1325.996083552835,1325.996083552835,1.0000673865034373,0.0007306988487619813
1326.0030279261,1326.0030279261,0.9997208985911892,0.0007306713234118769
1326.0099722994814,1326.0099722994814,1.0000153821411035,0.0007311221575005298
1326.0169166729331,1326.0169166729331,0.9992919933452871,0.0007310710138337783
1326.0238610464776,1326.0238610464776,0.9999566303599441,0.0007315586653973466
1326.0308054201384,1326.0308054201384,1.000483851960914,0.0007317038700957695
1326.0377497938225,1326.0377497938225,0.9998732949187712,0.0007315645230904174
1326.0446941676234,1326.0446941676234,0.9997209210517554,0.0007314388954913645
1326.0516385415633,1326.0516385415633,1.001575930204357,0.0007320060902622615
1326.0585829155505,1326.0585829155505,1.000154054089704,0.0007316981167163806
1326.065527289584,1326.065527289584,0.999120423933244,0.0007314756802792103
1326.0724716637335,1326.0724716637335,1.0003531469184352,0.000731898237367417
1326.0794160379771,1326.0794160379771,1.000079052402126,0.0007319322467102721
1326.0863604123128,1326.0863604123128,0.999641519369027,0.0007319273491268152
1326.0933047867193,1326.0933047867193,1.0005226459797134,0.000732298752499714
1326.1002491611484,1326.1002491611484,0.9992763576157578,0.0007323153004869631
1326.107193535694,1326.107193535694,0.999716960741878,0.0007323365952026297
1326.1141379103328,1326.1141379103328,1.0006745726951425,0.00073264143445995
1326.1210822850412,1326.1210822850412,0.9994429735087509,0.0007322292543544637
1326.1280266598433,1326.1280266598433,1.0000976924026097,0.0007322699107677528
1326.1349710346917,1326.1349710346917,0.9989461648651211,0.0007320190706831318
1326.1419154096566,1326.1419154096566,1.0007136897305193,0.0007324155894232706
1326.1488597846449,1326.1488597846449,1.0000482726041948,0.0007323496860193918
1326.1558041597489,1326.1558041597489,0.9995287490619859,0.0007319179447605707
1326.1627485349004,1326.1627485349004,1.001002994871681,0.0007323629797191923
1326.1696929101674,1326.1696929101674,1.0003414404026905,0.0007322326755480442
1326.1766372854584,1326.1766372854584,1.0007213668940087,0.0007323066196525434
1326.1835816608188,1326.1835816608188,0.9999407608371632,0.0007318683060101225
1326.1905260362955,1326.1905260362955,0.9997025655757831,0.0007317841315500849
1326.197470411773,1326.197470411773,0.999646589733533,0.0007318498832811281
1326.2044147873662,1326.2044147873662,0.9994132989585192,0.0007317366043891307
1326.2113591630532,1326.2113591630532,0.9990868081522443,0.0007317672942698335
1326.218303538763,1326.218303538763,1.000313660044749,0.0007319525562857249
1326.2252479145657,1326.2252479145657,1.0000641266475925,0.0007318621274387754
1326.2321922904152,1326.2321922904152,1.0003662192546912,0.0007319973530660141
1326.2391366663578,1326.2391366663578,1.000548967391246,0.0007317207633067762
1326.2460810423472,1326.2460810423472,1.0005120679057309,0.0007316885225979992
1326.2530254184296,1326.2530254184296,1.0000369052515583,0.0007317485288691131
1326.259969794582,1326.259969794582,0.999751830558316,0.0007315484127366082
1326.266914170734,1326.266914170734,0.9988658148947372,0.0007313835163920716
1326.2738585469792,1326.2738585469792,1.0005021881220602,0.0007318168476323075
1326.280802923295,1326.280802923295,0.9994064503876301,0.0007313898214331293
1326.2877472996563,1326.2877472996563,1.0008911450202165,0.0007319636599461381
1326.294691676088,1326.294691676088,0.999717242146817,0.0007315501418145414
1326.3016360525892,1326.3016360525892,1.0009172358181344,0.0007318332394607524
1326.3085804291377,1326.3085804291377,0.9993729084846933,0.0007317236727750662
1326.3155248057788,1326.3155248057788,0.9989612019446019,0.0007317384673673326
1326.322469182443,1326.322469182443,1.0002698345481904,0.0007320806630033788
1326.329413559178,1326.329413559178,0.999942838956177,0.0007318402831055374
1326.3363579359816,1326.3363579359816,1.0009424606153492,0.000732192998327997
1326.3433023128555,1326.3433023128555,0.999143702621976,0.0007319741544684834
1326.35302444054,1326.35302444054,1.0005149033401137,0.0007319958866576859
1326.3599688175068,1326.3599688175068,0.9997487648228767,0.00073240576942037
1326.3669131945674,1326.3669131945674,1.0002470023278593,0.0007323651710422701
1326.3738575716736,1326.3738575716736,0.9991128650961425,0.000732206914009691
1326.3808019488274,1326.3808019488274,1.0006031991349393,0.0007325962339942303
1326.3877463260274,1326.3877463260274,1.0009761060553337,0.0007328718573052734
1326.3946907033435,1326.3946907033435,0.9998064946289391,0.000732954036371188
1326.4016350806603,1326.4016350806603,0.9996113116467376,0.0007328360764721669
1326.4085794579767,1326.4085794579767,1.000421934841547,0.0007331034115367289
1326.4155238354329,1326.4155238354329,1.0001000029121179,0.0007331640053155569
1326.4224682128886,1326.4224682128886,0.999704197796326,0.0007332722299014398
1326.4294125904146,1326.4294125904146,0.9988108122937337,0.0007332796445089264
1326.436356967987,1326.436356967987,1.0005147625269397,0.0007334912841356607
1326.4433013456296,1326.4433013456296,0.9994695145479913,0.0007335401691863931
1326.4502457233184,1326.4502457233184,1.0001561176569793,0.0007337505250572102
1326.4571901010304,1326.4571901010304,1.0001729269111213,0.0007341414206018086
1326.4641344788356,1326.4641344788356,1.0006924778432937,0.0007339409943204245
1326.4710788566179,1326.4710788566179,1.000247833583516,0.000734171206199616
1326.4780232345163,1326.4780232345163,1.0008610798699091,0.0007343820332675725
1326.484967612415,1326.484967612415,0.9988344561862854,0.0007341206639382728
1326.4919119904296,1326.4919119904296,1.0005759803322256,0.0007344467508112432
1326.498856368468,1326.498856368468,0.9990871156342678,0.0007342449910404681
1326.5058007465057,1326.5058007465057,1.0007207612688571,0.0007349257511298217
1326.512745124614,1326.512745124614,0.9990021194329781,0.0007344398707224796
1326.5196895028153,1326.5196895028153,1.0002847536977761,0.0007348030329284663
1326.5266338809934,1326.5266338809934,1.000893907590429,0.0007354071847582744
1326.533578259264,1326.533578259264,1.0003261215476384,0.0007354234930630935
1326.5405226375349,1326.5405226375349,0.9987744331719082,0.0007351900627549852
1326.5474670158758,1326.5474670158758,0.9996799797661762,0.0007357709806149349
1326.5544113942865,1326.5544113942865,1.00039568501439,0.0007358492190116606
1326.561355772674,1326.561355772674,1.000165288378126,0.0007360965947626863
1326.5683001511545,1326.5683001511545,0.999492740755692,0.0007358788360487808
1326.5752445296819,1326.5752445296819,1.0009860635210734,0.000736072708505824
1326.5821889082317,1326.5821889082317,0.9999907825765636,0.0007361935783512913
1326.589133286852,1326.589133286852,0.9998430212209973,0.0007363002192468649
1326.5960776654958,1326.5960776654958,0.9995771732671301,0.0007364461344910875
1326.603022044186,1326.603022044186,1.0008919097596363,0.0007366940505215188
1326.6099664228993,1326.6099664228993,0.9988548826339428,0.000736612804118857
1326.616910801659,1326.616910801659,1.0005778094111133,0.0007367464008532254
1326.6238551804888,1326.6238551804888,0.999745450034163,0.0007367536470330007
1326.630799559342,1326.630799559342,1.0006845432113285,0.0007369677716009855
1326.6377439382181,1326.6377439382181,0.9987977054310451,0.0007366488543374833
1326.6446883171413,1326.6446883171413,1.0007642128967602,0.0007370378023694844
1326.6516326960877,1326.6516326960877,0.9997395190705737,0.0007365794089747155
1326.6585770751271,1326.6585770751271,1.0004523074942244,0.0007368737429770623
1326.6655214541893,1326.6655214541893,1.0017024302654862,0.0007370256847468081
1326.672465833252,1326.672465833252,0.9986653759381271,0.0007363461185728714
1326.6794102123613,1326.6794102123613,1.000311270480099,0.0007360635669111311
1326.687187917028,1326.687187917028,0.9993174119079387,0.0007357562037675318
1326.694687846555,1326.694687846555,1.0003084991034012,0.0007359372249010432
1326.701632225827,1326.701632225827,0.9995609961009858,0.000735544216386836
1326.7088543802388,1326.7088543802388,1.000505815263029,0.0007354639414539974
1326.7169098602772,1326.7169098602772,1.0001688125089974,0.0007351816983153035
1326.7238542396194,1326.7238542396194,1.0003749673454128,0.0007352742445692865
1326.7307986190078,1326.7307986190078,0.999998202556419,0.0007350423120651545
1326.737742998443,1326.737742998443,1.0000117932762087,0.0007348776515670645
1326.7446873779018,1326.7446873779018,0.9994886165865211,0.0007346943267860915
1326.751631757406,1326.751631757406,1.0000415752245448,0.000734851809276373
1326.7585761369348,1326.7585761369348,1.0006345478463725,0.0007348851001571931
1326.7655205165324,1326.7655205165324,0.9995402437722273,0.0007346756687694027
1326.7724648960611,1326.7724648960611,0.9996401621669595,0.0007347235731866585
1326.7794092757058,1326.7794092757058,1.0004518993317895,0.0007346204475623468
1326.7863536554203,1326.7863536554203,1.0000263883622569,0.0007345655465238206
1326.7932980351115,1326.7932980351115,1.0003433490992184,0.0007347118350258922
1326.8002424148494,1326.8002424148494,0.9999835125702742,0.0007347339535434218
1326.8071867946105,1326.8071867946105,1.0001061041493848,0.0007348932645039486
1326.814131174418,1326.814131174418,1.000067173199071,0.0007346755694827331
1326.821075554249,1326.821075554249,0.9992829073406506,0.0007344885733932178
1326.8280199341266,1326.8280199341266,1.0007893962890737,0.0007347544541646633
1326.834964314004,1326.834964314004,1.0007636908720188,0.0007347448844845182
1326.8419086939284,1326.8419086939284,0.9996664442561538,0.0007344375884505986
1326.8488530738991,1326.8488530738991,0.9991930270635685,0.0007343835308915675
1326.8557974538928,1326.8557974538928,0.999536259374415,0.0007342713277749228
1326.8627418339336,1326.8627418339336,1.0000670347849567,0.0007340773037379241
1326.869686213951,1326.869686213951,1.0009407515266828,0.0007341216297346555
1326.8766305940376,1326.8766305940376,1.0005288433869062,0.000733833182280726
1326.883574974148,1326.883574974148,1.000203840301015,0.0007332114404926813
1326.8905193543283,1326.8905193543283,0.999641002393387,0.0007329045043481621
1326.8974637344386,1326.8974637344386,1.0004701435878889,0.00073285293518895
1326.9044081146653,1326.9044081146653,0.9996069018566439,0.0007323942640419544
1326.911352494892,1326.911352494892,0.9985802212999711,0.000731610951263699
1326.9182968751422,1326.9182968751422,0.9996561269736896,0.0007316847482459063
1326.925241255462,1326.925241255462,1.0012048569435898,0.0007313526272848832
1326.9321856357824,1326.9321856357824,1.0009762796406125,0.0007309101222875584
1326.939130016102,1326.939130016102,0.998973530699527,0.0007301633556375644
1326.9460743964917,1326.9460743964917,0.9997074054208122,0.0007301662393410359
1326.9530187768814,1326.9530187768814,1.0005333200284252,0.0007299983588658007
1326.9599631573178,1326.9599631573178,0.9997536647773115,0.0007294968511432872
1326.9669075377774,1326.9669075377774,1.0003120309319011,0.0007294031023042282
1326.9738519182367,1326.9738519182367,0.9997470250482083,0.0007289117092733917
1326.9807962987666,1326.9807962987666,0.9998476830362474,0.0007290824170296075
1326.9877406792957,1326.9877406792957,1.0001339640197089,0.0007287798834037806
1326.9946850598722,1326.9946850598722,1.000414748791562,0.0007284784477561184
1327.001629440448,1327.001629440448,1.0004554044219751,0.0007286928683396378
1327.008573821047,1327.008573821047,0.9989113022415029,0.000727974102163622
1327.0155182017163,1327.0155182017163,0.9995723566231804,0.0007282355780346229
1327.0224625823855,1327.0224625823855,0.9998294854236747,0.0007281814715629639
1327.0294069630781,1327.0294069630781,1.000383152482096,0.0007284775728473697
1327.0363513437937,1327.0363513437937,1.0004677972912241,0.0007284547761891552
1327.0432957245562,1327.0432957245562,1.0006037900499478,0.0007284963296431344
1327.050240105295,1327.050240105295,1.0005704992656046,0.0007281471939382633
1327.057740036522,1327.057740036522,0.999538866601901,0.000728580657515952
1327.0655177430745,1327.0655177430745,1.0001997823528144,0.0007285776406317044
1327.0724621239533,1327.0724621239533,0.9991510684466748,0.0007282654629212238
