time,time,flux,flux_err
1325.300282888901,1325.300282888901,1.00153097024079,0.006106051405900642
1325.308616310502,1325.308616310502,0.9945469383223996,0.00610257834199118
1325.316255280363,1325.316255280363,1.004269724708984,0.005585178043558386
1325.3231997986584,1325.3231997986584,1.0034579157898418,0.005600203304101848
1325.330144317,1325.330144317,0.9948522850319226,0.00560344614664428
1325.3370888354352,1325.3370888354352,1.002412794052814,0.005622987228237169
1325.3440333539634,1325.3440333539634,0.9978349596281604,0.005634258405216706
1325.3509778726545,1325.3509778726545,1.0024734221272993,0.005655303241409387
1325.3579223914155,1325.3579223914155,0.9941724261093734,0.005672529459012725
1325.364866910223,1325.364866910223,1.0044465656746264,0.005695741347676116
1325.3718114291707,1325.3718114291707,1.0055649772937436,0.005719126496639364
1325.3787559482105,1325.3787559482105,1.003601202941052,0.005742534237735906
1325.3857004673446,1325.3857004673446,1.0043898637682052,0.005766879272263972
1325.3926449866176,1325.3926449866176,0.9935842757686769,0.005775360841448463
1325.3995895059604,1325.3995895059604,0.9841660035435554,0.0057902255738894294
1325.4065340253505,1325.4065340253505,1.0084337947703392,0.0058331293193724515
1325.4134785448794,1325.4134785448794,1.005437122248487,0.005848878560986542
1325.4204230644787,1325.4204230644787,0.9897310029845487,0.005862728724488776
1325.4273675841944,1325.4273675841944,1.001978017621974,0.005886560450500823
1325.4343121039562,1325.4343121039562,0.9993836761618591,0.0059034409482041
1325.4412566238818,1325.4412566238818,1.0138109567634181,0.005927419712859871
1325.4482011438067,1325.4482011438067,0.9978849907228206,0.005931337136682806
1325.4551456638947,1325.4551456638947,0.9945634743721602,0.005940447903479205
1325.4620901840294,1325.4620901840294,0.995681006654489,0.005954960562354453
1325.4690347042338,1325.4690347042338,1.0054273573147996,0.005970369639624946
1325.475979224555,1325.475979224555,0.9955414656226939,0.005987489801406841
1325.4829237449455,1325.4829237449455,1.005785920376065,0.006007409103196959
1325.4898682654532,1325.4898682654532,0.9896702840729154,0.0060192311540018095
1325.4968127859604,1325.4968127859604,1.0023395579396948,0.006048280439716786
1325.503757306607,1325.503757306607,0.9954032535525986,0.006072426077015498
1325.5107018273006,1325.5107018273006,1.0038644587960097,0.006098951648772663
1325.517646348087,1325.517646348087,1.0030679470694306,0.006122992336125338
1325.5245908689672,1325.5245908689672,1.0093333729189191,0.006149650645730972
1325.5315353899164,1325.5315353899164,1.002177971076493,0.006176833868018564
1325.5384799109129,1325.5384799109129,1.0015160516179704,0.006202268861674516
1325.5454244320254,1325.5454244320254,0.9969454755315528,0.0062351403425004
1325.5523689531844,1325.5523689531844,1.002154202146128,0.0062683706206723795
1325.5593134744136,1325.5593134744136,0.9965154648500733,0.006296005895571448
1325.5662579957122,1325.5662579957122,0.9871741790434901,0.006312923530649867
1325.5732025171042,1325.5732025171042,1.005916509596472,0.006349574976426964
1325.5801470385663,1325.5801470385663,1.0009011429420291,0.00636369659349448
1325.5870915600744,1325.5870915600744,0.9982062555443261,0.006374002555607178
1325.594036081676,1325.594036081676,0.9943380603462992,0.006379874711918194
1325.6009806033474,1325.6009806033474,1.0001058552255002,0.00639134773773972
1325.6079251250187,1325.6079251250187,0.9959211039328146,0.006396900862850821
1325.61486964683,1325.61486964683,1.0039751276624975,0.006405518668951936
1325.621814168664,1325.621814168664,1.0110257286026383,0.006407640446678622
1325.6287586905917,1325.6287586905917,1.0118876864628485,0.006400774799194886
1325.6357032125422,1325.6357032125422,0.9964642287314633,0.006399906460971286
1325.6426477345865,1325.6426477345865,0.994459027888313,0.006389143974394368
1325.6495922566767,1325.6495922566767,0.9944055524538026,0.006380639185973193
1325.656536778814,1325.656536778814,0.9874965880593894,0.006371692997061845
1325.6634813010671,1325.6634813010671,1.0002713779368388,0.006377569723072267
1325.6704258233208,1325.6704258233208,1.0020327486394625,0.006379479880463066
1325.677370345667,1325.677370345667,1.009373606274872,0.0063848040171835055
1325.6843148680607,1325.6843148680607,0.997872729266793,0.006380283301077839
1325.6912593905004,1325.6912593905004,1.0051004122767042,0.0063835959423013955
1325.6982039130096,1325.6982039130096,0.9976263407413087,0.006384469811687809
1325.705148435566,1325.705148435566,1.008027795272823,0.0063881089888809806
1325.7120929581686,1325.7120929581686,0.9942719017829745,0.006385944319688487
1325.7190374808645,1325.7190374808645,0.9995659148829341,0.006393977132820708
1325.7259820035601,1325.7259820035601,1.0026116096849902,0.006404320281304976
1325.7329265263024,1325.7329265263024,0.9942401036471612,0.006412485578757701
1325.739871049115,1325.739871049115,1.0023305452643116,0.006419614598130417
1325.7468155720203,1325.7468155720203,0.996476069533843,0.006428673105200684
1325.7537600949254,1325.7537600949254,0.9896572203461,0.006432263799935503
1325.7607046179007,1325.7607046179007,1.0071253299234144,0.006451576424264175
1325.7676491409225,1325.7676491409225,1.0110329432820866,0.006461224711247132
1325.774593663991,1325.774593663991,0.9909464846370873,0.006461296448971099
1325.7815381870823,1325.7815381870823,1.0037972636482506,0.006486354514281556
1325.7884827102675,1325.7884827102675,1.0076126188809347,0.006505075751993367
1325.7954272334755,1325.7954272334755,1.0014899088642744,0.0065106501625888154
1325.8023717567066,1325.8023717567066,0.9948491291319339,0.006511339646442413
1325.8093162800083,1325.8093162800083,0.9959631379231915,0.006524164125250432
1325.8162608033322,1325.8162608033322,1.002280109652601,0.006526476723841055
1325.8232053267504,1325.8232053267504,1.0012085599985439,0.006534384132827686
1325.8301498501673,1325.8301498501673,0.9921460103728469,0.00653883956970686
1325.8370943735852,1325.8370943735852,0.9937121805715344,0.006539166848075704
1325.8440388971194,1325.8440388971194,0.9989820589804482,0.006535127317444034
1325.8509834206764,1325.8509834206764,1.010817912001565,0.006546648166852798
1325.857927944257,1325.857927944257,1.0048827968019718,0.0065226206580349414
1325.8648724678842,1325.8648724678842,1.0002350659862835,0.006514755309375205
1325.8718169915348,1325.8718169915348,0.9974426812630004,0.006502322900053539
1325.8787615152319,1325.8787615152319,1.0062455430862873,0.0064874223935337885
1325.885706038975,1325.885706038975,0.9835538797361701,0.006469177242727084
1325.8926505627423,1325.8926505627423,1.0079486426755302,0.0064668090601492315
1325.8995950865788,1325.8995950865788,1.0004246397968657,0.006450611888753853
1325.9065396104154,1325.9065396104154,1.005744394267778,0.0064474079117515515
1325.9134841343218,1325.9134841343218,1.0007621081841411,0.00643541983515047
1325.920428658205,1325.920428658205,0.9942035290240632,0.006418610001281598
1325.9273731822052,1325.9273731822052,0.9869809365855859,0.006403655912026057
1325.9343177062044,1325.9343177062044,1.0007626231343816,0.00639801389098565
1325.9412622302048,1325.9412622302048,1.0064027212841933,0.006401649170198742
1325.9482067542274,1325.9482067542274,1.0003902659351636,0.006390752395673147
1325.95515127832,1325.95515127832,1.0101054298529681,0.006386864831924878
1325.9626513643798,1325.9626513643798,0.9978646088536458,0.0063841698978552045
1325.9704292314223,1325.9704292314223,1.0071078543789902,0.006382450262394051
1325.977373755585,1325.977373755585,0.996283984110848,0.006368234299333671
1325.9843182798172,1325.9843182798172,0.9952740599509804,0.006369366887571703
1325.991262804073,1325.991262804073,0.9904799758467482,0.006367397427291295
1325.9982073283056,1325.9982073283056,0.999841567800669,0.0063767482912173035
1326.0051518526548,1326.0051518526548,1.0018485645904827,0.0063868329022588625
1326.0120963769568,1326.0120963769568,1.004207824787746,0.006395264968154464
1326.0190409013292,1326.0190409013292,1.001238041681114,0.006411855977620434
1326.0259854257245,1326.0259854257245,1.0017840764166344,0.006420330723955986
1326.0329299501204,1326.0329299501204,1.0059742183966591,0.006415408257263715
1326.039874474562,1326.039874474562,0.9934309942132027,0.006400678575603376
1326.046818999028,1326.046818999028,0.9927948110085456,0.006400512474295371
1326.053763523516,1326.053763523516,1.0070131945770435,0.006409342540805757
1326.0607080480047,1326.0607080480047,0.9962737946617679,0.006403858762680635
1326.0676525725864,1326.0676525725864,0.9966388434209679,0.006407154116339209
1326.074597097168,1326.074597097168,1.0007366307999643,0.0064050092968698305
1326.0815416217504,1326.0815416217504,1.0048765598281626,0.006407323178693832
1326.0884861463317,1326.0884861463317,0.9988964316548806,0.006403103130006864
1326.095430670937,1326.095430670937,1.0052175784230535,0.006414161410056478
1326.102375195612,1326.102375195612,0.9961389456062021,0.006407758908562955
1326.1093197202867,1326.1093197202867,0.9938197681698933,0.006404936540737201
1326.116264244985,1326.116264244985,1.0081841720365943,0.006419169827955602
1326.1232087697058,1326.1232087697058,1.005650345403205,0.006416295304737396
1326.1301532944512,1326.1301532944512,1.0035527844542096,0.006406504413994818
1326.137097819219,1326.137097819219,0.9922644135081656,0.006396366430075372
1326.1440423439872,1326.1440423439872,0.9883094931204814,0.0063967312843820805
1326.1509868687785,1326.1509868687785,0.9978750345481238,0.006399175495126123
1326.1579313936159,1326.1579313936159,0.994852500675915,0.006391424830668367
1326.1648759184548,1326.1648759184548,1.0085093132436844,0.006396880085480297
1326.171820443315,1326.171820443315,1.0020994905455267,0.006387536025569382
1326.1787649681996,1326.1787649681996,1.0049313819432675,0.006389051719584189
1326.1857094930608,1326.1857094930608,1.0089400215330298,0.006390076783755094
1326.1926540179916,1326.1926540179916,1.0018985373434601,0.00638130628325395
1326.1995985428998,1326.1995985428998,0.9940895776702551,0.006380230109492342
1326.206543067877,1326.206543067877,0.9972477406484097,0.006381790117271765
1326.2134875928086,1326.2134875928086,0.9941968733865849,0.006379769424872938
1326.220432117809,1326.220432117809,0.9972381157318576,0.006389103784407726
1326.2273766427866,1326.2273766427866,1.0096806838730594,0.006397698824468959
1326.2343211678108,1326.2343211678108,1.001909231751401,0.006404621614260262
1326.2412656928113,1326.2412656928113,0.9987924159186946,0.0064005766355864895
1326.2482102178592,1326.2482102178592,1.0071831530424222,0.006398476802405906
1326.2551547429298,1326.2551547429298,0.9960787483268474,0.006388701084465334
1326.2620992679774,1326.2620992679774,0.9937286662362647,0.0063767086600539785
1326.269043793048,1326.269043793048,1.0035425354788796,0.006373457598717251
1326.2759883181882,1326.2759883181882,1.0022541923880872,0.00636569444400565
1326.2829328432363,1326.2829328432363,0.9971625170253237,0.006355375260820045
1326.2898773683996,1326.2898773683996,0.9992400352228128,0.006348748553789104
1326.2968218935634,1326.2968218935634,1.000263241555709,0.006343340669299535
1326.3037664186108,1326.3037664186108,1.0036424753544584,0.0063418437561390106
1326.310710943775,1326.310710943775,1.0096997397994762,0.006339683990677325
1326.3176554689387,1326.3176554689387,0.9995459068317318,0.006338310060508739
1326.3245999941953,1326.3245999941953,0.9934818301752866,0.0063324609501037256
1326.3315445193832,1326.3315445193832,0.9991034355194195,0.006340409663807623
1326.3384890445463,1326.3384890445463,1.0021028541851593,0.006350871357005268
1326.3454335697802,1326.3454335697802,1.0038550812157099,0.006357674180714116
1326.3551559050798,1326.3551559050798,0.9987520599742734,0.006358059148293842
1326.3621004303363,1326.3621004303363,0.9946139689886266,0.006363217369826558
1326.3690449555936,1326.3690449555936,0.9938062772813572,0.006367091543917959
1326.3759894808268,1326.3759894808268,1.0013789502898949,0.006378240770424051
1326.3829340061075,1326.3829340061075,1.0062817118079903,0.006372619721814988
1326.3898785313643,1326.3898785313643,0.9952133441875407,0.006365356447408509
1326.396823056668,1326.396823056668,0.9987266830708676,0.006365585602077113
1326.4037675819482,1326.4037675819482,1.0029771162835703,0.006374549314966424
1326.4107121072516,1326.4107121072516,0.9991006399561513,0.00637110614096339
1326.4176566325555,1326.4176566325555,1.0097823331521365,0.006378843926564704
1326.424601157882,1326.424601157882,0.9915342618920121,0.006371563596167263
1326.4315456831857,1326.4315456831857,1.009332781819874,0.006377165158321013
1326.4384902085121,1326.4384902085121,0.9940333011434032,0.006372767313369751
1326.4454347338626,1326.4454347338626,0.9955563306479934,0.00637378899737061
1326.4523792592129,1326.4523792592129,0.9989493956666449,0.006379253692399514
1326.4593237845395,1326.4593237845395,0.9982750568586514,0.006377317919657564
1326.4662683098898,1326.4662683098898,0.9987019526503078,0.006382380887855807
1326.473212835263,1326.473212835263,1.004342843777728,0.006395719966628235
1326.4801573606364,1326.4801573606364,1.0017947897252186,0.0063941804931336695
1326.4871018860097,1326.4871018860097,1.0064147737679492,0.006403483721885253
1326.4940464113831,1326.4940464113831,0.9997983565208342,0.006400322586080767
1326.5009909367568,1326.5009909367568,1.0020205043509025,0.006407302713526434
1326.5079354621528,1326.5079354621528,0.9924604891870242,0.006406419020498812
1326.5148799875499,1326.5148799875499,0.9997740332337525,0.006409175314125717
1326.5218245129465,1326.5218245129465,0.9993122009878496,0.006416054280197812
1326.5287690383434,1326.5287690383434,0.994880906824822,0.006416678088905591
1326.53571356374,1326.53571356374,1.003012671129902,0.006425984771863405
1326.5426580891599,1326.5426580891599,0.9941369363187549,0.006423654669531563
1326.5496026145563,1326.5496026145563,1.0039033321062762,0.006435845047170574
1326.5565471399764,1326.5565471399764,1.0008073535438597,0.006433451174608864
1326.5634916653967,1326.5634916653967,1.0010700193981619,0.006428977764274498
1326.5704361908163,1326.5704361908163,1.005820216334843,0.006423991136479465
1326.5773807162366,1326.5773807162366,1.0011557862740688,0.00642599176048045
1326.5843252416562,1326.5843252416562,1.0007327903200234,0.006423564209860568
1326.5912697670997,1326.5912697670997,1.004087410222019,0.00643021905892383
1326.5982142925195,1326.5982142925195,0.9900693564735905,0.006426174049860127
1326.605158817963,1326.605158817963,0.9954367644655955,0.0064338979008590185
1326.612103343406,1326.612103343406,0.9989681979369014,0.006433075255133857
1326.6190478688259,1326.6190478688259,1.003902889648182,0.006435508698336477
1326.6259923942694,1326.6259923942694,1.0035408410236002,0.006439574717291545
1326.6329369197356,1326.6329369197356,0.9963565512707436,0.006433317472540827
1326.6398814451325,1326.6398814451325,1.000199105655839,0.006436162107317592
1326.6468259705755,1326.6468259705755,0.9979373849737072,0.006431135295653015
1326.6537704960422,1326.6537704960422,1.0038363429723707,0.006435005290628617
1326.6607150214857,1326.6607150214857,1.0018426893061947,0.006424912009602128
1326.6676595469053,1326.6676595469053,0.9984016658026167,0.006414600447921875
1326.6746040723488,1326.6746040723488,1.0066257056917896,0.006411624402257223
1326.6815485977918,1326.6815485977918,0.9942724059118181,0.006396678162748176
1326.6893264663013,1326.6893264663013,0.9942855773281689,0.006389362563487643
1326.6968265537575,1326.6968265537575,1.0003117643883184,0.006377001994291004
1326.7037710792006,1326.7037710792006,0.9963814618635294,0.006369023961638509
1326.710993385674,1326.710993385674,0.9966741869326633,0.006358803829538071
1326.71904903519,1326.71904903519,1.0123365424362853,0.006357414964915734
1326.72599356061,1326.72599356061,1.0028059734277754,0.006345778926383263
1326.7329380860533,1326.7329380860533,0.994055616484429,0.006334686120094926
1326.7398826114966,1326.7398826114966,1.0065370866135237,0.006333246005710487
1326.7468271369166,1326.7468271369166,1.00271483782632,0.006324848518842412
1326.7537716623592,1326.7537716623592,0.9942209898170085,0.006315007748773274
1326.7607161877797,1326.7607161877797,0.9948207419154833,0.006312253463827096
1326.7676607131993,1326.7676607131993,1.0061816884491848,0.006325127545711737
1326.7746052386428,1326.7746052386428,0.9970724638786457,0.00632522584181718
1326.7815497640627,1326.7815497640627,1.0017630357891127,0.006343269879785308
1326.7884942894827,1326.7884942894827,1.0049323477002874,0.006345480704640695
1326.7954388149028,1326.7954388149028,1.0036870140593082,0.0063391852012803975
1326.8023833403226,1326.8023833403226,0.9913071049382867,0.006338402192665996
1326.8093278657425,1326.8093278657425,1.0071714369637241,0.0063509064168601375
1326.816272391139,1326.816272391139,0.9893587196149858,0.006343789391065763
1326.8232169165592,1326.8232169165592,1.0023522803141574,0.006350978859564848
1326.8301614419556,1326.8301614419556,0.9908491452851897,0.006350073723694663
1326.8371059673525,1326.8371059673525,1.0046367338170084,0.006357448369401078
1326.8440504927494,1326.8440504927494,1.0060912901821393,0.006344526550232775
1326.8509950181458,1326.8509950181458,1.0003546296559485,0.00633849904283061
1326.8579395435193,1326.8579395435193,0.9996123963848349,0.006331242139952062
1326.8648840689161,1326.8648840689161,0.9994144567646568,0.006318874605963902
1326.8718285942894,1326.8718285942894,0.9963414878257307,0.006300995075136924
1326.878773119686,1326.878773119686,0.9992552070170075,0.006286428389319411
1326.885717645036,1326.885717645036,0.9953477740000795,0.006274565771077293
1326.892662170433,1326.892662170433,1.0028536424992482,0.006270037698422734
1326.899606695783,1326.899606695783,1.011168364603241,0.00626169141156771
1326.9065512211564,1326.9065512211564,0.9980825714885458,0.00624768181900732
1326.9134957465062,1326.9134957465062,0.9950266167878737,0.006237288289365607
1326.9204402718335,1326.9204402718335,1.0022246410536488,0.006225661609728974
1326.927384797183,1326.927384797183,1.0132418238339098,0.006221559802265933
1326.9343293225338,1326.9343293225338,0.9912641513702173,0.006202035797616481
1326.9412738478602,1326.9412738478602,0.9924780937103446,0.0061909186019323496
1326.948218373187,1326.948218373187,1.0091630152267013,0.00618933021669517
1326.9551628984907,1326.9551628984907,0.9951570852570129,0.0061786964611559555
1326.962107423841,1326.962107423841,0.9968040124944448,0.006176230557329744
1326.9690519491446,1326.9690519491446,1.0066817684792284,0.006171924827957779
1326.9759964744478,1326.9759964744478,1.0021450542409926,0.006164311259660146
1326.9829409997283,1326.9829409997283,1.004732459664372,0.006164477947822067
1326.9898855250317,1326.9898855250317,1.0024994265669909,0.00615644642777919
1326.9968300503126,1326.9968300503126,0.9897757589521635,0.006142763759015549
1327.0037745755922,1327.0037745755922,1.0057320770876756,0.00615282830678913
1327.0107191008726,1327.0107191008726,1.00141599725228,0.006140737551828783
1327.0176636261294,1327.0176636261294,0.9911186178394569,0.006144696047737782
1327.0246081513865,1327.0246081513865,0.9975954393260477,0.006142118937772871
1327.0315526766437,1327.0315526766437,1.0112273314000804,0.006156093556064617
1327.0384972019003,1327.0384972019003,0.9953614548435873,0.006148601072791067
1327.0454417271344,1327.0454417271344,1.0013059491818486,0.006149681904281133
1327.0523862523448,1327.0523862523448,0.9986614594395865,0.006144883134327596
1327.0598863396146,1327.0598863396146,0.9928494126179557,0.006139597695106965
1327.0676642078217,1327.0676642078217,1.006599591812329,0.006149824677883906
1327.0746087330785,1327.0746087330785,0.997574415073378,0.006148163955353626
1327.0815532582656,1327.0815532582656,0.9996002608284396,0.006142718673909775
1327.0884977834291,1327.0884977834291,1.0040863451212352,0.006145544470821602
1327.0954423085936,1327.0954423085936,0.992996588252747,0.006138078858814103
