time,time,flux,flux_err
1325.302313476381,1325.302313476381,1.001032766677544,0.0009926604735200127
1325.310646855316,1325.310646855316,0.9990158574708867,0.000993582821967836
1325.3189802341349,1325.3189802341349,1.0005034427816337,0.0009952368649820726
1325.3266191647795,1325.3266191647795,0.9999252065049475,0.0009094675830934009
1325.3335636472186,1325.3335636472186,0.9995726469476296,0.0009102516724861911
1325.3405081296114,1325.3405081296114,0.9994831323411265,0.0009115715470849675
1325.347452612051,1325.347452612051,0.999485814079131,0.0009123282947974002
1325.3543970944904,1325.3543970944904,1.000423386944748,0.0009133844897774388
1325.3613415769298,1325.3613415769298,0.9992125437343541,0.0009137837821573968
1325.3682860593694,1325.3682860593694,1.0000121804386684,0.0009143235840734525
1325.3752305418084,1325.3752305418084,1.0003393072106088,0.0009147038816562097
1325.382175024248,1325.382175024248,0.9998169047633979,0.0009148869611973689
1325.3891195066876,1325.3891195066876,0.9994506339716924,0.000915257243505542
1325.3960639891734,1325.3960639891734,1.0003483676279183,0.0009154452740745504
1325.4030084716592,1325.4030084716592,0.9982734632501942,0.0009155606738539951
1325.4099529541456,1325.4099529541456,1.0019381554862852,0.0009165573666058185
1325.416897436631,1325.416897436631,1.00186442035263,0.0009167055822187573
1325.4238419191174,1325.4238419191174,1.0008039536572315,0.0009168770591261362
1325.4307864016498,1325.4307864016498,0.9999671443456577,0.0009171088967266083
1325.4377308841822,1325.4377308841822,1.0000351169112514,0.0009176044053952025
1325.4446753666684,1325.4446753666684,0.9991869977731531,0.0009175705657997029
1325.4516198492938,1325.4516198492938,0.9988315890587458,0.0009178845130967513
1325.4585643317334,1325.4585643317334,0.9983954725153676,0.0009181621804933614
1325.4655088144054,1325.4655088144054,1.0011365285831393,0.0009188302645126318
1325.4724532968448,1325.4724532968448,0.9993829653001385,0.0009188067851029281
1325.4793977795173,1325.4793977795173,0.9998612801207768,0.000919644858133316
1325.4863422620497,1325.4863422620497,1.0021161105848377,0.0009198280928539374
1325.493286744629,1325.493286744629,1.0016354651167678,0.0009201347523411684
1325.5002312273014,1325.5002312273014,0.999660990084809,0.0009200559126076588
1325.5071757099731,1325.5071757099731,1.001262240813856,0.0009206633076576948
1325.514120192413,1325.514120192413,0.9994205975849833,0.0009206637187708207
1325.5210646750852,1325.5210646750852,0.9989894075886433,0.0009206520757810765
1325.5280091577572,1325.5280091577572,0.9999389449959188,0.0009214645103140245
1325.5349536404292,1325.5349536404292,0.9999318761063893,0.0009220370871350607
1325.5418981231014,1325.5418981231014,1.0015266906393938,0.0009231587410619389
1325.548842605774,1325.548842605774,0.9993607977617025,0.0009230188399071972
1325.5557870884459,1325.5557870884459,0.9998108309647094,0.0009235578420219218
1325.5627315711188,1325.5627315711188,1.0000201505846777,0.0009241520378859608
1325.5696760537908,1325.5696760537908,1.0003573219407254,0.0009246167208855731
1325.5766205364628,1325.5766205364628,0.9990767892435717,0.0009245961654129542
1325.583565019368,1325.583565019368,0.9992472710067266,0.0009249727507572315
1325.5905095020403,1325.5905095020403,1.0003628681619405,0.0009258791882576875
1325.5974539847125,1325.5974539847125,1.0008252832908924,0.0009261336443692947
1325.6043984675243,1325.6043984675243,0.9996633965483952,0.0009258239389505543
1325.6113429502896,1325.6113429502896,1.0009272050064604,0.0009261060444675845
1325.6182874330086,1325.6182874330086,0.9996779397909116,0.0009259425664758434
1325.6252319158668,1325.6252319158668,0.9987131671898583,0.0009260379390299428
1325.6321763985393,1325.6321763985393,0.9998643816307247,0.0009257954805472708
1325.6391208814443,1325.6391208814443,0.9991691991526901,0.0009255704251678711
1325.6460653642098,1325.6460653642098,1.002247782402096,0.000926306806147968
1325.6530098470218,1325.6530098470218,0.9991520374057327,0.0009256047062325291
1325.65995432988,1325.65995432988,1.001446855321419,0.0009260862645217962
1325.666898812692,1325.666898812692,1.000202415057694,0.0009255542578553303
1325.673843295504,1325.673843295504,0.999645597267025,0.0009256235533858728
1325.6807877784092,1325.6807877784092,0.9979020437956546,0.0009252344230046038
1325.6877322612677,1325.6877322612677,1.0008339488548597,0.0009255995509557561
1325.6946767441261,1325.6946767441261,0.9995064472381395,0.0009252779931065013
1325.7016212269848,1325.7016212269848,0.9993905984161764,0.0009255136565535187
1325.7085657098899,1325.7085657098899,0.999062429617241,0.0009255556964761037
1325.715510192795,1325.715510192795,1.0009745230463152,0.0009262843106692606
1325.7224546756997,1325.7224546756997,0.9998649774035346,0.0009261943848145723
1325.729399158605,1325.729399158605,0.9998622865910463,0.0009265791160795799
1325.7363436415098,1325.7363436415098,0.9997953553393328,0.0009267735548166738
1325.7432881244615,1325.7432881244615,1.0015451689391541,0.0009275957704196709
1325.7502326073666,1325.7502326073666,1.0001155149960774,0.0009275610632614413
1325.7571770903185,1325.7571770903185,1.0001809160882236,0.0009281530344041519
1325.76412157327,1325.76412157327,0.9983982418354952,0.0009282119369316508
1325.7710660562213,1325.7710660562213,0.9999223074951342,0.0009287495389119842
1325.778010539173,1325.778010539173,0.9991837966629588,0.0009295628120409461
1325.7849550221247,1325.7849550221247,1.0013101520238854,0.0009301936429766944
1325.7918995051696,1325.7918995051696,1.000005497376613,0.0009307101950458429
1325.7988439881212,1325.7988439881212,0.9991234646560654,0.0009304351649713097
1325.805788471073,1325.805788471073,1.0004107059204617,0.0009312888100289563
1325.812732954118,1325.812732954118,1.00117488524636,0.0009315074445444815
1325.8196774371156,1325.8196774371156,0.9990399822131844,0.0009311802817655656
1325.8266219201141,1325.8266219201141,1.000870522079864,0.0009317477224467184
1325.8335664031124,1325.8335664031124,1.000459234217036,0.0009319959165790493
1325.840510886157,1325.840510886157,1.0002440732118758,0.0009318151884879788
1325.8474553691553,1325.8474553691553,0.9993457967918602,0.0009319692229093623
1325.8543998521995,1325.8543998521995,1.0008246754771273,0.0009322894491911933
1325.8613443352447,1325.8613443352447,1.000961037344207,0.000932106412037372
1325.8682888182893,1325.8682888182893,0.9989290350307352,0.0009316279931458714
1325.8752333012878,1325.8752333012878,0.9999505600177621,0.0009316510527489873
1325.882177784379,1325.882177784379,1.0006357560693666,0.0009316469984601481
1325.889122267424,1325.889122267424,0.9996052044431079,0.000931127787815132
1325.8960667504684,1325.8960667504684,0.99999546372151,0.000930983288734305
1325.90301123356,1325.90301123356,1.0012235352154657,0.00093100737035308
1325.9099557166048,1325.9099557166048,0.999124433316085,0.000930333133746067
1325.9169001996495,1325.9169001996495,0.9984783531015973,0.0009301377385446931
1325.9238446827871,1325.9238446827871,1.0002185602006952,0.0009301032001358296
1325.9307891658789,1325.9307891658789,0.9994434129805427,0.0009296943090331287
1325.9377336489233,1325.9377336489233,0.9987640139772948,0.0009296239913257511
1325.9446781320148,1325.9446781320148,1.0021214927280746,0.0009302287268260044
1325.9516226151063,1325.9516226151063,1.0012781504451032,0.0009301597577152535
1325.9585670981974,1325.9585670981974,0.9999433959217401,0.0009296466624640965
1325.9663449192562,1325.9663449192562,1.0002291478899017,0.0009294626281306243
1325.9738449610077,1325.9738449610077,1.0004739379321683,0.0009300405385349554
1325.9807894440992,1325.9807894440992,0.9997638209560176,0.0009294779199020119
1325.9877339271902,1325.9877339271902,0.9976062025786868,0.000929055740102833
1325.994678410328,1325.994678410328,1.0002564790040414,0.0009299422897254163
1326.0016228933732,1326.0016228933732,0.9992530074740081,0.0009300446423093862
1326.0085673765109,1326.0085673765109,1.0006840350998316,0.0009305101407117097
1326.0155118596026,1326.0155118596026,1.0013119156590018,0.0009312006038270405
1326.0224563427403,1326.0224563427403,1.0006951110802025,0.0009314284426695203
1326.0294008258318,1326.0294008258318,0.9990838155016227,0.000931142070169883
1326.036345308923,1326.036345308923,0.9999005838372164,0.0009318027471191196
1326.0432897920607,1326.0432897920607,1.0014039148360596,0.0009318036619015176
1326.0502342751522,1326.0502342751522,0.9996693479129476,0.000931569061001472
1326.0571787582435,1326.0571787582435,0.9986560858076263,0.0009313079337704901
1326.0641232413814,1326.0641232413814,1.000196352951617,0.0009315286634565756
1326.0710677245195,1326.0710677245195,1.0007919852833096,0.0009321703936863924
1326.0780122076105,1326.0780122076105,1.0000312675954586,0.0009321801636547721
1326.0849566907489,1326.0849566907489,1.0008337760003543,0.0009321554125125012
1326.09190117384,1326.09190117384,0.9995676522571421,0.0009321301214755325
1326.0988456569316,1326.0988456569316,1.000018146122303,0.0009320837960294611
1326.1057901400693,1326.1057901400693,0.9998267111347412,0.0009322951771749821
1326.1127346231603,1326.1127346231603,1.0006674925756633,0.000932503652944368
1326.1196791062519,1326.1196791062519,0.9994936865503975,0.0009326038956757378
1326.1266235893895,1326.1266235893895,1.0000371472497673,0.0009326416348958333
1326.1335680724812,1326.1335680724812,1.0001974796846826,0.0009328566068398476
1326.1405125555725,1326.1405125555725,1.00095225676827,0.0009335051259713155
1326.1474570386638,1326.1474570386638,0.9986710173176769,0.0009327226778207479
1326.154401521802,1326.154401521802,0.999443687086249,0.0009329924245231311
1326.1613460048466,1326.1613460048466,1.0014529275545363,0.000933386665072174
1326.1682904879847,1326.1682904879847,0.9991350173252587,0.000932795544379472
1326.1752349710757,1326.1752349710757,1.0001300620897715,0.0009330016672611264
1326.1821794541206,1326.1821794541206,0.9998579254321756,0.000932868319182407
1326.1891239372583,1326.1891239372583,0.9989385253977809,0.0009326780226542985
1326.1960684203027,1326.1960684203027,0.9999269705626119,0.0009327346615829367
1326.2030129033947,1326.2030129033947,1.0001339977644206,0.0009327972325154984
1326.209957386439,1326.209957386439,1.0005954903881624,0.0009329764561554705
1326.2169018694842,1326.2169018694842,1.0008733104634464,0.0009329698293470187
1326.2238463526219,1326.2238463526219,1.000566973630527,0.0009327981704009494
1326.2307908357134,1326.2307908357134,1.0004977571815994,0.0009325396779466374
1326.237735318758,1326.237735318758,0.9991697065313515,0.0009323059029381568
1326.2446798017559,1326.2446798017559,0.999473421359722,0.0009324790585456889
1326.2516242848014,1326.2516242848014,0.9991953515821951,0.0009323694961718523
1326.2585687678456,1326.2585687678456,0.9997170474323264,0.0009324050635078155
1326.2655132509374,1326.2655132509374,1.0005319749938555,0.0009327527285528006
1326.2724577339818,1326.2724577339818,1.000407654745854,0.0009325733593907077
1326.27940221698,1326.27940221698,1.0009927881540612,0.0009330141309988179
1326.2863467000252,1326.2863467000252,0.9991757242284814,0.0009320931491979687
1326.2932911830233,1326.2932911830233,0.9994511351230615,0.0009318898214765693
1326.3002356660677,1326.3002356660677,0.9995415776702645,0.0009319452238845639
1326.307180149066,1326.307180149066,1.0010829527586442,0.0009321186634974369
1326.3141246320642,1326.3141246320642,0.9992345683947874,0.0009320467277124289
1326.3210691150628,1326.3210691150628,1.0008282227139955,0.0009322804162235238
1326.3280135980608,1326.3280135980608,0.9989490071798837,0.0009320395326091871
1326.334958081013,1326.334958081013,1.001146830442859,0.000932282883045448
1326.3419025640105,1326.3419025640105,0.999909042394348,0.0009324563314692197
1326.3494026056692,1326.3494026056692,1.0003602823470892,0.0009325288165110574
1326.358569323169,1326.358569323169,0.999446092195711,0.0009328117205994564
1326.3655138061208,1326.3655138061208,0.9999981669129347,0.0009327116497650438
1326.3724582890259,1326.3724582890259,0.9994046554143404,0.0009327356648600538
1326.3794027719773,1326.3794027719773,1.0008863402210186,0.0009335353264422133
1326.386347254929,1326.386347254929,1.0003646179306191,0.0009336498197009387
1326.393291737834,1326.393291737834,0.9990877896500324,0.0009331464954094133
1326.4002362207857,1326.4002362207857,0.9988524486372311,0.0009338654174798963
1326.407180703691,1326.407180703691,1.001417694016368,0.0009346148681293982
1326.4141251865963,1326.4141251865963,1.0000006236155876,0.0009345455493027695
1326.4210696694547,1326.4210696694547,1.0006230998624102,0.0009347767881519111
1326.4280141523595,1326.4280141523595,1.000632977722457,0.0009347662084657505
1326.4349586352646,1326.4349586352646,0.9992638062910094,0.0009348034720413321
1326.441903118123,1326.441903118123,0.9986751480976842,0.0009348780941996416
1326.448847600982,1326.448847600982,1.0001770076930883,0.0009355095903343203
1326.4557920837935,1326.4557920837935,1.0002864528158204,0.0009352542261875042
1326.4627365666522,1326.4627365666522,0.9998542346230244,0.000935329988467374
1326.4696810495104,1326.4696810495104,1.000950340448247,0.0009358249240301348
1326.4766255323225,1326.4766255323225,0.9999326127230571,0.000935626549779409
1326.4835700151348,1326.4835700151348,0.998531110961444,0.0009354503852102583
1326.4905144979464,1326.4905144979464,1.000048438521422,0.0009361684827802004
1326.497458980712,1326.497458980712,1.0010195641643214,0.0009360710263398499
1326.5044034635703,1326.5044034635703,0.9998258506980104,0.0009359824726235975
1326.511347946289,1326.511347946289,1.0007123461294634,0.0009360674004306329
1326.5182924290546,1326.5182924290546,0.9999458818361016,0.000936017675152832
1326.5252369118666,1326.5252369118666,0.9989069992189691,0.0009359702267966839
1326.5321813945388,1326.5321813945388,1.0016562294991114,0.0009367958757569456
1326.5391258772574,1326.5391258772574,0.9974601618010721,0.0009361573868941189
1326.5460703601161,1326.5460703601161,1.0005062271780356,0.0009370186389606452
1326.5530148427883,1326.5530148427883,1.000113109513977,0.0009371451368410352
1326.5599593254606,1326.5599593254606,1.001451623546965,0.000937806339471141
1326.5669038081328,1326.5669038081328,0.999896627769161,0.0009374857675736528
1326.5738482908052,1326.5738482908052,0.9994603890515903,0.0009374678463208322
1326.5807927734777,1326.5807927734777,1.0003895333856698,0.0009378569962287036
1326.5877372561495,1326.5877372561495,1.0009588835510344,0.0009379632345164598
1326.594681738822,1326.594681738822,0.9992974592574562,0.00093784395689522
1326.6016262214941,1326.6016262214941,0.999927557342232,0.0009379848343181287
1326.6085707040268,1326.6085707040268,0.9992242870018094,0.0009383364668657934
1326.6155151866062,1326.6155151866062,0.9989613620703721,0.0009381033580225798
1326.6224596692778,1326.6224596692778,1.0002731199115167,0.00093869131455083
1326.6294041518572,1326.6294041518572,0.9998623979281385,0.0009381220060413677
1326.6363486343894,1326.6363486343894,1.00122333440716,0.0009385770994713145
1326.6432931170154,1326.6432931170154,1.0004275533283848,0.0009385424841834666
1326.6502375995012,1326.6502375995012,0.9994918282603757,0.0009379038681389688
1326.657182082034,1326.657182082034,0.999227827186159,0.0009380092775423616
1326.6641265646133,1326.6641265646133,1.0008750198576464,0.0009379802192064715
1326.6710710470522,1326.6710710470522,1.0006905254359344,0.0009378177412930672
1326.6780155295853,1326.6780155295853,0.9998038606893124,0.0009376727931689772
1326.684960012071,1326.684960012071,1.0000195100297824,0.000937441499863334
1326.6930156117382,1326.6930156117382,0.9996417550947332,0.0009371740251459015
1326.7002378734842,1326.7002378734842,0.999343088833735,0.0009370637802799514
1326.7071823559238,1326.7071823559238,1.0004693527151653,0.0009369779906081309
1326.714682396977,1326.714682396977,0.9990756753562942,0.0009362396545691161
1326.7224602172441,1326.7224602172441,1.0008306210844482,0.0009366513555044042
1326.7294046996835,1326.7294046996835,0.9992738476879055,0.0009362860733711807
1326.7363491820297,1326.7363491820297,1.0008589968772472,0.0009362459924682239
1326.7432936643763,1326.7432936643763,0.9989482317832955,0.0009356322269284811
1326.7502381467687,1326.7502381467687,1.0004460194864107,0.0009360925402519234
1326.7571826290682,1326.7571826290682,1.0009681020313197,0.0009359929920068006
1326.7641271114148,1326.7641271114148,1.0001046450953606,0.000935768828187165
1326.7710715937146,1326.7710715937146,0.9998919195597393,0.0009354274092227673
1326.7780160760142,1326.7780160760142,0.9994982503837898,0.0009351219963632219
1326.784960558314,1326.784960558314,0.9989453051302277,0.0009351474127733978
1326.7919050405671,1326.7919050405671,0.9997786989576417,0.0009355785290871193
1326.7988495227737,1326.7988495227737,1.0005553782351053,0.0009356459162713604
1326.8057940050735,1326.8057940050735,1.000878315913102,0.0009360239843329277
1326.81273848728,1326.81273848728,0.9999158746691187,0.0009358418775505138
1326.8196829694866,1326.8196829694866,1.000074604415033,0.0009362508474983171
1326.8266274516466,1326.8266274516466,1.0013154149839125,0.0009362833881397789
1326.8335719338531,1326.8335719338531,0.9998921896222251,0.0009362739331864076
1326.8405164160133,1326.8405164160133,0.9992774354235043,0.0009362915142820257
1326.8474608981267,1326.8474608981267,0.9986327145738946,0.0009360127712617217
1326.8544053802402,1326.8544053802402,1.000233359196216,0.0009361814343358874
1326.8613498623072,1326.8613498623072,0.9998138829820842,0.0009362542777251791
1326.8682943444207,1326.8682943444207,1.0006733534036332,0.0009363571752269253
1326.8752388264875,1326.8752388264875,0.999292026201523,0.0009353786143785714
1326.8821833086008,1326.8821833086008,1.0009024224051333,0.0009354459039675493
1326.8891277906678,1326.8891277906678,0.9989694843177139,0.0009344034644846701
1326.8960722726413,1326.8960722726413,0.9997865455182191,0.000934090417496555
1326.9030167547087,1326.9030167547087,1.001346941295412,0.0009339352118061768
1326.9099612366822,1326.9099612366822,0.9997804954670156,0.0009330882611249573
1326.916905718656,1326.916905718656,1.000177066557261,0.0009324971491623514
1326.9238502006297,1326.9238502006297,0.9997891817159674,0.0009322329479383052
1326.930794682557,1326.930794682557,1.0001841290388296,0.000931593055763643
1326.9377391645307,1326.9377391645307,0.9994437771973772,0.0009308532437464001
1326.9446836464112,1326.9446836464112,1.000330066547876,0.0009304168591137542
1326.951628128292,1326.951628128292,1.0005482041852067,0.0009301789634066887
1326.958572610219,1326.958572610219,0.9988420375454133,0.0009294987322571585
1326.9655170920068,1326.9655170920068,1.0001285264518276,0.0009295034842574398
1326.9724615738874,1326.9724615738874,1.0014424307268612,0.0009292306653246568
1326.9794060556746,1326.9794060556746,0.999608362387798,0.0009284460772388664
1326.9863505374626,1326.9863505374626,0.9985884150709173,0.000928270612906969
1326.9932950192494,1326.9932950192494,1.0002495542377885,0.0009281227905783042
1327.0002395010374,1327.0002395010374,0.9990220517308197,0.0009276885104727121
1327.0071839827783,1327.0071839827783,1.001020656017523,0.000928230433222014
1327.0141284645192,1327.0141284645192,1.0018602584352663,0.000928152278870262
1327.0210729462601,1327.0210729462601,0.999008743016728,0.0009277955032710601
1327.0280174279544,1327.0280174279544,1.0008194261968533,0.0009283597698816094
1327.0349619096025,1327.0349619096025,0.9993755258065363,0.0009282773713975111
1327.0419063912498,1327.0419063912498,1.0012504065548855,0.000928426433046136
1327.0488508729445,1327.0488508729445,0.9990571566276133,0.0009280743961600488
1327.055795354499,1327.055795354499,0.9989389755869575,0.0009278459230445445
1327.0635731739746,1327.0635731739746,0.9984728245755887,0.0009283711209217109
1327.0710732140499,1327.0710732140499,0.9995664103838052,0.0009288866883814627
1327.0780176955582,1327.0780176955582,1.001331573694508,0.0009291054579481622
