time,time,flux,flux_err
1410.9108642130934,1410.9108642130934,1.0000061799930122,0.00011304628931325456
1410.9178087974906,1410.9178087974906,0.9999796346562316,0.00011304925812096816
1410.924753381703,1410.924753381703,0.9998640998061713,0.00011302246395741883
1410.9316979656344,1410.9316979656344,0.9999337738586653,0.00011302185534034142
1410.9386425493803,1410.9386425493803,0.9998750162030946,0.00011301726698144695
1410.9455871328469,1410.9455871328469,1.0001203070454365,0.00011303825998446746
1410.9525317161267,1410.9525317161267,0.9999266990790201,0.0001130118614960059
1410.959476299221,1410.959476299221,0.9999761867450723,0.0001130295466794118
1410.9675320153192,1410.9675320153192,1.000091840900017,0.00011301946750708442
1410.9819767467984,1410.9819767467984,1.0002412201754987,0.00011290777596075733
1410.991421378547,1410.991421378547,0.9999743556100344,0.00011296380139517599
1411.0000326600302,1411.0000326600302,0.9997271746646019,0.00011290878481849903
1411.0108662070566,1411.0108662070566,1.0001336046235774,0.00011294944473831954
1411.0178107883808,1411.0178107883808,0.999985841459256,0.00011295615582756139
1411.0247553693328,1411.0247553693328,1.0001731000328449,0.00011297192387898047
1411.0316999501918,1411.0316999501918,0.9997651489192739,0.00011293360643586993
1411.0386445306776,1411.0386445306776,0.999813733212448,0.00011289718125512556
1411.045589111164,1411.045589111164,1.0000071094611234,0.00011291586794640163
1411.0533670408913,1411.0533670408913,0.9998751770674612,0.00011293161140631638
1411.0608671870416,1411.0608671870416,1.0002419064546144,0.00011292991372503682
1411.0678117665964,1411.0678117665964,0.9999506591780154,0.00011293415877853752
1411.0747563460577,1411.0747563460577,1.0002874341654828,0.00011296362761579187
1411.0817009253337,1411.0817009253337,1.000155782514149,0.00011292387646719781
1411.0886455042366,1411.0886455042366,0.9999369865520451,0.00011292281995276526
1411.0955900829529,1411.0955900829529,0.9999212111818793,0.00011292587780393232
1411.1025346614838,1411.1025346614838,0.9999893852181501,0.00011294631951285796
1411.1094792398278,1411.1094792398278,0.9999262458750326,0.00011291430637239304
1411.116423817893,1411.116423817893,0.9999930475930402,0.00011291327971592064
1411.1233683959574,1411.1233683959574,1.0003697550616963,0.00011296806642582405
1411.13031297337,1411.13031297337,0.9998560576658544,0.00011289901832019203
1411.1372575508763,1411.1372575508763,1.000089802171953,0.00011291231567929318
1411.1442021281027,1411.1442021281027,0.9999109795985784,0.00011289559080400092
1411.1511467050505,1411.1511467050505,0.9998059942828071,0.00011290705180357417
1411.1580912817176,1411.1580912817176,0.9998817942316827,0.00011289276880218325
1411.1650358583854,1411.1650358583854,0.9998944553638894,0.00011288312330943895
1411.1719804346812,1411.1719804346812,1.00035583458971,0.00011288679042579578
1411.1789250107897,1411.1789250107897,0.99998169740539,0.00011289511153981899
1411.1858695867131,1411.1858695867131,1.0001705315157483,0.0001128831539630358
1411.1928141621697,1411.1928141621697,1.0003000448679504,0.00011288995919331479
1411.1997587376266,1411.1997587376266,1.000387369947531,0.00011289550776902016
1411.206703313084,1411.206703313084,1.000015198149136,0.00011286024082277484
1411.2136478879818,1411.2136478879818,0.9998625141386294,0.00011286241765955755
1411.220592462881,1411.220592462881,0.9996987372235445,0.00011281635704269773
1411.2275370374991,1411.2275370374991,0.999903426884436,0.00011284354923829137
1411.2344816117459,1411.2344816117459,0.9997176221909386,0.00011284520023272158
1411.2414261859922,1411.2414261859922,1.0003682925756407,0.00011287340635565579
1411.2483707599586,1411.2483707599586,1.0000668449486965,0.00011288471888528122
1411.255315333647,1411.255315333647,1.0001567669368074,0.00011289457892523615
1411.2622599070548,1411.2622599070548,0.9999757326079604,0.00011287703988472017
1411.2692044805558,1411.2692044805558,1.0001273449414048,0.00011289485129236771
1411.276149053499,1411.276149053499,0.999638792995652,0.00011284535696355166
1411.2830936263474,1411.2830936263474,1.0003373930910637,0.00011290862798373066
1411.2900381989182,1411.2900381989182,1.0000872471672984,0.00011287370901865215
1411.2969827713946,1411.2969827713946,1.00010632165855,0.00011287994956439876
1411.303927343592,1411.303927343592,0.9997681818751925,0.00011285591685426818
1411.3108719156037,1411.3108719156037,1.0001643191269225,0.00011290358620704238
1411.317816487428,1411.317816487428,0.9999749082495957,0.00011291133497400665
1411.3247610589742,1411.3247610589742,1.0000080212133304,0.00011290433394014026
1411.3317056303333,1411.3317056303333,1.0000572290649246,0.00011290866032850021
1411.3386502015994,1411.3386502015994,0.9999128402663603,0.00011287149010556446
1411.3455947723999,1411.3455947723999,0.9998221077013429,0.00011288210650334776
1411.3525393431999,1411.3525393431999,1.0000539840601432,0.00011290406322804369
1411.3594839136283,1411.3594839136283,1.0002105718023855,0.00011291504905325599
1411.366428484056,1411.366428484056,0.9997977546547592,0.00011288747634413249
1411.3733730540184,1411.3733730540184,1.0000992615470579,0.0001128722750810843
1411.3803176239805,1411.3803176239805,1.0000260065630169,0.00011291649466095536
1411.38726219357,1411.38726219357,0.999664279811754,0.00011286609354021794
1411.3942067631606,1411.3942067631606,0.9998288480812587,0.00011286562107115082
1411.4011513323771,1411.4011513323771,1.000145369842436,0.00011288768582591851
1411.4080959014086,1411.4080959014086,1.0001343555645625,0.00011285841968807593
1411.41504047016,1411.41504047016,0.9998210317615571,0.00011286089802375588
1411.4219850390975,1411.4219850390975,1.000140190643073,0.0001128646927808523
1411.428929607384,1411.428929607384,1.0000398383746325,0.00011288440166897736
1411.4358741755761,1411.4358741755761,1.0000138470404194,0.00011285103803842372
1411.44281874349,1411.44281874349,1.0000645868643838,0.00011286900080171322
1411.4497633114029,1411.4497633114029,0.9998520024238491,0.0001128286070382834
1411.456707879037,1411.456707879037,1.0000052052375892,0.00011285728850663741
1411.4636524462987,1411.4636524462987,0.9999349396937405,0.00011286920199450495
1411.4705970135597,1411.4705970135597,1.0001308162176687,0.00011284887097767188
1411.4775415805425,1411.4775415805425,0.9997765414072468,0.00011286721010293519
1411.484486147338,1411.484486147338,0.999965158131723,0.00011287043928059621
1411.4914307139475,1411.4914307139475,1.0002746853654845,0.0001128870592926247
1411.4983752801847,1411.4983752801847,0.9999890264768927,0.00011288112647290976
1411.5053198463277,1411.5053198463277,0.9999834973507713,0.00011286682865529111
1411.5122644124724,1411.5122644124724,1.000000406759766,0.00011286668567941
1411.5192089782431,1411.5192089782431,0.9998475411965091,0.00011285698888635086
1411.5261535438283,1411.5261535438283,1.0001348561784955,0.00011286235913428278
1411.5330981092275,1411.5330981092275,1.0000057203000976,0.00011288092570481837
1411.5400426743463,1411.5400426743463,0.9999615367087106,0.00011289022586849569
1411.5469872393733,1411.5469872393733,0.9999226454738974,0.00011285715872826569
1411.5539318041199,1411.5539318041199,0.9999871544489842,0.00011288579242467174
1411.5608763686807,1411.5608763686807,1.0001135109167918,0.00011290356580940925
1411.567820933055,1411.567820933055,1.0000148005281806,0.00011289053817278409
1411.5747654972429,1411.5747654972429,1.0000571486878662,0.00011288417998879204
1411.581710061338,1411.581710061338,0.9999320824798513,0.00011287319475932849
1411.5886546251534,1411.5886546251534,1.000123304001289,0.0001129152926048098
1411.5955991885037,1411.5955991885037,0.9998142226508973,0.00011289768768826838
1411.602543751946,1411.602543751946,0.9999613102660938,0.00011291476140239114
1411.6094883151102,1411.6094883151102,0.9997690176591056,0.00011290173482940638
1411.6164328781808,1411.6164328781808,1.000338907259231,0.00011291264289520466
1411.623377440878,1411.623377440878,0.9999192214198466,0.00011288907085466493
1411.6303220034838,1411.6303220034838,1.0000978290104174,0.0001129223415148968
1411.6372665659949,1411.6372665659949,1.0000897381725184,0.00011292002742874048
1411.6442111281342,1411.6442111281342,1.000115251371381,0.00011292555013755376
1411.6511556901803,1411.6511556901803,1.000044569516154,0.00011290283176837692
1411.6581002520397,1411.6581002520397,0.9997876550752007,0.00011289494694214676
1411.6650448136209,1411.6650448136209,0.9997892633868417,0.00011288616515464699
1411.6719893751074,1411.6719893751074,1.000023284368963,0.00011292942402877995
1411.6789339363158,1411.6789339363158,0.9999016163721866,0.00011289695959576645
1411.685878497337,1411.685878497337,1.000091139190372,0.00011290430649299925
1411.6928230581723,1411.6928230581723,1.0002001048523101,0.00011295089701975824
1411.699767618915,1411.699767618915,1.0000054555433464,0.00011293703091226346
1411.7067121793773,1411.7067121793773,0.9998890662424145,0.00011288936103911132
1411.7136567397472,1411.7136567397472,1.0002133692930586,0.0001129252758784919
1411.7206012997444,1411.7206012997444,0.9999776712332743,0.00011293644999971863
1411.7275458597414,1411.7275458597414,1.0000939968286133,0.00011291961010439968
1411.734490419366,1411.734490419366,1.0000556054038114,0.00011291812671233269
1411.7414349788971,1411.7414349788971,0.9998441407150802,0.00011288712338160145
1411.7483795384292,1411.7483795384292,1.0001158432380826,0.00011292549549311248
1411.7553240975878,1411.7553240975878,1.000153619662014,0.00011295299648823054
1411.7622686562813,1411.7622686562813,1.0001057752064082,0.0001129349583505714
1411.7692132151608,1411.7692132151608,0.9999157582938281,0.0001129641730409852
1411.776157773854,1411.776157773854,0.9998791605373863,0.00011291880288101346
1411.7831023321753,1411.7831023321753,1.0000399835815679,0.00011296745661056589
1411.7900468904022,1411.7900468904022,1.0001529816002919,0.0001129587826369521
1411.7969914484443,1411.7969914484443,0.9999450431189277,0.00011296528606191641
1411.8039360062987,1411.8039360062987,1.0002606290156764,0.00011298207376545457
1411.8108805640609,1411.8108805640609,0.9998114172114254,0.00011295422003670707
1411.8178251214504,1411.8178251214504,1.0002676251520732,0.00011296790025180582
1411.8247696787462,1411.8247696787462,0.9997775669122788,0.00011293633391356935
1411.8317142357641,1411.8317142357641,1.0003055070666762,0.00011299082997133191
1411.838658792594,1411.838658792594,0.99974147156353,0.00011295121747647297
1411.8456033494251,1411.8456033494251,0.9996503501771563,0.00011292408705639832
1411.8525479061625,1411.8525479061625,1.000383258453186,0.00011299919869657573
1411.8594924624342,1411.8594924624342,1.0000169225067181,0.0001129780875291179
1411.8664370187064,1411.8664370187064,1.0001222605274667,0.00011298397835349751
1411.8733815746982,1411.8733815746982,1.000220563693793,0.00011296242270564401
1411.880326130598,1411.880326130598,0.9999617697388782,0.00011296343878957024
1411.8872706862178,1411.8872706862178,0.9998985170342107,0.00011295163882573962
1411.8942152416516,1411.8942152416516,0.999925391915022,0.00011297100245769938
1411.901159796899,1411.901159796899,1.0002720797848046,0.00011298778372740655
1411.9081043521462,1411.9081043521462,0.9998542300353238,0.00011293918708009069
1411.9150489070216,1411.9150489070216,1.0000446305520352,0.00011297382298517853
1411.921993461896,1411.921993461896,1.0000967997278556,0.00011296776547900855
1411.9289380164919,1411.9289380164919,1.0000260391147933,0.00011298063501870002
1411.9358825708073,1411.9358825708073,0.9999565143120945,0.00011295751690924461
1411.9428271250306,1411.9428271250306,0.9999224554507908,0.0001129643711161585
1411.9497716790675,1411.9497716790675,0.9999390793220752,0.0001129847936681722
1411.9567162329172,1411.9567162329172,0.999938280441113,0.00011297587315628246
1411.9636607866755,1411.9636607866755,0.9997369772949751,0.00011299494067702074
1411.9706053401524,1411.9706053401524,1.0001866709882188,0.00011298554072630153
1411.9775498934446,1411.9775498934446,1.0002706515523618,0.00011299136680313167
1411.9844944466427,1411.9844944466427,0.9998083709743222,0.0001129691372058685
1411.991438999748,1411.991438999748,0.9997669790146343,0.00011294707007764985
1411.9983835524813,1411.9983835524813,0.9998096399368581,0.00011295675184714266
1412.005328105121,1412.005328105121,1.0000515836808008,0.00011301828461956883
1412.0122726574816,1412.0122726574816,1.0001767533077464,0.00011300845790468152
1412.0192172096552,1412.0192172096552,1.0000397015637337,0.00011298392059964836
1412.0261617618294,1412.0261617618294,0.9997554902199102,0.00011297485734260235
1412.0331063140034,1412.0331063140034,1.000078066104323,0.00011300390702561965
1412.0400508657117,1412.0400508657117,1.0003863417302135,0.00011299377920317576
1412.0469954173268,1412.0469954173268,0.9997963690696821,0.00011294496993532854
1412.0539399687557,1412.0539399687557,0.9998422271074139,0.0001129450289041755
1412.0608845199988,1412.0608845199988,0.9999104067383573,0.00011295297318763768
1412.0678290710553,1412.0678290710553,1.0001264369743972,0.00011300726150923397
1412.0747736220187,1412.0747736220187,1.0000372661961625,0.00011297364031224422
1412.0817181727025,1412.0817181727025,1.0002276238069232,0.00011300760082970909
1412.0886627232933,1412.0886627232933,0.9998698052105292,0.00011295228214853269
1412.0956072736979,1412.0956072736979,1.0001293576113253,0.00011299126602283278
1412.1025518240085,1412.1025518240085,1.000034747821079,0.00011296825841398855
1412.1094963739483,1412.1094963739483,1.0000551964963629,0.00011297363933774039
1412.1164409237936,1412.1164409237936,0.9999066651310489,0.00011297471694881006
1412.1233854736395,1412.1233854736395,0.9998034477293721,0.00011297798695210546
1412.1303300232062,1412.1303300232062,0.999795055780204,0.00011296026087813038
1412.1372745725855,1412.1372745725855,1.0001377599287948,0.00011300631806061797
1412.1442191218734,1412.1442191218734,1.0000052339790098,0.00011297158068744042
1412.15116367088,1412.15116367088,0.9998603044663159,0.00011298013887650043
1412.1581082197022,1412.1581082197022,1.0001982716092344,0.00011302941822325524
1412.1650527684296,1412.1650527684296,0.9997017387183872,0.00011300419672788853
1412.1719973170648,1412.1719973170648,1.0001655190206284,0.00011301892548912145
1412.1789418654205,1412.1789418654205,0.9997465067045297,0.00011300261114078938
1412.1858864136827,1412.1858864136827,1.000123275082323,0.00011301564907073512
1412.1928309617595,1412.1928309617595,1.000165504606783,0.00011301518610333741
1412.1997755096488,1412.1997755096488,0.9998776606451589,0.00011300809670600812
1412.2067200573533,1412.2067200573533,1.0000532186133033,0.00011302137916005271
1412.21366460487,1412.21366460487,0.9999441104083132,0.00011299344924840883
1412.220609152388,1412.220609152388,1.0001489205559886,0.00011301161373113459
1412.2275536995326,1412.2275536995326,1.0000045000361193,0.00011298790088051904
1412.2344982465845,1412.2344982465845,1.0001451828079806,0.0001129980171458561
1412.2414427935432,1412.2414427935432,0.9996080091727473,0.00011294545544881643
1412.248387340315,1412.248387340315,1.0000484554615743,0.00011294864099176329
1412.255887450517,1412.255887450517,1.0001876697357552,0.00011293197879640282
1412.2644986880412,1412.2644986880412,0.9998821932468542,0.00011285897850256121
1412.2742210526103,1412.2742210526103,0.9998284021033168,0.00011288704411712534
1412.2850545444094,1412.2850545444094,1.0001569611403862,0.00011288742672725006
1412.2942213447106,1412.2942213447106,0.9999783492764628,0.00011287112882293582
1412.301165890086,1412.301165890086,1.0001776734959198,0.00011293031897953538
1412.3081104356477,1412.3081104356477,1.0000479963879396,0.00011291917961469503
1412.3150549808365,1412.3150549808365,0.9998067317949534,0.00011289899697458652
1412.3219995256536,1412.3219995256536,1.0000755074323562,0.00011295561060192699
1412.3289440706558,1412.3289440706558,0.9997598688742201,0.00011289515466654722
1412.3358886153796,1412.3358886153796,1.0002749540593812,0.00011297249268044005
1412.3428331599168,1412.3428331599168,1.0000901113433345,0.00011293113153349233
1412.349777704268,1412.349777704268,0.9999890396800856,0.00011292778908676769
1412.3567222484328,1412.3567222484328,1.0001090085675022,0.00011289810829564093
1412.363666792597,1412.363666792597,0.9997599897581887,0.00011291418219328656
1412.3706113364829,1412.3706113364829,0.9999600248757037,0.00011294643948246364
1412.3775558802745,1412.3775558802745,1.0001319322268076,0.00011296150349657343
1412.3845004238808,1412.3845004238808,0.9998621122496985,0.00011294105749410414
1412.3914449672998,1412.3914449672998,1.0000637741921212,0.00011296000693671367
1412.3983895106269,1412.3983895106269,0.9999486584728675,0.00011296386396568768
1412.4053340537669,1412.4053340537669,1.0000858358516265,0.00011294794974002136
1412.412278596814,1412.412278596814,1.0000239176801864,0.00011295332862321088
1412.419223139675,1412.419223139675,0.9998276174045193,0.00011288269817154537
1412.4261676820693,1412.4261676820693,1.000029991999631,0.0001129456974692132
1412.433112224652,1412.433112224652,1.0000547872648455,0.0001129674289726268
1412.4400567670461,1412.4400567670461,0.9999893053564992,0.00011294371657796513
1412.447001309256,1412.447001309256,1.0000118867375214,0.00011293545447452712
1412.453945851278,1412.453945851278,1.0001393933874816,0.00011292820893092597
1412.4608903932074,1412.4608903932074,0.9995834232708157,0.00011289369452858107
1412.467834934951,1412.467834934951,1.0001190007026284,0.000112918139041221
1412.4747794764146,1412.4747794764146,1.0000785060344473,0.00011289762455888336
1412.4817240177856,1412.4817240177856,1.000342790334443,0.0001128886878280846
1412.488668559156,1412.488668559156,1.0000080743786726,0.00011292043497636158
1412.4956131002477,1412.4956131002477,0.9999344784719393,0.00011294352052825035
1412.5025576412452,1412.5025576412452,0.9997277429441732,0.00011289837517625745
1412.5095021819648,1412.5095021819648,0.9999881273700211,0.00011293507305958742
1412.516446722497,1412.516446722497,1.00008681561292,0.00011294431260783734
1412.5233912630297,1412.5233912630297,1.0000955323052407,0.00011294367253292591
1412.5303358035621,1412.5303358035621,1.0001231628753326,0.00011296041701198373
1412.5372803437217,1412.5372803437217,1.0000587368272162,0.00011295578080391957
1412.5442248837894,1412.5442248837894,1.0001114442961145,0.00011293921920605822
1412.551169423669,1412.551169423669,1.0000406097519934,0.0001129467915318326
1412.5581139634573,1412.5581139634573,0.99973283507345,0.00011294521948034548
1412.565058503058,1412.565058503058,0.9999864240098919,0.00011294945586107227
1412.5720030424732,1412.5720030424732,0.9998445368127354,0.00011294486422033446
1412.578947581795,1412.578947581795,0.9999951359445121,0.00011296890353499166
1412.5858921208376,1412.5858921208376,1.00018561601521,0.00011297514929085918
1412.5928366597868,1412.5928366597868,1.0001295932812257,0.00011297996059291156
1412.5997811987359,1412.5997811987359,1.0002060002734703,0.0001129701374015381
1412.6067257374064,1412.6067257374064,0.9998739682513914,0.00011297144930388645
1412.6136702759825,1412.6136702759825,1.0001203137915717,0.00011297518679264992
1412.620614814187,1412.620614814187,0.9997770468262832,0.00011296204063655985
1412.6275593523908,1412.6275593523908,0.9999161321898866,0.00011294157982413536
1412.6345038905952,1412.6345038905952,0.9999128159649422,0.0001129136007549775
1412.6414484286133,1412.6414484286133,0.9999626140409734,0.00011298256097151776
1412.648392966445,1412.648392966445,1.0000087925465293,0.00011295809819756932
1412.6553375040908,1412.6553375040908,1.0001094092589395,0.00011299065116319063
1412.6622820415494,1412.6622820415494,1.0000781474315148,0.0001129745088300447
1412.6692265789156,1412.6692265789156,0.9999351698279637,0.00011299485257444707
1412.6761711161885,1412.6761711161885,0.9999520643053839,0.00011297074866906821
1412.6831156532753,1412.6831156532753,0.9998483591380791,0.00011289912827524683
