time,time,flux,flux_err
1598.0295397283708,1598.0295397283708,0.9999625234367058,0.0004985132181407972
1598.0364840707587,1598.0364840707587,1.000645852990599,0.0004983031241508915
1598.0434284131468,1598.0434284131468,0.9997820791455059,0.0004975541992922607
1598.0503727555579,1598.0503727555579,0.999655054475627,0.0004971517061248781
1598.0575948716707,1598.0575948716707,0.9997009444193807,0.0004967257695255212
1598.0656503088999,1598.0656503088999,1.0005332336511947,0.0004961760567050186
1598.072594651346,1598.072594651346,1.0006706206466454,0.0004955739242214443
1598.0795389938037,1598.0795389938037,1.0003590883261737,0.0004953533883905936
1598.0864833362848,1598.0864833362848,1.0005833377474942,0.0004947380881303327
1598.0934276787775,1598.0934276787775,0.9999100286922136,0.0004942422183446765
1598.1003720212698,1598.1003720212698,0.9995616087087266,0.00049358142336321
1598.1073163638096,1598.1073163638096,1.0002818838202077,0.0004931464546626939
1598.1142607062902,1598.1142607062902,0.9993282755759368,0.0004926338620904669
1598.12120504883,1598.12120504883,0.9996802952080301,0.0004921460599348453
1598.128149391392,1598.128149391392,1.0000533846841597,0.0004919871785573814
1598.1350937339664,1598.1350937339664,1.0002434565888254,0.0004916356431279737
1598.142871397622,1598.142871397622,1.0001295843519198,0.0004910770026313215
1598.1503712876106,1598.1503712876106,1.0000053659212056,0.0004907095958820284
1598.1573156302088,1598.1573156302088,1.0001334927050272,0.0004904365562421452
1598.1642599727943,1598.1642599727943,1.000123104564088,0.0004900349558809104
1598.1712043154153,1598.1712043154153,0.9998332426105975,0.000489703869573037
1598.1781486580242,1598.1781486580242,0.9994788482938454,0.0004891538508210111
1598.1850930006447,1598.1850930006447,1.000702091642325,0.0004891644910085445
1598.1920373432774,1598.1920373432774,1.0000745438403018,0.0004886921997677598
1598.1989816859211,1598.1989816859211,0.9997755125230501,0.00048802560010082955
1598.2059260285655,1598.2059260285655,0.9993966288112489,0.00048814122992420206
1598.2128703712208,1598.2128703712208,1.0004937716504645,0.0004879023308144519
1598.2198147138884,1598.2198147138884,0.9999834832369124,0.0004874985398744693
1598.2267590565439,1598.2267590565439,0.9999942300929314,0.000487177776189859
1598.2337033992344,1598.2337033992344,0.9997007159831377,0.00048676038853017205
1598.2406477419138,1598.2406477419138,0.9997693175031888,0.00048656644792042966
1598.2475920846039,1598.2475920846039,1.0005570466240925,0.00048628354979195383
1598.2545364272833,1598.2545364272833,1.0001800077971659,0.0004858688585200377
1598.2614807699968,1598.2614807699968,1.000110366069778,0.00048555945289624274
1598.2684251126989,1598.2684251126989,0.9999671337184761,0.00048510201760523124
1598.2753694554012,1598.2753694554012,1.0002036636379674,0.0004848851343634752
1598.2823137981268,1598.2823137981268,0.999327791556966,0.00048431247681788165
1598.2892581408407,1598.2892581408407,0.9999990212678025,0.0004845226737455871
1598.2962024835663,1598.2962024835663,1.0001161947814925,0.00048405394244870075
1598.303146826292,1598.303146826292,1.0003506345776683,0.00048354959905217354
1598.3100911690171,1598.3100911690171,0.9998640268641102,0.0004828576768068282
1598.3170355117547,1598.3170355117547,0.9994295915956177,0.00048231969507922577
1598.323979854503,1598.323979854503,0.9999009222736783,0.0004820600516322649
1598.3309241972402,1598.3309241972402,0.9998021728590064,0.00048168909216877683
1598.3378685399891,1598.3378685399891,1.0005144559878592,0.0004813367079027541
1598.3448128827376,1598.3448128827376,1.000254739412759,0.0004808347262177656
1598.3517572254755,1598.3517572254755,1.0005345027158676,0.00048043869026146905
1598.3587015682353,1598.3587015682353,1.0004817549831926,0.00048011721032353215
1598.3656459109961,1598.3656459109961,0.9995375995783992,0.0004796823406946705
1598.3725902537449,1598.3725902537449,1.000071777159309,0.0004795459894033968
1598.379534596505,1598.379534596505,0.9986794013185498,0.000478937172433261
1598.386478939266,1598.386478939266,1.0000174832408946,0.00047906256555954396
1598.3934232820375,1598.3934232820375,1.0005536891175946,0.00047846110128505593
1598.4003676247985,1598.4003676247985,0.9993161892506597,0.0004780702491143595
1598.4073119675584,1598.4073119675584,1.0010978822186862,0.00047814423118529433
1598.4142563103192,1598.4142563103192,1.0002620535148588,0.0004779160859856026
1598.4212006530909,1598.4212006530909,1.0002594917129195,0.0004774138153579366
1598.4281449958512,1598.4281449958512,1.0003070634646352,0.00047689040558398816
1598.4350893386234,1598.4350893386234,0.9997493880767676,0.00047656828296911805
1598.442033681384,1598.442033681384,0.999793670720379,0.0004764535735003783
1598.4489780241563,1598.4489780241563,0.9999055480159857,0.00047628881576028544
1598.4559223669164,1598.4559223669164,0.9996558754387628,0.0004759758054600294
1598.4628667096888,1598.4628667096888,1.0003556403758984,0.00047594827395984506
1598.469811052449,1598.469811052449,1.0000354616960956,0.00047586709327929823
1598.4767553952092,1598.4767553952092,0.999721372902257,0.00047573346149259587
1598.48369973797,1598.48369973797,1.0001243004265772,0.0004756175563833362
1598.4906440807417,1598.4906440807417,0.9996011442868922,0.00047526051883472434
1598.4975884235025,1598.4975884235025,1.0002437075149486,0.00047522478476109
1598.5045327662624,1598.5045327662624,0.9999889974358336,0.00047501889287596236
1598.5114771090116,1598.5114771090116,1.0002338676992424,0.0004750105096616818
1598.518421451772,1598.518421451772,1.000081041257321,0.0004748169308262588
1598.525365794521,1598.525365794521,1.0002544319884272,0.00047480933941306924
1598.5323101372696,1598.5323101372696,1.000078609916279,0.00047454774960915624
1598.5392544800184,1598.5392544800184,0.9995623501639592,0.00047461117466721987
1598.5461988227673,1598.5461988227673,0.9996072192131148,0.0004743754315182071
1598.553143165504,1598.553143165504,1.000117398987452,0.0004745915180403271
1598.560087508253,1598.560087508253,1.0002452281374947,0.0004742108728562224
1598.56703185099,1598.56703185099,1.0004171176477243,0.00047419039787850866
1598.5739761937157,1598.5739761937157,0.999922289423479,0.00047415685263099466
1598.5809205364528,1598.5809205364528,0.9997933577283369,0.0004742317157028134
1598.5878648791781,1598.5878648791781,0.9998060143913878,0.00047413683483438814
1598.5948092219041,1598.5948092219041,1.0004076580654795,0.00047424832224052276
1598.6017535646174,1598.6017535646174,0.999507704812569,0.0004740248783639843
1598.6086979073318,1598.6086979073318,0.9999867940200474,0.0004743531571238239
1598.6156422500455,1598.6156422500455,0.9997782384621956,0.0004742442254465215
1598.6225865927472,1598.6225865927472,1.000156092007839,0.0004742354143376787
1598.6295309354618,1598.6295309354618,1.000620876121982,0.0004743638812822298
1598.6364752781517,1598.6364752781517,0.9999435093847964,0.00047440227899757365
1598.6434196208545,1598.6434196208545,0.9996824144011093,0.00047383937744666457
1598.6503639635448,1598.6503639635448,0.9998945634901716,0.0004741628531315484
1598.6573083062353,1598.6573083062353,1.0000678490874124,0.00047384283685048846
1598.6642526489145,1598.6642526489145,0.9997114653509387,0.0004738474922333794
1598.67119699157,1598.67119699157,1.0006601163578854,0.0004738900258243697
1598.6781413342492,1598.6781413342492,1.0000410305167302,0.0004737886138542136
1598.685085676916,1598.685085676916,0.9996486915960331,0.00047359828153146105
1598.692030019572,1598.692030019572,1.0001519294654249,0.000473641733277655
1598.6989743622157,1598.6989743622157,0.9997301325138281,0.00047331226064279807
1598.7059187048717,1598.7059187048717,0.9998999450501603,0.00047335916282247893
1598.7128630475158,1598.7128630475158,1.0003652169327049,0.00047329130002024186
1598.719807390148,1598.719807390148,1.0008365837597664,0.0004730909503636403
1598.7267517327805,1598.7267517327805,1.0001703430141746,0.0004725842797981605
1598.7336960753892,1598.7336960753892,0.9998171948065255,0.0004728300999504156
1598.7406404180217,1598.7406404180217,0.9997987321028132,0.0004724688217023291
1598.7475847606192,1598.7475847606192,1.000108473087417,0.00047252506157507556
1598.754529103228,1598.754529103228,0.9997750788950249,0.00047240108105488633
1598.761473445826,1598.761473445826,0.9997339426304149,0.0004723423506525958
1598.7684177884112,1598.7684177884112,1.000021772097158,0.0004723481919916295
1598.7753621309857,1598.7753621309857,1.0003362220308365,0.00047236011795447644
1598.7823064735828,1598.7823064735828,1.0006857268060387,0.00047245785545347457
1598.7892508161221,1598.7892508161221,0.9997470283082437,0.00047219678604037713
1598.796195158708,1598.796195158708,0.999475341863084,0.00047190335012818087
1598.803139501259,1598.803139501259,1.0001166056909108,0.000472114220653706
1598.8100838437983,1598.8100838437983,1.0002273323039126,0.0004718466420344207
1598.8170281863372,1598.8170281863372,0.9997077621528583,0.0004716430535256136
1598.823972528877,1598.823972528877,0.9996317673270874,0.0004717564526780569
1598.8309168713924,1598.8309168713924,1.0002410251330385,0.0004716353271670347
1598.8378612138972,1598.8378612138972,1.000308171205012,0.0004717409878840022
1598.844805556413,1598.844805556413,0.9999194815365078,0.0004716560675688845
1598.851749898917,1598.851749898917,1.000451658101514,0.0004718885664555941
1598.8586942413983,1598.8586942413983,1.001276712001857,0.0004718329930576236
1598.865638583879,1598.865638583879,0.9992154828786883,0.00047142307611831066
1598.8725829263485,1598.8725829263485,0.9992082632037151,0.0004713511656665874
1598.879527268818,1598.879527268818,1.0004231663089986,0.0004715118504597216
1598.8864716112753,1598.8864716112753,1.0000207899846538,0.0004715514333856541
1598.893415953722,1598.893415953722,1.000379466570859,0.0004713466033063442
1598.9003602961673,1598.9003602961673,0.9998810865643174,0.00047108272730518456
1598.9073046385909,1598.9073046385909,1.000009263667593,0.0004710489728705253
1598.9142489810133,1598.9142489810133,0.9994968913274314,0.0004708332971052496
1598.9211933234244,1598.9211933234244,1.000235885277628,0.00047092872954987067
1598.9281376658125,1598.9281376658125,1.0001791049789313,0.00047068161516486683
1598.9350820082118,1598.9350820082118,0.9999156684803907,0.0004703685092194958
1598.9420263506001,1598.9420263506001,1.0000038664686197,0.0004703369022779869
1598.948970692976,1598.948970692976,1.0000455668511101,0.00047020905182727606
1598.955915035341,1598.955915035341,0.9997433588484693,0.00046994192677197663
1598.9628593776938,1598.9628593776938,1.000726978690577,0.00046976088892003773
1598.969803720035,1598.969803720035,0.9997197627416797,0.0004696254404346164
1598.9767480623766,1598.9767480623766,1.000049984765033,0.00046925950982776906
1598.9836924046942,1598.9836924046942,0.9995085098832398,0.00046904922575208947
1598.9906367470126,1598.9906367470126,1.0000056726483262,0.00046896533624024773
1598.9975810893188,1598.9975810893188,0.9999669122180912,0.0004686368390217148
1599.0045254316133,1599.0045254316133,0.9999783826298879,0.00046868702585381894
1599.0114697738854,1599.0114697738854,1.0002015388065904,0.000468529297191643
1599.0184141161913,1599.0184141161913,1.0004622608016098,0.0004683963704986962
1599.02535845844,1599.02535845844,0.9994363458743167,0.0004681700386631866
1599.0323028006876,1599.0323028006876,1.0003416450951208,0.00046794051146249434
1599.0392471429361,1599.0392471429361,1.0004330412981952,0.0004679991092914642
1599.0461914851726,1599.0461914851726,0.9998886686154673,0.0004677900930395081
1599.0531358273738,1599.0531358273738,0.9997551515374706,0.00046746337497120024
1599.0600801695994,1599.0600801695994,0.9993357501314352,0.00046737124111706306
1599.067024511789,1599.067024511789,1.0000010330719091,0.0004671081017071986
1599.0739688539786,1599.0739688539786,1.0000334363813919,0.00046692610809524824
1599.0809131961573,1599.0809131961573,1.0003960959325586,0.00046681422711813953
1599.0878575383238,1599.0878575383238,1.0000627430187399,0.0004667139084607214
1599.094801880479,1599.094801880479,1.0002506696368383,0.000466569241085952
1599.1017462226223,1599.1017462226223,0.9992695007173815,0.0004662273607372901
1599.108690564754,1599.108690564754,0.9995061135638373,0.0004663741477838021
1599.1156349068747,1599.1156349068747,1.0008166276919046,0.0004663236643164308
1599.1225792489945,1599.1225792489945,1.0004613334762265,0.00046591703751094123
1599.12952359108,1599.12952359108,1.000567561206145,0.0004658510773813336
1599.1364679331762,1599.1364679331762,1.000440476062011,0.00046576816981634716
1599.1434122752387,1599.1434122752387,0.9991033920567756,0.0004656012460803438
1599.150356617312,1599.150356617312,0.9998661210245461,0.00046561258005431243
1599.1573009593621,1599.1573009593621,1.0001199082898002,0.00046553868414916325
1599.164245301401,1599.164245301401,0.9998730461061272,0.0004652723653336925
1599.1711896434276,1599.1711896434276,1.0004613101184963,0.0004651475755761274
1599.1781339854435,1599.1781339854435,0.9993653536778957,0.00046498382205429007
1599.185078327447,1599.185078327447,1.0000804496131288,0.0004649153179534074
1599.1920226694272,1599.1920226694272,1.0010999727301557,0.00046493872734406705
1599.1989670113962,1599.1989670113962,0.9992577443814501,0.00046465305792896857
1599.2059113533994,1599.2059113533994,0.9995253476507446,0.0004648949197095283
1599.2128556953453,1599.2128556953453,1.0001938483482105,0.00046474735354881826
1599.2198000372557,1599.2198000372557,1.0000743440839588,0.00046435558168859525
1599.226744379213,1599.226744379213,1.0000068146764598,0.00046470910827775357
1599.233688721112,1599.233688721112,1.0002507097161162,0.00046437483682349324
1599.2406330630222,1599.2406330630222,1.0003107604181962,0.0004643271063182131
1599.2475774048985,1599.2475774048985,0.9996866617467164,0.0004641356282817987
1599.2545217467853,1599.2545217467853,1.0005378015171191,0.0004640368204369773
1599.2614660886495,1599.2614660886495,1.0006506601057201,0.0004640563487791135
1599.268410430502,1599.268410430502,0.9992615904111505,0.0004636549488112797
1599.2753547723423,1599.2753547723423,1.0000792027842507,0.00046377826848501577
1599.2822991141602,1599.2822991141602,1.0000434441306627,0.0004636618207300504
1599.2892434559774,1599.2892434559774,0.9998396479222507,0.0004635697205585962
1599.2961877977827,1599.2961877977827,1.0002890814106427,0.000463217134273558
1599.3031321395658,1599.3031321395658,0.9997775892198488,0.0004634953910561729
1599.3100764813366,1599.3100764813366,1.0000451383701123,0.0004630101219401875
1599.3170208231074,1599.3170208231074,1.000113984207027,0.00046271735832056817
1599.3239651648432,1599.3239651648432,0.9999975064540317,0.0004627801480385918
1599.3309095065795,1599.3309095065795,1.0004090096415992,0.0004625818745286387
1599.3378538483034,1599.3378538483034,1.0001293429302271,0.0004622190965850547
1599.3447981900047,1599.3447981900047,0.999483513705749,0.00046203669779432404
1599.3517425317057,1599.3517425317057,1.0001134319001848,0.0004618472705204918
1599.3586868733714,1599.3586868733714,1.0005540229481333,0.00046175763108000637
1599.3656312150379,1599.3656312150379,0.9991191418351602,0.0004613481382886994
1599.3725755567039,1599.3725755567039,0.999928674638701,0.00046146026883114546
1599.3795198983348,1599.3795198983348,1.0003635448881916,0.00046126597420786676
1599.3864642399662,1599.3864642399662,0.999625477374997,0.0004609128642178711
1599.393408581574,1599.393408581574,0.9997587242539824,0.000460874979804935
1599.4003529231709,1599.4003529231709,0.9999548398013,0.0004609005797104589
1599.407297264755,1599.407297264755,1.0008559585674555,0.00046087151904086195
1599.4142416063162,1599.4142416063162,1.0005258171505371,0.0004606945231937964
1599.4211859478778,1599.4211859478778,0.9996887327790601,0.0004604883450118005
1599.4281302894037,1599.4281302894037,0.9997173076642127,0.00046047439096442104
1599.4350746309306,1599.4350746309306,1.0009803574826002,0.00046053211478890574
1599.442018972445,1599.442018972445,0.9993646744520467,0.0004604197885075414
1599.448963313948,1599.448963313948,1.0001304204532686,0.0004602454217986384
1599.4559076554401,1599.4559076554401,0.9993976505222782,0.0004602387938599722
1599.462851996896,1599.462851996896,0.9999196130003041,0.00046033027236432175
1599.4697963383649,1599.4697963383649,1.0006749461057338,0.00046022941344747557
1599.4767406797978,1599.4767406797978,0.9995430576296828,0.00046033722595015096
1599.4836850212191,1599.4836850212191,1.0008156953695253,0.00046026090472656926
1599.4906293626414,1599.4906293626414,0.9999200640133212,0.00046018037918681376
1599.4975737040158,1599.4975737040158,1.000759156142813,0.00046031056030135736
1599.5045180453913,1599.5045180453913,0.999464531051041,0.00046001874401698634
1599.511462386766,1599.511462386766,0.9998499674817765,0.0004600976308361955
1599.518406728141,1599.518406728141,0.9994202583392294,0.00046001759980369956
1599.525351069458,1599.525351069458,0.9999699581444041,0.0004602800012835878
1599.5322954107862,1599.5322954107862,0.9998768085554687,0.00046016711365687025
1599.5392397521036,1599.5392397521036,1.0006366438666663,0.00046018003640585167
1599.5461840933851,1599.5461840933851,1.0000492026884125,0.0004601881222327284
1599.553128434667,1599.553128434667,1.0004341820730431,0.00046007769543941773
1599.5600727759258,1599.5600727759258,1.0003008150701633,0.00046036700740025493
1599.5670171171728,1599.5670171171728,0.9998315480512006,0.00046040302703554553
1599.5739614583968,1599.5739614583968,1.0001946882729595,0.0004603337375539814
1599.5809057996319,1599.5809057996319,0.9992497444909979,0.0004602271322734032
1599.587850140832,1599.587850140832,1.000250370426206,0.00046031366303478735
1599.5947944820214,1599.5947944820214,1.0001829588686608,0.00046033971940437346
1599.6017388231862,1599.6017388231862,1.0000849932458686,0.0004605684936668882
1599.6086831643524,1599.6086831643524,0.9995044020154579,0.0004608676764418135
1599.6156275054827,1599.6156275054827,1.000119006412746,0.0004606986308064454
1599.6225718466133,1599.6225718466133,1.0001731251314177,0.000460766928501711
1599.6295161877092,1599.6295161877092,1.0002045302991953,0.00046100591924853754
1599.6364605288393,1599.6364605288393,0.9998949637301532,0.0004610134987064555
1599.6434048699,1599.6434048699,0.9999051080621586,0.00046148760647358203
1599.6503492109491,1599.6503492109491,1.000378980068417,0.0004611884976098681
1599.6572935520096,1599.6572935520096,1.00006943784111,0.0004613873499693137
1599.664237893036,1599.664237893036,0.9998056060198731,0.0004614593186120247
1599.6711822340612,1599.6711822340612,1.0004866579617313,0.0004615021541192325
1599.6781265750524,1599.6781265750524,1.0000389439745958,0.0004614375612612704
1599.6850709160433,1599.6850709160433,0.9995864464684641,0.0004614589437933381
1599.6920152570106,1599.6920152570106,1.0000607497339222,0.00046165447221801917
1599.6989595979671,1599.6989595979671,1.0002307156555892,0.00046176883849444606
1599.705903938911,1599.705903938911,0.9993973591449888,0.0004615386210810008
1599.712848279832,1599.712848279832,1.0002362083601954,0.000461609043041017
1599.7197926207416,1599.7197926207416,0.9998254010961547,0.0004615966869219323
1599.7267369616272,1599.7267369616272,1.000656812162027,0.0004618372729386521
1599.7336813024904,1599.7336813024904,1.0002696957262172,0.0004616192380842079
1599.740625643353,1599.740625643353,1.0002443238560188,0.0004615377913393527
1599.7475699842046,1599.7475699842046,0.9996675466948245,0.00046132675713146085
1599.7545143250325,1599.7545143250325,0.9997212825289153,0.0004614487122701211
1599.7614586658485,1599.7614586658485,0.9999626084789511,0.00046128136093961225
1599.7684030066414,1599.7684030066414,0.9997788011941809,0.0004613254364484355
1599.7753473474115,1599.7753473474115,0.999657954235636,0.00046128064728204855
1599.782291688169,1599.782291688169,1.0007094584342244,0.0004613266795985369
1599.7892360289156,1599.7892360289156,0.9994516086859525,0.0004613656397252423
