time,time,flux,flux_err
1325.2984515502446,1325.2984515502446,0.9997757212087096,0.0007032678096134845
1325.3067849794804,1325.3067849794804,0.9994328830474567,0.000703637361723728
1325.3144239564915,1325.3144239564915,1.0002461886879863,0.0006427512288698947
1325.3213684812479,1325.3213684812479,1.0001874633412586,0.000643089677261251
1325.3283130061905,1325.3283130061905,1.0003573805121575,0.0006435047397501857
1325.335257531308,1325.335257531308,1.0006096750858355,0.0006440957734918007
1325.3422020566115,1325.3422020566115,1.0003295301084436,0.0006447627399823367
1325.3491465821012,1325.3491465821012,1.0005127311076123,0.0006454821790421038
1325.3560911077657,1325.3560911077657,0.9991030843096589,0.0006459049701517837
1325.3630356335696,1325.3630356335696,1.0004640675457446,0.0006468452416437761
1325.36998015956,1325.36998015956,1.0010148081525991,0.0006477963890730184
1325.3769246857366,1325.3769246857366,0.9993774182205488,0.0006481617247216355
1325.3838692120648,1325.3838692120648,0.9997604567466858,0.0006490492953305611
1325.390813738579,1325.390813738579,0.9999146877901675,0.0006499432891058754
1325.3977582652326,1325.3977582652326,1.0007090296995986,0.0006507549813166865
1325.4047027920617,1325.4047027920617,0.999153257995026,0.0006512814947806716
1325.411647319041,1325.411647319041,0.999995893175066,0.000652076107228308
1325.4185918461728,1325.4185918461728,0.9998894945970294,0.0006527454825719132
1325.4255363734785,1325.4255363734785,1.000948718260095,0.0006537278874029211
1325.4324809009238,1325.4324809009238,1.0000514563541105,0.0006543190124710001
1325.4394254285212,1325.4394254285212,0.9993410801787863,0.0006548326163335127
1325.446369956269,1325.446369956269,1.000690617688581,0.0006557270793262779
1325.4533144841803,1325.4533144841803,1.0000316501508135,0.0006562336588767771
1325.4602590122079,1325.4602590122079,1.0006281514705317,0.0006570458676262705
1325.4672035403983,1325.4672035403983,0.9990947886774937,0.0006575900186246217
1325.4741480687292,1325.4741480687292,0.9991252181498587,0.0006582021554313848
1325.4810925971988,1325.4810925971988,1.0005570717465613,0.0006594366675124126
1325.488037125809,1325.488037125809,0.9980636165496979,0.0006595726427649409
1325.4949816545468,1325.4949816545468,1.0002177381324882,0.0006609146154891793
1325.501926183412,1325.501926183412,1.0006303846425182,0.0006619804384283918
1325.5088707124412,1325.5088707124412,1.0006916923922384,0.0006628928951024225
1325.515815241598,1325.515815241598,1.0002106548419984,0.0006636879603164128
1325.5227597708597,1325.5227597708597,0.9995593674080492,0.0006646989887661846
1325.5297043002606,1325.5297043002606,0.9997272343553648,0.0006656819323197516
1325.536648829802,1325.536648829802,1.0005006192043913,0.0006667463086281408
1325.5435933594479,1325.5435933594479,0.9999393836699284,0.000667629263793781
1325.5505378892449,1325.5505378892449,1.0004549081608154,0.0006687226659201457
1325.5574824191353,1325.5574824191353,0.9997121816891168,0.0006697536884907734
1325.5644269491654,1325.5644269491654,0.999625828833611,0.0006708588726781492
1325.5713714793,1325.5713714793,0.999478599852241,0.0006717421798397931
1325.5783160095516,1325.5783160095516,1.0002516143161184,0.0006730315841121849
1325.5852605399189,1325.5852605399189,0.9990276709003428,0.0006735570681796685
1325.592205070426,1325.592205070426,1.000297943018293,0.0006748991995540256
1325.599149601015,1325.599149601015,1.0004358398874227,0.0006757840686930658
1325.6060941317314,1325.6060941317314,1.0005418838627462,0.000676704061650543
1325.6130386625416,1325.6130386625416,1.0010770012339623,0.0006775310545874773
1325.6199831934914,1325.6199831934914,1.000416768214604,0.0006780167787406617
1325.6269277245108,1325.6269277245108,0.999537328074449,0.0006785385177858407
1325.6338722556584,1325.6338722556584,0.9993662115692932,0.000679028752937661
1325.6408167869226,1325.6408167869226,0.9986166628374564,0.0006794968299002393
1325.6477613182446,1325.6477613182446,0.9993233666258288,0.0006800657778463105
1325.6547058497067,1325.6547058497067,0.9996652999587301,0.0006806765835796048
1325.6616503812613,1325.6616503812613,1.001437618790461,0.0006816906626338184
1325.66859491291,1325.66859491291,1.0012237089418345,0.0006820675453855005
1325.675539444651,1325.675539444651,1.0002177156673757,0.000682358705099061
1325.6824839764972,1325.6824839764972,1.000174676778313,0.0006830651699673637
1325.6894285084363,1325.6894285084363,0.9994190019096842,0.0006837599058349442
1325.6963730404686,1325.6963730404686,0.9985845444745649,0.0006841766017589076
1325.7033175725944,1325.7033175725944,1.0003788128505176,0.0006852431242059434
1325.7102621048011,1325.7102621048011,1.0000564568731432,0.0006861362884053974
1325.7172066371013,1325.7172066371013,0.999755055241139,0.0006871431486640707
1325.724151169506,1325.724151169506,1.000307318269483,0.0006883623361196719
1325.7310957019806,1325.7310957019806,0.9999218735430327,0.0006891077504049886
1325.7380402345602,1325.7380402345602,1.0009260497797179,0.0006904256004665904
1325.7449847672094,1325.7449847672094,1.0006529412589233,0.0006914861991766465
1325.7519292999518,1325.7519292999518,0.9990928950007831,0.0006923412373117276
1325.7588738327645,1325.7588738327645,0.9993566661721157,0.0006936618411457308
1325.765818365681,1325.765818365681,0.999956301750802,0.0006949700139899249
1325.7727628986802,1325.7727628986802,1.0003985388554204,0.0006960851270546599
1325.7797074317248,1325.7797074317248,1.0005853433379626,0.0006972759485145243
1325.786651964864,1325.786651964864,0.9998824516023165,0.0006982597627546224
1325.793596498095,1325.793596498095,0.9997016619913633,0.0006995315346786179
1325.8005410314079,1325.8005410314079,0.9996864436873875,0.0007006571760719019
1325.807485564756,1325.807485564756,1.0002301151761581,0.0007016995539373481
1325.814430098208,1325.814430098208,0.9982407327684488,0.0007021220310527725
1325.821374631731,1325.821374631731,1.0004713035164632,0.0007031200248516536
1325.8283191653113,1325.8283191653113,1.0005108939650875,0.000703917293991819
1325.8352636989853,1325.8352636989853,1.0004625280819095,0.0007046592433912883
1325.8422082327293,1325.8422082327293,1.0000558378440092,0.0007052437995036906
1325.8491527665306,1325.8491527665306,0.9991872110549813,0.0007057404931066611
1325.856097300414,1325.856097300414,0.9999469881130864,0.0007060212096520861
1325.863041834344,1325.863041834344,1.000141569331129,0.0007063335782527973
1325.869986368367,1325.869986368367,1.0006773436101855,0.0007063846055239611
1325.8769309024367,1325.8769309024367,0.9991124501345509,0.0007058244576085531
1325.8838754365759,1325.8838754365759,1.0003046827591038,0.0007059375209678912
1325.8908199707855,1325.8908199707855,1.0001199878629718,0.0007059767209102829
1325.8977645050527,1325.8977645050527,0.9996695744547612,0.0007060118697935051
1325.9047090393901,1325.9047090393901,0.9999378288560953,0.0007060100743354356
1325.9116535737855,1325.9116535737855,1.000351373495982,0.0007065025865252291
1325.9185981082626,1325.9185981082626,0.99998914184198,0.0007064199373718778
1325.9255426427633,1325.9255426427633,1.0006034125118282,0.0007068819905425861
1325.9324871773333,1325.9324871773333,0.9997217665368028,0.0007070337854505708
1325.9394317119618,1325.9394317119618,0.9999830269746146,0.0007075917345459936
1325.94637624666,1325.94637624666,0.9999945990012687,0.0007078204714305447
1325.953320781405,1325.953320781405,0.9994404994514697,0.000708284233105653
1325.9608208790012,1325.9608208790012,0.998899131185175,0.000708714682590207
1325.9685987580574,1325.9685987580574,1.0007978532434183,0.0007099371564295674
1325.9755432929771,1325.9755432929771,0.999730145924393,0.0007105247643611698
1325.9824878279662,1325.9824878279662,1.0004271196133936,0.000711287142559379
1325.9894323630137,1325.9894323630137,1.0004578514689304,0.0007120822097825339
1325.9963768980847,1325.9963768980847,1.0001923251489395,0.0007131488016429681
1326.0033214332252,1326.0033214332252,0.9988719412138003,0.0007143253366503939
1326.0102659684126,1326.0102659684126,1.0010362981009187,0.0007159589272714226
1326.017210503658,1326.017210503658,0.9994868219857658,0.0007174204756920549
1326.0241550389499,1326.0241550389499,0.9993591577468642,0.0007190417896438414
1326.0310995743002,1326.0310995743002,1.0005176285959883,0.0007205625981679997
1326.0380441096734,1326.0380441096734,1.0006472355603377,0.0007208918932536939
1326.0449886451054,1326.0449886451054,0.9994813743772731,0.000721454933421065
1326.051933180595,1326.051933180595,0.9995840254386662,0.0007224047478483282
1326.0588777161197,1326.0588777161197,0.998821906692584,0.0007232993377493571
1326.065822251691,1326.065822251691,1.0001220536893844,0.0007243480772106753
1326.072766787332,1326.072766787332,1.0009344744275868,0.0007254545719869666
1326.079711322974,1326.079711322974,0.99924105485193,0.0007261414857176915
1326.0866558586963,1326.0866558586963,0.999887725734748,0.0007270967356964413
1326.0936003944425,1326.0936003944425,1.0005705260419016,0.000728188269986111
1326.100544930235,1326.100544930235,1.0013908884283085,0.0007292298759501182
1326.1074894660737,1326.1074894660737,1.0001083202851149,0.000729752045134938
1326.114434001948,1326.114434001948,0.9997512726365793,0.0007305725142433672
1326.1213785378684,1326.1213785378684,0.998621257726122,0.0007309603383723508
1326.1283230738359,1326.1283230738359,0.9989019684064013,0.0007318426563763232
1326.1352676098263,1326.1352676098263,0.9993588526690109,0.0007328037568681111
1326.1422121458866,1326.1422121458866,1.0000995640405776,0.000733706805817887
1326.1491566819589,1326.1491566819589,1.00017631731841,0.0007343388629579819
1326.1561012180769,1326.1561012180769,1.00115924206612,0.0007351175352424369
1326.163045754231,1326.163045754231,0.9998872485375007,0.0007357796590869577
1326.169990290442,1326.169990290442,0.999450217602338,0.0007361417711822879
1326.1769348266655,1326.1769348266655,1.0005725335507756,0.0007370165719771569
1326.1838793629238,1326.1838793629238,0.9999930479652568,0.0007374362703106297
1326.1908238992282,1326.1908238992282,0.9997058084010332,0.0007379150387148025
1326.1977684355802,1326.1977684355802,1.0002320075911086,0.0007387165227965474
1326.2047129719545,1326.2047129719545,1.0005181108128718,0.0007393472175578329
1326.2116575083528,1326.2116575083528,1.0001914086126216,0.0007399987645062687
1326.2186020447966,1326.2186020447966,0.9997829353827298,0.0007407655118096834
1326.2255465812764,1326.2255465812764,0.999593077320754,0.0007413547573368533
1326.2324911177907,1326.2324911177907,1.0000273128292183,0.000742215608864741
1326.2394356543277,1326.2394356543277,0.9990341999097268,0.0007426413342456876
1326.246380190901,1326.246380190901,0.9998622737345952,0.000743425463609305
1326.2533247275082,1326.2533247275082,1.0007359774171292,0.0007443900219475161
1326.2602692641508,1326.2602692641508,1.0010940179084016,0.0007452949945295891
1326.2672138008165,1326.2672138008165,1.0002112843412632,0.0007458648643960985
1326.2741583375166,1326.2741583375166,0.9994627989223641,0.0007463436417517927
1326.2811028742526,1326.2811028742526,0.9994458674129042,0.0007469209995497577
1326.2880474110111,1326.2880474110111,1.0005557055366592,0.0007477089979503934
1326.2949919478167,1326.2949919478167,0.9998980926866012,0.0007486955574138104
1326.3019364846216,1326.3019364846216,0.9999793263519068,0.0007494877030165078
1326.3088810214624,1326.3088810214624,0.9999789347137293,0.0007507218460218036
1326.315825558326,1326.315825558326,1.0002221019873905,0.0007519996951455998
1326.3227700952357,1326.3227700952357,1.001385095828942,0.0007533410102984584
1326.3297146321815,1326.3297146321815,0.9999140673245673,0.0007544173754637678
1326.336659169126,1326.336659169126,0.9998108492762923,0.0007558644538372036
1326.3436037061176,1326.3436037061176,0.9991978244896661,0.0007574223289750117
1326.3533260579247,1326.3533260579247,0.9996692097043226,0.0007598553846936233
1326.3602705949743,1326.3602705949743,1.0002322538450408,0.0007614311047865598
1326.3672151320475,1326.3672151320475,0.9988686360665765,0.0007627333190992681
1326.3741596691439,1326.3741596691439,1.0000003316866228,0.0007643030104218935
1326.381104206264,1326.381104206264,1.0010913674788373,0.0007660469743641307
1326.3880487434067,1326.3880487434067,1.0005041410197688,0.0007675608100245544
1326.394993280573,1326.394993280573,1.0002308872285908,0.0007690457023609767
1326.401937817774,1326.401937817774,1.0006103592297766,0.0007707493672190199
1326.408882354987,1326.408882354987,0.9982138554271053,0.0007716269480042639
1326.415826892235,1326.415826892235,1.0009028486361138,0.0007735080549702267
1326.4227714294943,1326.4227714294943,0.9997013298995224,0.0007746853250472538
1326.4297159667653,1326.4297159667653,1.000090400264885,0.0007759983195638785
1326.4366605040825,1326.4366605040825,0.9993410082451136,0.0007771567015360515
1326.443605041412,1326.443605041412,0.9999999749499031,0.0007787000503462653
1326.4505495787762,1326.4505495787762,0.9989652977381935,0.0007797482275686562
1326.4574941161286,1326.4574941161286,1.0005956386234305,0.000781261600760696
1326.4644386535394,1326.4644386535394,1.0003615344142096,0.0007825276436223801
1326.4713831909387,1326.4713831909387,0.9996163242678897,0.0007836395719776933
1326.4783277283727,1326.4783277283727,1.001060280359948,0.0007851800155413754
1326.4852722658184,1326.4852722658184,1.0006039329672016,0.0007863901927965851
1326.4922168032988,1326.4922168032988,1.0003079975325109,0.0007877321878007219
1326.4991613407913,1326.4991613407913,1.0001625850441875,0.0007890806598521769
1326.5061058782946,1326.5061058782946,1.0000610897402238,0.0007903892933575837
1326.5130504158337,1326.5130504158337,0.9988503445400904,0.0007915937237942521
1326.519994953384,1326.519994953384,0.9998537738496303,0.0007934319395994817
1326.5269394909465,1326.5269394909465,0.999689874428265,0.000795156178864163
1326.5338840285317,1326.5338840285317,1.0000843488820963,0.0007970384528001775
1326.5408285661401,1326.5408285661401,0.9994712638690839,0.0007985418029574449
1326.5477731037604,1326.5477731037604,0.9999937596648047,0.0008004233439713425
1326.5547176413925,1326.5547176413925,1.0002590623491199,0.0008018104398513781
1326.561662179071,1326.561662179071,1.000736462921593,0.0008030979650825292
1326.5686067167494,1326.5686067167494,0.9998130013833668,0.000803739252085864
1326.575551254428,1326.575551254428,1.000777341505545,0.0008049451177679681
1326.582495792106,1326.582495792106,0.9999603603034,0.0008061280775855146
1326.5894403298432,1326.5894403298432,1.0011472850191014,0.0008074781407105137
1326.5963848675797,1326.5963848675797,0.9982699784686293,0.0008083202148210065
1326.60332940534,1326.60332940534,1.0021414297208031,0.0008098591202432669
1326.6102739430883,1326.6102739430883,0.9990939170537004,0.0008104926310260526
1326.617218480883,1326.617218480883,0.9990533141621002,0.0008115020450622219
1326.6241630186894,1326.6241630186894,1.00086052382551,0.0008125623007089171
1326.6311075564843,1326.6311075564843,1.0001955834199188,0.0008131907011336047
1326.6380520943142,1326.6380520943142,1.000169941747322,0.0008137881179281932
1326.6449966321557,1326.6449966321557,1.0009169156241788,0.00081461919206063
1326.6519411700206,1326.6519411700206,1.0002209785313227,0.0008148562035936406
1326.6588857078855,1326.6588857078855,1.0007513328581727,0.0008147246394254615
1326.6658302457731,1326.6658302457731,1.000042814582533,0.0008149527789094961
1326.6727747836617,1326.6727747836617,0.9990633779748321,0.0008148102286684117
1326.6797193215843,1326.6797193215843,0.9996295807232368,0.0008147500954691312
1326.6874972040519,1326.6874972040519,1.0004082007649049,0.000814818210543653
1326.6949973050123,1326.6949973050123,0.9994997130021437,0.0008143969540972764
1326.7019418429702,1326.7019418429702,0.9994979582820978,0.0008141782680260291
1326.7091641624588,1326.7091641624588,1.0001263423228388,0.0008140758618633752
1326.7172198265034,1326.7172198265034,1.00107552463934,0.00081389365921881
1326.7241643644961,1326.7241643644961,0.9997816052465133,0.0008137446587482948
1326.7311089025006,1326.7311089025006,1.0001558724507116,0.000813469161151214
1326.738053440517,1326.738053440517,1.0009793420636857,0.0008136494870723083
1326.7449979785329,1326.7449979785329,0.9989589778821519,0.0008130875487721078
1326.751942516572,1326.751942516572,0.9994408254488858,0.0008129593830966148
1326.7588870546233,1326.7588870546233,1.001004063113177,0.0008133447267803186
1326.765831592674,1326.765831592674,0.9995043559123428,0.0008131805181838226
1326.7727761307488,1326.7727761307488,0.9977955265510687,0.0008134100927960965
1326.7797206688228,1326.7797206688228,0.9999725763637153,0.0008137563477551154
1326.7866652069088,1326.7866652069088,1.000347224994886,0.0008141149677794687
1326.7936097450179,1326.7936097450179,1.0012705219720603,0.000814991097761684
1326.8005542831156,1326.8005542831156,1.0009372102632375,0.0008152023111264476
1326.807498821248,1326.807498821248,0.9999222897252917,0.0008159464073796082
1326.8144433593686,1326.8144433593686,0.9989934794374735,0.0008162663656236388
1326.8213878975132,1326.8213878975132,0.9988282060425956,0.0008169134601122968
1326.828332435669,1326.828332435669,1.000003866083565,0.0008177491588803245
1326.8352769738128,1326.8352769738128,1.0006974773522557,0.0008178424685633829
1326.8422215119806,1326.8422215119806,0.9994381350489597,0.0008181665916270401
1326.8491660501595,1326.8491660501595,1.0003777535782101,0.0008186392292867915
1326.8561105883502,1326.8561105883502,1.0007142723455273,0.0008188124769303287
1326.8630551265296,1326.8630551265296,0.9999812492897979,0.0008182263150889471
1326.8699996647435,1326.8699996647435,1.0010258622946246,0.0008178875881642197
1326.8769442029457,1326.8769442029457,0.9995071740570456,0.00081691151593597
1326.8838887411598,1326.8838887411598,0.9990366476443653,0.0008158228501922524
1326.890833279397,1326.890833279397,1.0000073241934229,0.0008152324805139255
1326.897777817611,1326.897777817611,0.9992696035820263,0.0008139819668218529
1326.9047223558714,1326.9047223558714,0.9994834341222549,0.0008124950651185161
1326.9116668941322,1326.9116668941322,1.0006743325846086,0.0008109184451063841
1326.918611432393,1326.918611432393,0.9985093640619086,0.0008091085930636302
1326.9255559706532,1326.9255559706532,0.9999859771877896,0.0008073865770346857
1326.932500508914,1326.932500508914,1.0008610531235513,0.0008058176860346728
1326.9394450471743,1326.9394450471743,0.9997695225853256,0.000804049597658443
1326.9463895854583,1326.9463895854583,1.000587395521546,0.0008024332152229601
1326.9533341237538,1326.9533341237538,1.001205239237252,0.0008010741528596697
1326.9602786620494,1326.9602786620494,0.9997450087426974,0.0007994419215292406
1326.9672232003566,1326.9672232003566,0.9990683160593374,0.0007981453923208232
1326.9741677386635,1326.9741677386635,1.0008076020346397,0.0007972695665075432
1326.9811122769825,1326.9811122769825,0.9980634632268771,0.0007959882091332122
1326.988056815301,1326.988056815301,0.9993258266471745,0.0007954623011886457
1326.995001353632,1326.995001353632,0.9993261871206893,0.0007949952874052561
1327.001945891962,1327.001945891962,1.0007517176674097,0.0007946886959089756
1327.0088904303157,1327.0088904303157,1.001552902533279,0.0007944483307884519
1327.0158349686576,1327.0158349686576,1.0009991359273234,0.0007945287303948763
1327.0227795070114,1327.0227795070114,0.9996296996410299,0.0007944697618384389
1327.0297240453538,1327.0297240453538,0.998091839070398,0.0007943034992471216
1327.0366685837303,1327.0366685837303,0.9981225643137099,0.0007946900138792723
1327.0436131220963,1327.0436131220963,1.0016773852179204,0.0007957759967529829
1327.050557660473,1327.050557660473,0.9997478480478718,0.0007959372869540458
1327.0580577619223,1327.0580577619223,0.99997614563365,0.0007965711411185482
1327.0658356449026,1327.0658356449026,1.0003340720347997,0.0007971916721117428
1327.0727801833027,1327.0727801833027,0.9995519802710786,0.0007978063822140638
