time,time,flux,flux_err
1410.908895938913,1410.908895938913,0.9998223808745846,0.0001615082383092967
1410.916534945652,1410.916534945652,0.9999236042487276,0.00014744255299935113
1410.9234794972679,1410.9234794972679,0.999897959665554,0.0001474428190817068
1410.930424048743,1410.930424048743,0.9998845933979605,0.00014743486303370605
1410.9373686003116,1410.9373686003116,1.000156222735818,0.00014744386941441395
1410.944313151787,1410.944313151787,0.999990471453245,0.00014744267594126175
1410.9512577032626,1410.9512577032626,0.9998257483451024,0.00014742081413774392
1410.9582022547386,1410.9582022547386,0.9996859883556855,0.00014741813914124447
1410.9665357164617,1410.9665357164617,1.0000288845281806,0.00014738194238084337
1410.9826470756896,1410.9826470756896,1.0001718675835765,0.00014741491774016545
1410.9901471911066,1410.9901471911066,1.0001849461434105,0.000147421462936646
1410.9998695630325,1410.9998695630325,1.0002027468711867,0.0001473521292480777
1411.0095919347725,1411.0095919347725,0.9998329754027753,0.0001473991193772626
1411.0165364859681,1411.0165364859681,0.9996534668103857,0.00014737181739239437
1411.0234810372112,1411.0234810372112,1.000098887709553,0.00014739920707910518
1411.0304255884075,1411.0304255884075,0.9996246024902173,0.00014735173484852442
1411.0373701394633,1411.0373701394633,0.9999318726439013,0.00014737300872786884
1411.0443146907064,1411.0443146907064,0.9999090575501274,0.00014737191954534987
1411.0523703698775,1411.0523703698775,0.9999345790810347,0.00014735851823806378
1411.059592702928,1411.059592702928,1.0003875986225506,0.00014739062969919037
1411.0665372539377,1411.0665372539377,0.9999843085524691,0.0001473505655081896
1411.0734818049473,1411.0734818049473,1.0001294323288135,0.0001473661156002579
1411.0804263557716,1411.0804263557716,1.0000785006456323,0.0001473505142468269
1411.0873709066877,1411.0873709066877,0.9999944965239923,0.0001473238653835914
1411.0943154575114,1411.0943154575114,0.9999765346960702,0.00014734719401142562
1411.1012600082888,1411.1012600082888,0.9995084137948984,0.0001473293805474898
1411.1082045590656,1411.1082045590656,0.9998710082235924,0.0001473229722941756
1411.1151491097498,1411.1151491097498,0.9999012694249594,0.0001473241887035483
1411.1220936604798,1411.1220936604798,1.000168453511462,0.0001473586504311259
1411.1290382110706,1411.1290382110706,0.9999147136011499,0.00014728986804439466
1411.1359827616614,1411.1359827616614,1.0001688962638176,0.0001473670564974436
1411.1429273122053,1411.1429273122053,1.0002669707701328,0.0001473409782556608
1411.1498718627504,1411.1498718627504,1.0000532900394892,0.00014733268922275305
1411.1568164131538,1411.1568164131538,1.0002996638137485,0.00014733302359447051
1411.163760963559,1411.163760963559,0.9994755882265866,0.00014729517701716444
1411.170705513917,1411.170705513917,1.0003068626353206,0.00014730839032114739
1411.1776500641813,1411.1776500641813,1.0001717300905244,0.00014734064640961668
1411.1845946144936,1411.1845946144936,0.9996993337856066,0.0001472961892706739
1411.1915391646644,1411.1915391646644,0.9998340348300436,0.000147308805735233
1411.1984837148364,1411.1984837148364,1.0000922287896108,0.0001473087340656109
1411.2054282649615,1411.2054282649615,1.000696972702332,0.00014733746050785084
1411.2123728149927,1411.2123728149927,1.0001687686553775,0.00014729512881138387
1411.219317364979,1411.219317364979,0.999804806410744,0.00014725449012275448
1411.226261915057,1411.226261915057,1.0001154298866493,0.0001472835647513703
1411.233206464903,1411.233206464903,0.9999511812633454,0.00014724337216803258
1411.2401510147488,1411.2401510147488,1.0000066320685068,0.00014725017123838488
1411.2470955645942,1411.2470955645942,1.0000260283106082,0.00014727397551238507
1411.2540401142076,1411.2540401142076,1.0000261925418612,0.00014724495921863393
1411.2609846639598,1411.2609846639598,0.9999842531139127,0.00014725601489896868
1411.2679292136195,1411.2679292136195,0.9998350314565446,0.00014723867257749598
1411.2748737631857,1411.2748737631857,0.9999054494867389,0.00014720967480985234
1411.2818183127051,1411.2818183127051,0.9999019370119113,0.00014720863063117024
1411.2887628621788,1411.2887628621788,1.0002695390757685,0.0001472400769872144
1411.2957074115584,1411.2957074115584,1.0003505056673148,0.0001472646842024143
1411.3026519609389,1411.3026519609389,0.9994658722786068,0.00014717462062303622
1411.3095965102257,1411.3095965102257,0.9999545561003726,0.00014723974838620884
1411.3165410595122,1411.3165410595122,1.0001738367020918,0.0001472474969055003
1411.32348560866,1411.32348560866,0.9998969610876772,0.00014722917012604037
1411.3304301577602,1411.3304301577602,0.9998685298145669,0.00014720814491431727
1411.337374706861,1411.337374706861,0.9999451957726766,0.00014719433979176405
1411.344319255822,1411.344319255822,1.0001720126087505,0.0001472338997123482
1411.3512638047828,1411.3512638047828,0.9998388135216727,0.00014722771668738616
1411.3582083536976,1411.3582083536976,1.0003258811111693,0.00014723606993182083
1411.3651529024253,1411.3651529024253,1.000181132959364,0.00014720779604904423
1411.3720974513403,1411.3720974513403,1.000095549092917,0.00014719638326450153
1411.3790420000214,1411.3790420000214,1.0002490271962048,0.0001472311905286722
1411.3859865486563,1411.3859865486563,0.9995292819225325,0.00014716015910891993
1411.3929310971519,1411.3929310971519,1.0000994058634818,0.00014718276610363804
1411.399875645693,1411.399875645693,0.9999385476483911,0.00014716296980917077
1411.4068201941427,1411.4068201941427,0.9998057710728453,0.0001471472927029587
1411.4137647425446,1411.4137647425446,0.999960090894797,0.0001471525600526642
1411.4207092908534,1411.4207092908534,1.0006091598283113,0.00014717683432631285
1411.4276538391161,1411.4276538391161,1.000082072275609,0.00014716369583499473
1411.4345983873313,1411.4345983873313,0.9999652591263365,0.00014713764096015706
1411.4415429354085,1411.4415429354085,1.0000317319022485,0.00014711521563568467
1411.4484874835307,1411.4484874835307,1.0001941988982015,0.000147128117904163
1411.4554320315601,1411.4554320315601,0.9998759434686317,0.000147130690620453
1411.4623765794506,1411.4623765794506,0.9998931911694736,0.00014714384410795524
1411.4693211273866,1411.4693211273866,0.999999379330599,0.0001471194293987239
1411.476265675184,1411.476265675184,1.000362569291743,0.00014715587059903307
1411.4832102229338,1411.4832102229338,0.9997910769846687,0.00014710644446371018
1411.4901547705913,1411.4901547705913,1.0001084179535782,0.0001471596185923042
1411.4970993182949,1411.4970993182949,0.9999117910393158,0.00014712865406949356
1411.5040438658118,1411.5040438658118,0.9997340389800129,0.000147102051245881
1411.5109884133296,1411.5109884133296,0.9998114658567523,0.0001470924082269938
1411.5179329606603,1411.5179329606603,1.0000816880538261,0.00014709747815061768
1411.5248775080386,1411.5248775080386,0.9999777897912379,0.00014709969228374716
1411.5318220553231,1411.5318220553231,1.0002701289674794,0.00014712734673237113
1411.5387666025608,1411.5387666025608,1.0004407865079732,0.00014712020061807683
1411.5457111496596,1411.5457111496596,1.0001150323565535,0.00014706833720659748
1411.5526556967575,1411.5526556967575,1.0003226592918635,0.00014709266364818337
1411.5596002438099,1411.5596002438099,0.9998151479370975,0.00014707242506710976
1411.5665447907213,1411.5665447907213,0.9997233628647002,0.00014703268754211017
1411.573489337587,1411.573489337587,0.9996610597954181,0.00014703486643196972
1411.580433884406,1411.580433884406,0.999738057648656,0.00014703190830747486
1411.5873784311311,1411.5873784311311,1.000057485138825,0.00014707480702851283
1411.5943229778113,1411.5943229778113,1.0000331934047946,0.0001470707142292225
1411.6012675243965,1411.6012675243965,1.0002795746583342,0.00014708056327524232
1411.6082120708902,1411.6082120708902,0.999947569740286,0.00014704907187331032
1411.6151566174763,1411.6151566174763,0.9997230854194573,0.00014703162770810017
1411.6221011638288,1411.6221011638288,1.0003102701958835,0.00014704755550762756
1411.629045710183,1411.629045710183,0.9999802776460459,0.0001470326702730442
1411.6359902563026,1411.6359902563026,1.000113743779377,0.0001470489136301593
1411.642934802563,1411.642934802563,0.999861842279488,0.00014700781101027846
1411.6498793486835,1411.6498793486835,0.9999356457785918,0.00014701736186377494
1411.6568238947104,1411.6568238947104,1.0000561825760672,0.00014702285232144082
1411.6637684406917,1411.6637684406917,0.9995736293609963,0.0001469726496465176
1411.6707129865786,1411.6707129865786,1.0001594011246115,0.00014701624166543972
1411.677657532374,1411.677657532374,0.9998321676332805,0.00014698394247953864
1411.6846020781682,1411.6846020781682,0.9998774930009302,0.00014696530039276398
1411.6915466238693,1411.6915466238693,1.0001142288453262,0.0001470099752412855
1411.6984911694312,1411.6984911694312,1.0001069864146606,0.0001470020902317492
1411.7054357150391,1411.7054357150391,1.000449236694948,0.00014699833131843635
1411.712380260508,1411.712380260508,0.9999090397831708,0.00014696426081651373
1411.7193248059295,1411.7193248059295,1.0002230434161912,0.00014700254628534034
1411.7262693512123,1411.7262693512123,1.0000615339760357,0.00014697109771563859
1411.7332138964011,1411.7332138964011,0.9997349836584007,0.0001469529906502399
1411.74015844159,1411.74015844159,0.9997746041351672,0.00014694036747827348
1411.7471029867795,1411.7471029867795,1.0000812580701857,0.00014697158924575256
1411.7540475318751,1411.7540475318751,1.0004247405557174,0.00014699775664744018
1411.760992076832,1411.760992076832,0.9997474900655694,0.0001469621092979404
1411.7679366217412,1411.7679366217412,0.9997867565626171,0.0001469575797132078
1411.7748811666047,1411.7748811666047,0.9997281205748518,0.0001469262830636001
1411.781825711328,1411.781825711328,0.9998657269478828,0.00014694817443477914
1411.7887702560045,1411.7887702560045,1.0005258170239342,0.00014698108390826827
1411.7957148005892,1411.7957148005892,1.000369434324042,0.00014695990894331902
1411.802659345172,1411.802659345172,0.9999428522465916,0.00014695492120971677
1411.809603889663,1411.809603889663,0.9999077684412325,0.00014692408791924322
1411.8165484340605,1411.8165484340605,0.9999786562379509,0.0001469334493567472
1411.8234929783644,1411.8234929783644,0.9998506586570105,0.00014692742888655234
1411.830437522623,1411.830437522623,1.0001471480786468,0.0001469427338137062
1411.8373820667869,1411.8373820667869,1.00002709546566,0.00014691715870868112
1411.8443266108125,1411.8443266108125,0.9996022119363651,0.00014689366200121396
1411.8512711548374,1411.8512711548374,1.0001864141501173,0.00014694038885016948
1411.858215698862,1411.858215698862,0.9999196777959722,0.0001469193463239891
1411.865160242794,1411.865160242794,0.9998391932769725,0.00014690509541079034
1411.8721047865859,1411.8721047865859,1.000344825456195,0.00014693589753312695
1411.8790493303318,1411.8790493303318,0.99977019807086,0.00014687588322904348
1411.8859938739374,1411.8859938739374,0.9997973242862939,0.00014688351487550014
1411.8929384175904,1411.8929384175904,1.0002506850014206,0.00014692521964319952
1411.8998829611023,1411.8998829611023,1.0002197865318956,0.00014691120584737393
1411.9068275045227,1411.9068275045227,1.0001488996179408,0.0001469003843978973
1411.9137720479423,1411.9137720479423,1.0000439677476207,0.0001468704716952643
1411.9207165912217,1411.9207165912217,0.9996148230882576,0.00014683911507442637
1411.9276611344558,1411.9276611344558,0.9999962224769872,0.00014688627783513846
1411.9346056775953,1411.9346056775953,1.0000612997772822,0.0001468744037889946
1411.9415502206427,1411.9415502206427,0.999793538496679,0.0001468482928458046
1411.948494763736,1411.948494763736,0.9998925883003384,0.00014686260285082933
1411.9554393065966,1411.9554393065966,1.000192328371314,0.00014689440796275625
1411.9623838494579,1411.9623838494579,1.0001461579374706,0.00014687532560129048
1411.9693283923182,1411.9693283923182,1.0003731909746887,0.0001468904738731613
1411.9762729349466,1411.9762729349466,0.999970656662404,0.0001468393537525855
1411.9832174776209,1411.9832174776209,0.9996036088869997,0.00014681812852333095
1411.9901620201563,1411.9901620201563,0.9997525226447802,0.0001468388753104954
1411.9971065626446,1411.9971065626446,1.0003298869062656,0.0001468587494953526
1412.0040511050393,1412.0040511050393,0.9999807237895617,0.0001468635252220679
1412.0109956474348,1412.0109956474348,0.9999720571736542,0.0001468357591121733
1412.0179401896899,1412.0179401896899,1.0004640703626388,0.0001468736116436135
1412.0248847318526,1412.0248847318526,1.0000015664069537,0.00014684699034351196
1412.031829273968,1412.031829273968,0.9999621287736657,0.0001468327646527246
1412.0387738159905,1412.0387738159905,0.9998251287429577,0.00014680865404103808
1412.0457183579667,1412.0457183579667,0.9996495211085149,0.00014674634046671768
1412.0526628998964,1412.0526628998964,1.0001261672575845,0.0001468230277971262
1412.059607441733,1412.059607441733,1.0002118938090832,0.0001468309136104412
1412.0665519835222,1412.0665519835222,1.0002190105580047,0.00014683131084006462
1412.0734965251731,1412.0734965251731,0.9998434660466676,0.00014681580605611222
1412.0804410666829,1412.0804410666829,0.9999746306175871,0.00014681052312918094
1412.0873856082399,1412.0873856082399,1.0000045124833192,0.00014679946218351008
1412.0943301497039,1412.0943301497039,1.000181550107296,0.000146805377563684
1412.1012746910742,1412.1012746910742,0.9999449320462361,0.00014679006394538002
1412.1082192323988,1412.1082192323988,0.9999043180182022,0.0001467891615637281
1412.115163773583,1412.115163773583,0.99986585531111,0.00014679281882359744
1412.122108314721,1412.122108314721,0.9997995710589775,0.00014677240449085852
1412.1290528558122,1412.1290528558122,0.9999883787219982,0.0001467798078170392
1412.135997396857,1412.135997396857,1.0003285268950532,0.00014679947416498018
1412.1429419377623,1412.1429419377623,1.0001260560124827,0.00014676753143792035
1412.1498864786204,1412.1498864786204,0.9998928340493801,0.00014676024149976307
1412.156831019433,1412.156831019433,0.99984751575189,0.00014675906361321124
1412.163775560058,1412.163775560058,1.0002898411257344,0.00014679077553185737
1412.1707201008235,1412.1707201008235,0.9998687684021933,0.0001467445796899269
1412.177664641356,1412.177664641356,1.0000897567119296,0.0001467580656055591
1412.184609181842,1412.184609181842,0.9998137840508694,0.00014675134731966162
1412.191553722188,1412.191553722188,0.9997431119354733,0.00014673644183330718
1412.198498262534,1412.198498262534,1.000300244756398,0.0001467736965341068
1412.2054428028346,1412.2054428028346,0.9997510962220046,0.00014673809973379494
1412.2123873429937,1412.2123873429937,0.9999992688764202,0.00014674803441129257
1412.219331883108,1412.219331883108,0.9997402151171467,0.00014672097602072667
1412.2262764231743,1412.2262764231743,0.9998863125208072,0.00014672778674132425
1412.2332209631015,1412.2332209631015,0.9998313555923815,0.0001467208207416488
1412.2401655029823,1412.2401655029823,0.999815689775982,0.00014670753210024293
1412.2471100428156,1412.2471100428156,0.9997230051635315,0.00014669473001358238
1412.2548879273281,1412.2548879273281,1.0005023139951428,0.00014673190329717595
1412.2634991565171,1412.2634991565171,1.0001145825142495,0.00014661553121569747
1412.273499293487,1412.273499293487,0.9994539686916359,0.00014659870281424962
1412.2848883380516,1412.2848883380516,1.0000606473831615,0.0001466570422380638
1412.2929440037183,1412.2929440037183,0.9998448142015286,0.00014664368226185225
1412.2998885429938,1412.2998885429938,0.9999361280205218,0.00014670413129953166
1412.306833082176,1412.306833082176,1.0000207438180093,0.00014670278875303478
1412.3137776212648,1412.3137776212648,1.000102589817657,0.00014669362675091287
1412.3207221603539,1412.3207221603539,1.0001483252964474,0.00014671655369446338
1412.327666699256,1412.327666699256,0.9997314664881107,0.00014662231048410065
1412.3346112381128,1412.3346112381128,1.0001102445998429,0.0001467148730882249
1412.341555776922,1412.341555776922,1.000229963885086,0.00014669543575566293
1412.3485003156854,1412.3485003156854,1.0002910552726776,0.00014664629532521898
1412.3554448543086,1412.3554448543086,0.9999325726977244,0.00014664773709894746
1412.3623893928855,1412.3623893928855,0.9997757136684029,0.00014662227464002807
1412.3693339314154,1412.3693339314154,1.0002982877504956,0.00014668136807806045
1412.3762784698524,1412.3762784698524,1.0000896470440936,0.00014669440532826393
1412.3832230082899,1412.3832230082899,0.9997264006611084,0.00014665743157708577
1412.3901675464933,1412.3901675464933,1.0000930136254997,0.00014669916157872542
1412.3971120846984,1412.3971120846984,0.9998071237833157,0.00014667982152068913
1412.4040566229019,1412.4040566229019,1.000116491852691,0.00014667410427730187
1412.4110011609203,1412.4110011609203,1.0000937744792635,0.000146651157813922
1412.4179456989384,1412.4179456989384,1.0002946094058316,0.00014663985914458884
1412.4248902368627,1412.4248902368627,0.9995045984054276,0.00014664950973375526
1412.4318347746948,1412.4318347746948,1.0001413317312275,0.00014670210932245635
1412.4387793124329,1412.4387793124329,0.9997955413445438,0.00014666949239939506
1412.445723850172,1412.445723850172,1.0002206835352703,0.0001466739076945146
1412.4526683877705,1412.4526683877705,1.0001813369298544,0.00014667263551488614
1412.4596129253227,1412.4596129253227,0.9997886074393036,0.0001466064185234917
1412.4665574627818,1412.4665574627818,1.0006183370216086,0.0001466810062005433
1412.4735020001947,1412.4735020001947,0.9997293958941793,0.0001466138392228347
1412.4804465375141,1412.4804465375141,0.9998126456909031,0.00014656055224355853
1412.4873910747865,1412.4873910747865,0.999561449662685,0.0001466289857965649
1412.4943356119202,1412.4943356119202,1.0001371538872215,0.00014666323532595024
1412.5012801491462,1412.5012801491462,1.0000028872564528,0.0001466152311843903
1412.5082246861407,1412.5082246861407,0.999769780239976,0.0001466405824428684
1412.5151692229938,1412.5151692229938,1.0003738298386566,0.00014667553315891892
1412.5221137599408,1412.5221137599408,1.0001839891400364,0.00014667184078359484
1412.529058296748,1412.529058296748,1.0002543172246554,0.00014667339804121161
1412.5360028335085,1412.5360028335085,1.0001710988802404,0.00014666785775178302
1412.5429473701297,1412.5429473701297,0.9995435270468498,0.00014661942712399482
1412.5498919067504,1412.5498919067504,1.0000860579288535,0.00014666705466835015
1412.5568364431856,1412.5568364431856,0.9998478721545947,0.0001466474038360549
1412.5637809796667,1412.5637809796667,1.0000586612699325,0.00014665540258088376
1412.5707255160548,1412.5707255160548,0.9998807572397628,0.0001466489512523534
1412.5776700523031,1412.5776700523031,1.0003134988320852,0.00014667675298653222
1412.5846145885985,1412.5846145885985,0.9998779255595313,0.0001466597951629262
1412.5915591247071,1412.5915591247071,1.0003145468445536,0.00014669441221455012
1412.598503660769,1412.598503660769,1.000074381184867,0.00014666427977192814
1412.6054481968317,1412.6054481968317,0.9999833960733051,0.00014666956163191918
1412.612392732707,1412.612392732707,1.0001407296899214,0.0001466742328799147
1412.6193372685836,1412.6193372685836,0.9999070740999443,0.00014665393664647946
1412.6262818043658,1412.6262818043658,0.9997268756845166,0.00014660393005543152
1412.6332263401023,1412.6332263401023,0.9999156140310627,0.00014666193934102824
1412.640170875699,1412.640170875699,0.9998073129669105,0.0001466615264397005
1412.6471154112955,1412.6471154112955,0.9997945716532648,0.00014666407102221582
1412.654059946752,1412.654059946752,1.0001859760349747,0.00014669065786437373
1412.661004482162,1412.661004482162,0.9997806936131823,0.00014666345737997894
1412.667949017573,1412.667949017573,1.0002470622160966,0.00014669450005542396
1412.6748935527964,1412.6748935527964,1.0004498268617465,0.00014670136670306334
1412.6818380879745,1412.6818380879745,0.9996314568040408,0.00014659188279900795
