time,time,flux,flux_err
1325.298807322769,1325.298807322769,1.0002274219751104,0.0002065955341395071
1325.3071404771779,1325.3071404771779,0.9999918060408688,0.00020651016856880616
1325.315473631936,1325.315473631936,0.9998970171551784,0.00020650243860591633
1325.3238067870432,1325.3238067870432,0.9998188614824595,0.00020648575451500938
1325.3314455128382,1325.3314455128382,0.9999849579202472,0.00018851172370241246
1325.338389809275,1325.338389809275,0.9997483526878664,0.00018850826641682428
1325.3453341059392,1325.3453341059392,1.0000213603467951,0.00018853289605986202
1325.3522784028414,1325.3522784028414,1.0001341119963942,0.0001885545168178232
1325.3592226999651,1325.3592226999651,0.9998068057300546,0.00018854868735956095
1325.366166997322,1325.366166997322,1.0003105424865553,0.00018861531736789148
1325.373111294905,1325.373111294905,1.0001474242947492,0.0001885962388902127
1325.3800555927041,1325.3800555927041,0.9999875832124806,0.00018862130009860795
1325.3869998907185,1325.3869998907185,0.9998633518727684,0.000188640908591794
1325.393944188971,1325.393944188971,0.9999906337842639,0.0001886740495834997
1325.4008884874338,1325.4008884874338,0.9999716717368388,0.00018869651445875093
1325.4078327861116,1325.4078327861116,1.0000474337770686,0.00018872874188311152
1325.414777084999,1325.414777084999,0.9998581437943498,0.00018872595968393575
1325.4217213841073,1325.4217213841073,1.000407533850327,0.00018882540184811787
1325.4286656834254,1325.4286656834254,1.000006473567824,0.00018880558546032947
1325.4356099829474,1325.4356099829474,0.9999355754825494,0.00018883598727678408
1325.4425542826843,1325.4425542826843,0.9996877602284984,0.00018881769955073928
1325.4494985826254,1325.4494985826254,0.9995546054003945,0.0001888454442448431
1325.4564428827641,1325.4564428827641,1.0003000004783167,0.00018894046972103463
1325.4633871831068,1325.4633871831068,1.0001649247418836,0.00018895812798077507
1325.470331483653,1325.470331483653,1.0002354289793978,0.0001889823077624967
1325.4772757843975,1325.4772757843975,0.9998138723435066,0.00018898392074585482
1325.4842200853334,1325.4842200853334,1.0000183577959993,0.00018904330654181828
1325.491164386468,1325.491164386468,1.0000424900596987,0.00018904819568135026
1325.4981086878,1325.4981086878,1.0001469307906845,0.0001890894843688709
1325.5050529893183,1325.5050529893183,0.9999680150382677,0.00018910433696079555
1325.5119972910286,1325.5119972910286,0.9997021943445388,0.00018910284950243828
1325.5189415929312,1325.5189415929312,0.9996826307713391,0.0001891224218018261
1325.5258858950142,1325.5258858950142,1.0001193519637868,0.0001892056963088368
1325.532830197289,1325.532830197289,1.0001725292940697,0.00018922677679219702
1325.5397744997326,1325.5397744997326,1.0003158530044651,0.00018925340544482513
1325.5467188023692,1325.5467188023692,0.9996446952718454,0.00018923591234331483
1325.5536631051853,1325.5536631051853,1.0000939545727943,0.00018929926830927376
1325.5606074081766,1325.5606074081766,1.0002881328578745,0.00018932423289055883
1325.567551711342,1325.567551711342,1.0002146725244763,0.0001893431780185762
1325.574496014688,1325.574496014688,0.9998184825579932,0.00018934752325274655
1325.5814403182032,1325.5814403182032,0.9998250068962802,0.00018936244386797611
1325.5883846218921,1325.5883846218921,0.9996573368921269,0.00018936881655926186
1325.595328925751,1325.595328925751,1.0001811701653367,0.0001894216110420309
1325.6022732297777,1325.6022732297777,1.0002970806249691,0.0001894506618121232
1325.6092175339738,1325.6092175339738,0.9996683596873213,0.0001894211337706259
1325.616161838327,1325.616161838327,1.0003405823678437,0.0001894849073397332
1325.6231061428546,1325.6231061428546,1.0002469237871014,0.0001894660771213506
1325.6300504475396,1325.6300504475396,1.0000593272874854,0.00018946243265522685
1325.6369947523874,1325.6369947523874,1.000017152869058,0.0001894782264621754
1325.643939057398,1325.643939057398,0.9996385837225134,0.0001894262468717356
1325.6508833625603,1325.6508833625603,1.0000435578154045,0.0001894691134158912
1325.6578276678792,1325.6578276678792,1.0000948843924555,0.00018947942630906213
1325.664771973356,1325.664771973356,0.9998841267153713,0.00018945433474601157
1325.671716278984,1325.671716278984,1.0000265513129913,0.00018946718952792782
1325.6786605847633,1325.6786605847633,1.0001335445356123,0.00018948034194174118
1325.6856048906993,1325.6856048906993,0.9999849129143523,0.0001894821153098609
1325.6925491967693,1325.6925491967693,0.9999251231688181,0.00018948322490898665
1325.699493502997,1325.699493502997,1.0000077700794474,0.0001894981119349547
1325.7064378093758,1325.7064378093758,1.0001030119635774,0.00018952310289018236
1325.713382115894,1325.713382115894,0.9999887674855742,0.0001895324506088532
1325.7203264225636,1325.7203264225636,0.9999823747098734,0.00018953475561487576
1325.7272707293616,1325.7272707293616,1.0002671709953026,0.00018957673415905026
1325.734215036305,1325.734215036305,0.9997351866721577,0.0001895507480444271
1325.7411593433935,1325.7411593433935,0.9997955751496939,0.0001895673221402307
1325.7481036506103,1325.7481036506103,1.000098144730316,0.0001895933407343746
1325.7550479579847,1325.7550479579847,0.9999498015942805,0.00018960306816673115
1325.761992265469,1325.761992265469,1.0000313093369806,0.00018963746014793043
1325.7689365730994,1325.7689365730994,0.999861161541092,0.0001896409371788406
1325.7758808808633,1325.7758808808633,1.0001112387809488,0.00018969199300427166
1325.7828251887613,1325.7828251887613,1.0002950204934165,0.00018972594638734156
1325.7897694967814,1325.7897694967814,1.0000505636904091,0.0001897269787458754
1325.7967138049412,1325.7967138049412,0.9999570180669318,0.00018970616565642243
1325.8036581132178,1325.8036581132178,0.9999587840769845,0.000189718342765627
1325.8106024216218,1325.8106024216218,0.9999527185140831,0.00018974386259753342
1325.8175467301658,1325.8175467301658,1.0000307161984159,0.00018974708316444501
1325.8244910388264,1325.8244910388264,0.9996272537846768,0.00018972805458823883
1325.8314353476092,1325.8314353476092,0.9997619240799333,0.00018976067633247
1325.838379656514,1325.838379656514,1.0000376649166118,0.00018975649591560293
1325.8453239655353,1325.8453239655353,1.0002102992901245,0.00018979369198884503
1325.8522682746843,1325.8522682746843,1.000157778566654,0.00018977363868281292
1325.8592125839446,1325.8592125839446,1.0000927696486452,0.00018975446342056254
1325.8661568933326,1325.8661568933326,1.000014538256039,0.00018973740453884667
1325.8731012028315,1325.8731012028315,1.0000081996191261,0.00018971415957583403
1325.8800455124467,1325.8800455124467,1.000129070890383,0.00018971454238251822
1325.886989822178,1325.886989822178,1.0000840202698869,0.00018969650740266545
1325.893934132014,1325.893934132014,0.9999576570542843,0.00018967797036843073
1325.9008784419668,1325.9008784419668,0.999873909781618,0.0001896774288158314
1325.9078227520358,1325.9078227520358,0.9997302516185715,0.00018965376072113698
1325.9147670622037,1325.9147670622037,1.0001110137115086,0.00018966461769855857
1325.9217113724824,1325.9217113724824,0.999913741674138,0.0001896553269137093
1325.9286556828774,1325.9286556828774,1.0002405638472247,0.00018968721122178677
1325.9355999933714,1325.9355999933714,0.999999606748019,0.0001896718518108749
1325.9425443039759,1325.9425443039759,1.0002881976746654,0.0001896761726394435
1325.9494886146854,1325.9494886146854,0.9998946187540169,0.00018964847074394686
1325.9564329254995,1325.9564329254995,0.999906268448483,0.00018964324664723278
1325.9644883261778,1325.9644883261778,0.9998371644826676,0.00018961226736415574
1325.9717104096574,1325.9717104096574,1.0001568604715927,0.0001896616305740721
1325.9786547207855,1325.9786547207855,1.0000390460935054,0.0001896636550065049
1325.9855990320248,1325.9855990320248,0.9999860150073175,0.00018967310651969092
1325.9925433433687,1325.9925433433687,0.9999688945067543,0.00018966181454905254
1325.9994876548058,1325.9994876548058,1.000190837234983,0.00018968811105852368
1326.0064319663354,1326.0064319663354,1.000133970998683,0.00018970348854199353
1326.0133762779765,1326.0133762779765,1.0000532646171758,0.00018969646633356654
1326.0203205896926,1326.0203205896926,0.9995601966746352,0.00018967371247929584
1326.027264901508,1326.027264901508,1.000012421300543,0.00018973809916149803
1326.0342092134222,1326.0342092134222,1.0000999945290716,0.00018973007126019345
1326.0411535254293,1326.0411535254293,0.9997975218434798,0.00018970662913586964
1326.0480978375303,1326.0480978375303,0.9999818833134715,0.00018970420445100627
1326.0550421497178,1326.0550421497178,1.0000616487961334,0.00018972917292495536
1326.0619864619987,1326.0619864619987,1.0004036479322735,0.0001897377055674453
1326.0689307743671,1326.0689307743671,0.9999208810559367,0.0001897162424298159
1326.0758750868285,1326.0758750868285,1.0001344422313698,0.00018973552947778864
1326.0828193993716,1326.0828193993716,0.999754388600584,0.0001896914188209405
1326.0897637120074,1326.0897637120074,0.9998991968982042,0.00018971588093836644
1326.096708024725,1326.096708024725,0.9999382524524998,0.00018972033828294207
1326.1036523375356,1326.1036523375356,1.0002617170180819,0.00018973907399003133
1326.110596650416,1326.110596650416,0.9998268476410809,0.00018970303838200365
1326.1175409633897,1326.1175409633897,1.000173385471971,0.00018973313443824676
1326.1244852764446,1326.1244852764446,1.0000144312489971,0.0001897090947688595
1326.1314295895872,1326.1314295895872,0.9997900985004768,0.00018970186050583907
1326.1383739027992,1326.1383739027992,1.0000393002283043,0.00018971455060658266
1326.1453182161051,1326.1453182161051,0.9997125455474734,0.0001896897351382504
1326.1522625294806,1326.1522625294806,1.000116588877016,0.00018972430014307625
1326.159206842943,1326.159206842943,1.0002445716460122,0.00018974010730253845
1326.166151156487,1326.166151156487,1.0001095722590772,0.00018971837278386879
1326.1730954701006,1326.1730954701006,1.0002702430542512,0.00018973361084375983
1326.1800397837906,1326.1800397837906,0.9999570037634798,0.0001897023992523976
1326.1869840975671,1326.1869840975671,0.9998188545560975,0.00018968157907610687
1326.1939284114137,1326.1939284114137,0.9997585064786083,0.00018968289085006723
1326.2008727253249,1326.2008727253249,0.9999503371901076,0.00018969458174183457
1326.2078170393288,1326.2078170393288,0.9996597903914377,0.00018965280621795075
1326.2147613533966,1326.2147613533966,1.0001996566152744,0.00018970049595540077
1326.2217056675404,1326.2217056675404,1.0001105259652574,0.00018970713600635283
1326.2286499817535,1326.2286499817535,1.0000834773300311,0.00018971682875937147
1326.235594296037,1326.235594296037,1.000174215067409,0.0001897078792746469
1326.2425386104073,1326.2425386104073,1.0000731365605882,0.00018969846769894877
1326.249482924825,1326.249482924825,0.9999892761316576,0.00018966484200668893
1326.256427239329,1326.256427239329,0.9999730894298067,0.00018967974397429403
1326.263371553898,1326.263371553898,0.999782368617511,0.00018965863793835648
1326.2703158685422,1326.2703158685422,0.9997323518020134,0.0001896477655847529
1326.2772601832385,1326.2772601832385,1.000159634255909,0.00018966865105449063
1326.2842044980168,1326.2842044980168,1.0000947594379923,0.00018966252856455183
1326.2911488128586,1326.2911488128586,1.0004412591636256,0.0001897080125334502
1326.2980931277707,1326.2980931277707,1.000165858830371,0.00018967122547389686
1326.3050374427407,1326.3050374427407,0.9997786726184428,0.00018964604859294842
1326.311981757775,1326.311981757775,0.9998386266992763,0.00018964627915055276
1326.318926072879,1326.318926072879,1.0001352370425107,0.00018966810550089354
1326.3258703880472,1326.3258703880472,0.9998821781948684,0.00018966271067580559
1326.3328147032735,1326.3328147032735,1.0000349770815578,0.0001896661460041572
1326.3397590185755,1326.3397590185755,1.0003653121802571,0.000189719260456372
1326.3478144243877,1326.3478144243877,0.9994924620301313,0.00018966114207444115
1326.3564253755303,1326.3564253755303,1.0001711967426017,0.00018972952638509754
1326.3633696910306,1326.3633696910306,1.0000969272817781,0.00018970587708382015
1326.370314006594,1326.370314006594,0.9998890390136431,0.0001896997947963544
1326.3772583222221,1326.3772583222221,1.0000956616355607,0.00018970262417905686
1326.384202637908,1326.384202637908,0.9998408891237928,0.00018969937602818866
1326.3911469536465,1326.3911469536465,1.000063406141853,0.0001897334352382473
1326.3980912694553,1326.3980912694553,1.0000340359045243,0.00018972296520393473
1326.4050355853099,1326.4050355853099,0.999946531776639,0.00018975234227419825
1326.4119799012294,1326.4119799012294,1.0001605789345551,0.00018977692198225647
1326.4189242172001,1326.4189242172001,1.000296618841292,0.00018979491786615504
1326.4258685332356,1326.4258685332356,0.9997013067795402,0.00018974189163890455
1326.4328128493232,1326.4328128493232,1.000211630351616,0.0001897999607330205
1326.4397571654636,1326.4397571654636,0.9998891214462088,0.00018976498822571923
1326.4467014816619,1326.4467014816619,0.999809793138807,0.00018977609728681457
1326.4536457979125,1326.4536457979125,0.9996406533429367,0.00018977072385351813
1326.4605901142272,1326.4605901142272,1.0001522597890524,0.00018981785818789857
1326.4675344305829,1326.4675344305829,0.9998305446591342,0.00018979151895522284
1326.4744787469963,1326.4744787469963,1.0003613804165536,0.00018985096536025387
1326.4814230634627,1326.4814230634627,0.9998984384595939,0.00018981975171089197
1326.4883673799811,1326.4883673799811,1.0001359166574162,0.00018983253246620895
1326.495311696552,1326.495311696552,1.0004741353856725,0.00018986991155775352
1326.502256013175,1326.502256013175,0.9996599554856733,0.0001898137387429468
1326.509200329851,1326.509200329851,0.9999412841145382,0.00018983475150976525
1326.5161446465788,1326.5161446465788,0.9998073670352501,0.0001898408188719117
1326.5230889633535,1326.5230889633535,0.9999028477438984,0.0001898599524922864
1326.5300332801748,1326.5300332801748,0.9999220995539764,0.0001898624920582776
1326.536977597048,1326.536977597048,1.0005727160246018,0.00018992754109654
1326.5439219139685,1326.5439219139685,1.0000376999011547,0.00018989462971604065
1326.5508662309408,1326.5508662309408,0.999613956556513,0.00018989291536131912
1326.5578105479658,1326.5578105479658,1.0000017263949033,0.0001899168687980887
1326.564754865031,1326.564754865031,0.9999520395812873,0.0001899109559732537
1326.5716991821496,1326.5716991821496,0.9999591315430948,0.0001899209294999135
1326.5786434993083,1326.5786434993083,1.0003528275344182,0.0001899624345388931
1326.5855878165132,1326.5855878165132,0.9999590598044426,0.0001899129949587387
1326.5925321337772,1326.5925321337772,0.9996534736591309,0.00018991735331973773
1326.5994764510697,1326.5994764510697,1.000195301188548,0.00018996600152494571
1326.6064207684205,1326.6064207684205,1.0002753272160914,0.00018996113860878346
1326.6133650858123,1326.6133650858123,1.0000210912314609,0.0001899572203594505
1326.6203094032442,1326.6203094032442,1.0001419818769959,0.00018995606337814631
1326.627253720741,1326.627253720741,1.000071513689315,0.0001899695448524105
1326.6341980382545,1326.6341980382545,0.9997184792742605,0.0001899227258404886
1326.6411423558206,1326.6411423558206,1.0000805466840945,0.00018997636029430533
1326.6480866734396,1326.6480866734396,0.9997897828145362,0.00018993556793724892
1326.655030991093,1326.655030991093,0.9998295502397644,0.00018993478555466318
1326.6619753087816,1326.6619753087816,1.0001243857398832,0.00018993836270662971
1326.668919626528,1326.668919626528,1.0002467681847527,0.0001899511174261529
1326.6758639443156,1326.6758639443156,0.9999951363573919,0.00018991183227024243
1326.6828082621264,1326.6828082621264,1.0000513228951973,0.00018991138779791438
1326.6911414435724,1326.6911414435724,0.999911344197985,0.00018987423667083924
1326.6980857614762,1326.6980857614762,1.0000562982935182,0.00018987453055741796
1326.7050300794324,1326.7050300794324,0.9997014657857616,0.0001898009411309712
1326.7128077155944,1326.7128077155944,0.9999598376408201,0.00018984991507027044
1326.7203075790796,1326.7203075790796,1.0002704179384576,0.00018986205384667566
1326.7272518971636,1326.7272518971636,1.0001116845260278,0.0001898334803097369
1326.7341962152773,1326.7341962152773,1.000108826498365,0.00018984909437641596
1326.7411405334374,1326.7411405334374,0.9997438518417093,0.0001897947658627951
1326.7480848516375,1326.7480848516375,1.000088074808197,0.0001898278367237255
1326.755029169873,1326.755029169873,0.999878309281469,0.0001897838150679291
1326.7619734881378,1326.7619734881378,1.0000123659657991,0.00018979818149129438
1326.768917806449,1326.768917806449,1.0001646013357972,0.0001898009035781665
1326.7758621248013,1326.7758621248013,1.0000788320392497,0.00018980811044663943
1326.782806443188,1326.782806443188,0.9997933776217038,0.0001897933665972028
1326.78975076161,1326.78975076161,1.0000195612878653,0.0001897940771713911
1326.7966950800667,1326.7966950800667,0.999965974197746,0.00018980256740359347
1326.8036393985706,1326.8036393985706,1.0000436733845492,0.000189817325110576
1326.8105837170965,1326.8105837170965,0.9998927073660738,0.00018980480943112538
1326.8175280356586,1326.8175280356586,0.9998823421811809,0.0001898001858680154
1326.8244723542607,1326.8244723542607,1.0003103459653884,0.00018983470449242392
1326.831416672892,1326.831416672892,1.000256358122532,0.00018985596078832827
1326.8383609915643,1326.8383609915643,0.9997009866692854,0.00018979523748291664
1326.8453053102712,1326.8453053102712,0.9998993535495465,0.00018980723591107128
1326.8522496290075,1326.8522496290075,0.9997222004370176,0.00018977902277702275
1326.8591939477847,1326.8591939477847,1.000167671214845,0.00018981750712658042
1326.866138266591,1326.866138266591,1.0000728887935855,0.00018980386733407576
1326.873082585426,1326.873082585426,1.0000153943141978,0.00018979752948955876
1326.8800269043072,1326.8800269043072,1.0002069275039456,0.0001897985498385618
1326.8869712232067,1326.8869712232067,1.0000427250504678,0.00018978777310255405
1326.8939155421522,1326.8939155421522,0.9997953648407867,0.00018972999364859117
1326.9008598611217,1326.9008598611217,1.0000519279347526,0.00018974824227225128
1326.9078041801251,1326.9078041801251,1.0002304291229343,0.00018973043810076865
1326.9147484991583,1326.9147484991583,1.0001006699694854,0.0001896963886200065
1326.9216928182263,1326.9216928182263,0.9995398316246641,0.00018965568389307845
1326.9286371373178,1326.9286371373178,0.9999140750876409,0.0001896476611185129
1326.93558145645,1326.93558145645,1.0001590083635201,0.00018968123272950527
1326.9425257756163,1326.9425257756163,0.9999045343397684,0.00018962472269080103
1326.9494700948012,1326.9494700948012,1.000216138110767,0.0001896465462756485
1326.9564144140202,1326.9564144140202,1.0000025051188968,0.00018961664440008387
1326.963358733269,1326.963358733269,0.9998681104958331,0.00018958925914735577
1326.970303052558,1326.970303052558,1.000284001923995,0.00018960617858449858
1326.9772473718704,1326.9772473718704,0.9997409823084826,0.00018956693965409014
1326.9841916912064,1326.9841916912064,1.000046071236725,0.00018955099346342874
1326.991136010577,1326.991136010577,1.0000824238345356,0.00018957237727668433
1326.9980803299766,1326.9980803299766,0.9999275488115718,0.00018954146904914606
1327.0050246493997,1327.0050246493997,0.999757683209588,0.00018951585965456494
1327.0119689688577,1327.0119689688577,0.9999423185578502,0.00018953693661375343
1327.0189132883388,1327.0189132883388,1.0002435767152662,0.0001895552732023863
1327.0258576078493,1327.0258576078493,1.0000921554374629,0.00018954854330206425
1327.0328019273834,1327.0328019273834,1.0000774047496699,0.00018955365973147292
1327.039746246963,1327.039746246963,0.9999623533660111,0.0001895336909977004
1327.0466905665548,1327.0466905665548,1.0000265473215513,0.00018956285575346283
1327.0536348861758,1327.0536348861758,0.9999417899010087,0.0001895266226569234
