time,time,flux,flux_err
1325.3030759474807,1325.3030759474807,0.9998405184775971,0.00016843642105851675
1325.3114095090712,1325.3114095090712,1.0001673464160583,0.00016853019602753797
1325.3197430704295,1325.3197430704295,1.000047936226604,0.0001685511189312633
1325.3280766317096,1325.3280766317096,0.9999869146162933,0.00016857857417598699
1325.335715729371,1325.335715729371,1.0000867507307405,0.0001539262967124901
1325.342660363523,1325.342660363523,0.9999649834516857,0.00015395127675912947
1325.3496049975354,1325.3496049975354,0.9999252800164374,0.00015396900744922334
1325.3565496315473,1325.3565496315473,1.0002037125058183,0.00015400799435828406
1325.3634942654198,1325.3634942654198,0.9998203819884857,0.00015402988542455472
1325.3704388991996,1325.3704388991996,0.9998746911079073,0.00015406505518377326
1325.3773835328852,1325.3773835328852,1.0000906594730434,0.00015412606301697912
1325.384328166432,1325.384328166432,1.0000521693117004,0.0001541389615638637
1325.3912727999318,1325.3912727999318,1.0000259719305464,0.00015418339554360477
1325.3982174333385,1325.3982174333385,0.9999045221566677,0.00015420737885494664
1325.4051620666057,1325.4051620666057,0.9997841432134329,0.00015422608995190105
1325.4121066998262,1325.4121066998262,0.9999996883578021,0.00015426832393471368
1325.4190513329536,1325.4190513329536,1.00001830298172,0.00015431685300902953
1325.4259959659878,1325.4259959659878,1.0003833071400667,0.0001543488575442219
1325.432940598929,1325.432940598929,1.0000532691881137,0.00015435718571778022
1325.439885231777,1325.439885231777,0.9997498206820786,0.0001543751493524587
1325.446829864625,1325.446829864625,1.000205502137963,0.0001544284696121938
1325.45377449724,1325.45377449724,1.0001072239041067,0.0001544421221721359
1325.4607191298087,1325.4607191298087,0.9999278023417913,0.0001544611194141767
1325.4676637623772,1325.4676637623772,0.9998151361764158,0.00015447219225954496
1325.4746083948062,1325.4746083948062,0.9999424582407268,0.00015450761157434007
1325.4815530271885,1325.4815530271885,0.9997596131176716,0.00015453651071147613
1325.4884976594312,1325.4884976594312,0.9998839573070146,0.00015456306394016363
1325.4954422916276,1325.4954422916276,1.0003491126808326,0.00015462640093192163
1325.5023869236836,1325.5023869236836,0.9999487917764934,0.00015462849113057856
1325.5093315557401,1325.5093315557401,1.0001189036314735,0.00015467022083198514
1325.5162761877034,1325.5162761877034,1.0000800365964397,0.00015469132163771759
1325.5232208195735,1325.5232208195735,0.9998620167856405,0.0001547162132457065
1325.5301654513503,1325.5301654513503,1.0001350439379793,0.0001547576953221835
1325.5371100830341,1325.5371100830341,1.0000247573402234,0.00015478268179683203
1325.544054714718,1325.544054714718,0.9999705562162262,0.00015482238233220972
1325.5509993462624,1325.5509993462624,0.9998489259087364,0.0001548321684304937
1325.5579439777598,1325.5579439777598,1.000031472243085,0.0001548795268316384
1325.5648886091644,1325.5648886091644,1.000053857775388,0.00015488964298173422
1325.5718332405224,1325.5718332405224,0.9997686357456159,0.00015487731090156693
1325.5787778717404,1325.5787778717404,1.000110645698256,0.00015490776734824403
1325.5857225029122,1325.5857225029122,1.000210097972634,0.00015490507917801
1325.5926671340833,1325.5926671340833,0.9999529655392368,0.00015489648064036842
1325.5996117651157,1325.5996117651157,0.9998381256296826,0.00015490095085453806
1325.6065563960542,1325.6065563960542,1.0000714766325054,0.0001549337474863252
1325.6135010269932,1325.6135010269932,1.0000933828307184,0.00015493898488590715
1325.620445657792,1325.620445657792,1.000048806190237,0.00015496285249873526
1325.6273902885914,1325.6273902885914,0.999732393924296,0.00015495013589842953
1325.6343349192507,1325.6343349192507,1.0000156695994726,0.00015497366924980492
1325.6412795499102,1325.6412795499102,0.999884481878101,0.00015497440493838854
1325.6482241804297,1325.6482241804297,1.000188210566406,0.00015502465980897026
1325.6551688109496,1325.6551688109496,0.9999098663977058,0.00015502108509064116
1325.6621134413758,1325.6621134413758,1.0001332955676263,0.0001550692450096534
1325.6690580717095,1325.6690580717095,1.0001433015391106,0.000155118316491918
1325.6760027019961,1325.6760027019961,0.999976153319867,0.00015513113412842194
1325.6829473322366,1325.6829473322366,1.0000036722404961,0.00015517572510729782
1325.689891962384,1325.689891962384,0.9999547251193928,0.00015520305409555244
1325.6968365924845,1325.6968365924845,1.0000235490791323,0.00015525484422772258
1325.7037812224924,1325.7037812224924,0.9998994707685359,0.00015530028805293435
1325.7107258524995,1325.7107258524995,0.9998568795087894,0.00015534490182062382
1325.7176704823673,1325.7176704823673,0.9999460204062084,0.00015541250081449579
1325.7246151121883,1325.7246151121883,1.0000872618456884,0.00015547701036476198
1325.7315597419165,1325.7315597419165,1.0002009602813307,0.00015557559468021005
1325.7385043716909,1325.7385043716909,1.0000010151232224,0.00015561117682039274
1325.7454490013258,1325.7454490013258,0.9999075893935508,0.00015568185878685415
1325.7523936309142,1325.7523936309142,1.0000941503832768,0.00015577441721489766
1325.7593382604095,1325.7593382604095,1.0001103712400665,0.00015584358565193227
1325.7662828899515,1325.7662828899515,0.9998378267325642,0.00015591437780386404
1325.773227519307,1325.773227519307,0.9999016334502537,0.00015600956875950247
1325.7801721486624,1325.7801721486624,0.9999717278839316,0.00015608148773673208
1325.7871167779715,1325.7871167779715,1.0000946445579673,0.00015618655116374453
1325.7940614071408,1325.7940614071408,1.0000766417671503,0.00015627928217518377
1325.80100603631,1325.80100603631,0.9999389601708053,0.00015635697112454866
1325.807950665433,1325.807950665433,0.9998752633417446,0.00015643791138627113
1325.8148952944623,1325.8148952944623,0.9998217916438599,0.0001565077531402848
1325.821839923492,1325.821839923492,0.9999828414688521,0.0001565962687513804
1325.8287845523819,1325.8287845523819,1.0002076008783514,0.00015669301710031282
1325.8357291812251,1325.8357291812251,1.0002513382496452,0.00015676566973345075
1325.8426738101152,1325.8426738101152,1.0000466586183536,0.0001568257937270299
1325.8496184388187,1325.8496184388187,0.9999702852533877,0.0001569021951620451
1325.856563067522,1325.856563067522,0.9999235772198002,0.00015695313870427475
1325.8635076961793,1325.8635076961793,1.00005146262011,0.0001569954607850479
1325.87045232479,1325.87045232479,0.9999270498203977,0.00015702499053004567
1325.8773969533072,1325.8773969533072,0.9997807802591236,0.00015703822709430248
1325.884341581778,1325.884341581778,0.9999222700684353,0.0001570543711241833
1325.8912862102022,1325.8912862102022,0.9999787294225644,0.00015709995876564317
1325.8982308385798,1325.8982308385798,1.0003617095989232,0.0001571494858256961
1325.9051754668178,1325.9051754668178,0.9999426591840986,0.0001571486785360138
1325.9121200951954,1325.9121200951954,0.999975889904009,0.00015718403671469798
1325.9190647234332,1325.9190647234332,0.999960459779777,0.00015720750159128698
1325.9260093514852,1325.9260093514852,1.0000134734907782,0.00015725592862458375
1325.9329539795835,1325.9329539795835,0.9998964306361572,0.00015727766385914004
1325.939898607635,1325.939898607635,1.0001523944092399,0.00015732849365458372
1325.94684323564,1325.94684323564,0.9999919509478206,0.00015737161161000804
1325.9537878635524,1325.9537878635524,0.9997200616410093,0.00015739733185903752
1325.9607324914643,1325.9607324914643,1.0003362654653434,0.00015748913252941078
1325.9687882597473,1325.9687882597473,0.9998652896639856,0.00015754657811898324
1325.9760106726008,1325.9760106726008,0.9998465167691812,0.0001575804982236198
1325.9829553003262,1325.9829553003262,1.0000628811815135,0.00015762318411791483
1325.9898999280053,1325.9898999280053,0.9999602265436455,0.00015768203042102253
1325.9968445556378,1325.9968445556378,1.0002622986881489,0.00015776807138041045
1326.0037891831312,1326.0037891831312,0.9998708173041415,0.00015781621803172573
1326.0107338106704,1326.0107338106704,1.0001581558331927,0.00015792022844890276
1326.017678438117,1326.017678438117,0.9999469082230703,0.00015800145951822716
1326.0246230655168,1326.0246230655168,1.0000438039913249,0.00015812344717969548
1326.0315676928699,1326.0315676928699,0.999978695156145,0.0001582137281081067
1326.038512320223,1326.038512320223,0.9998171333557527,0.00015825469580401714
1326.0454569474362,1326.0454569474362,1.0001133598984981,0.0001582901531142049
1326.0524015746967,1326.0524015746967,0.9997800569279398,0.0001583116678501158
1326.05934620177,1326.05934620177,0.9999512013961767,0.00015837611953131958
1326.066290828984,1326.066290828984,1.0000895236483909,0.00015845759284875024
1326.073235456011,1326.073235456011,1.0001188265091179,0.00015851341444003756
1326.0801800830382,1326.0801800830382,1.000166588798026,0.00015857794543963738
1326.087124709926,1326.087124709926,1.0000017053841932,0.0001586275303141418
1326.09406933686,1326.09406933686,1.00011863698195,0.00015867867839504211
1326.1010139637012,1326.1010139637012,0.9996168512432272,0.00015868738957506795
1326.1079585904959,1326.1079585904959,1.0003464103568,0.0001587959802212395
1326.1149032172896,1326.1149032172896,0.9997394317198653,0.0001588015984090654
1326.121847843991,1326.121847843991,1.0000335147982065,0.00015886600871224617
1326.1287924706921,1326.1287924706921,1.0000345981183338,0.00015888302393773536
1326.1357370972542,1326.1357370972542,0.999946886512952,0.00015893726620430098
1326.1426817238153,1326.1426817238153,0.999835617948284,0.00015895901385834285
1326.149626350331,1326.149626350331,1.0000716055391627,0.00015902390677323587
1326.156570976799,1326.156570976799,0.9999667985112491,0.0001590245220950786
1326.1635156032207,1326.1635156032207,1.000127919196486,0.00015908229985968722
1326.170460229643,1326.170460229643,1.000057107028231,0.0001591129960211345
1326.1774048559714,1326.1774048559714,1.0000951230824922,0.00015913136319491264
1326.1843494822538,1326.1843494822538,0.9998292018016862,0.0001591597191092998
1326.1912941084893,1326.1912941084893,1.000030387508629,0.00015919142158376642
1326.1982387346784,1326.1982387346784,1.0000775414759688,0.00015923163662078709
1326.205183360821,1326.205183360821,1.0000149603255377,0.0001592458555149454
1326.2121279869168,1326.2121279869168,0.9999608956354639,0.00015929135328257793
1326.2190726129197,1326.2190726129197,1.0000627341902057,0.0001593196375420681
1326.226017238969,1326.226017238969,0.9999777198695765,0.00015932599763001534
1326.232961864832,1326.232961864832,0.9998908128464166,0.00015935711234235102
1326.239906490695,1326.239906490695,1.0001038949423056,0.00015940419442851166
1326.2468511165578,1326.2468511165578,0.9998062712279558,0.00015941872380334998
1326.2537957424215,1326.2537957424215,0.9999120844146459,0.00015943715780582728
1326.2607403682844,1326.2607403682844,1.0001628486433058,0.00015947910431336718
1326.2676849939148,1326.2676849939148,1.000034145034729,0.0001594976424271856
1326.2746296196383,1326.2746296196383,1.0002935933114128,0.00015952148394863592
1326.2815742452683,1326.2815742452683,1.0000791206675257,0.00015953565295582882
1326.2885188708522,1326.2885188708522,0.9996569232930366,0.0001595387911245555
1326.2954634963892,1326.2954634963892,1.000104486844063,0.00015958887321399696
1326.3024081219264,1326.3024081219264,1.0001843909226167,0.0001596068170986075
1326.3093527473234,1326.3093527473234,1.0001208942756001,0.0001596351543695087
1326.3162973727212,1326.3162973727212,0.9999117130824535,0.00015965939085958698
1326.323241998072,1326.323241998072,0.999900158656151,0.00015971583778965994
1326.3301866233762,1326.3301866233762,1.0002638970979874,0.00015976012888846335
1326.337131248634,1326.337131248634,0.9997747212109227,0.00015979332344466483
1326.3440758738918,1326.3440758738918,0.9999817571739344,0.0001598605394064303
1326.3521316391016,1326.3521316391016,0.9997466697327969,0.00015990253583546906
1326.3607429742865,1326.3607429742865,1.000324152692318,0.0001600172934093742
1326.3676875992653,1326.3676875992653,0.999780777685291,0.00016003799556226468
1326.3746322243364,1326.3746322243364,1.000102908389526,0.00016009137928202656
1326.381576849315,1326.381576849315,1.000016428996691,0.00016015900757619048
1326.3885214742465,1326.3885214742465,0.9999207378931301,0.0001601842917225611
1326.3954660991317,1326.3954660991317,1.000012853004446,0.00016025180416764896
1326.4024107240173,1326.4024107240173,1.0002002456650883,0.00016031136150816114
1326.409355348716,1326.409355348716,0.9999355556853766,0.00016035368365372894
1326.4162999736018,1326.4162999736018,1.0000128642393058,0.0001603965118992303
1326.4232445983466,1326.4232445983466,1.000019466552294,0.00016046053157505358
1326.4301892229062,1326.4301892229062,1.0001480452813876,0.0001605199211310708
1326.4371338475116,1326.4371338475116,0.9998067410029862,0.00016054740174794883
1326.4440784721642,1326.4440784721642,0.9998817360515864,0.00016059423322701535
1326.4510230966769,1326.4510230966769,0.9997821135548035,0.0001606351218748342
1326.457967721143,1326.457967721143,1.0001239830400606,0.00016071286856647195
1326.4649123456093,1326.4649123456093,1.0001408787558774,0.00016078219540505796
1326.4718569699821,1326.4718569699821,1.0000999003815947,0.00016080566637163358
1326.4788015944014,1326.4788015944014,1.0000964171538709,0.00016085253787322893
1326.4857462186817,1326.4857462186817,0.9997735959027436,0.00016086944786299512
1326.492690842961,1326.492690842961,1.0000489408618047,0.0001609439870221305
1326.4996354671948,1326.4996354671948,1.0000910746973848,0.00016097369002358457
1326.5065800914276,1326.5065800914276,1.0003468901679178,0.00016106904738415334
1326.5135247155217,1326.5135247155217,1.00006823973357,0.00016108725806923593
1326.5204693396615,1326.5204693396615,0.9996903261016143,0.00016112639839154565
1326.5274139636622,1326.5274139636622,0.9999572256865583,0.00016120675511363235
1326.5343585877092,1326.5343585877092,1.000037932352718,0.00016129277509891775
1326.5413032116162,1326.5413032116162,1.0001502756583789,0.00016135374718613906
1326.5482478355705,1326.5482478355705,0.9997224186431799,0.0001614162822440799
1326.5551924594777,1326.5551924594777,0.999925401694048,0.0001615156051575332
1326.5621370833385,1326.5621370833385,1.000203805753096,0.00016155246022507184
1326.5690817071059,1326.5690817071059,1.0001815169361141,0.00016159790487095847
1326.5760263308734,1326.5760263308734,1.0001197015726457,0.0001616216477717744
1326.5829709545483,1326.5829709545483,1.0000093689753522,0.00016166258522138323
1326.589915578269,1326.589915578269,0.9997643129535462,0.0001616997489174682
1326.5968602018506,1326.5968602018506,1.000234098604888,0.0001617707284542328
1326.6038048253854,1326.6038048253854,1.0000148044894135,0.00016178624523729244
1326.6107494489202,1326.6107494489202,1.0000287767620835,0.00016184031032911273
1326.6176940724552,1326.6176940724552,1.0000572308344475,0.00016186904883640777
1326.6246386959895,1326.6246386959895,0.9997621296727364,0.00016189720619854298
1326.6315833192916,1326.6315833192916,1.0002017019226304,0.00016194749387885728
1326.6385279426863,1326.6385279426863,1.0000395775942161,0.0001619680588034805
1326.6454725660356,1326.6454725660356,0.9997534007204594,0.00016196135818110242
1326.6524171892909,1326.6524171892909,0.9999762646376968,0.00016197656619954508
1326.6593618125462,1326.6593618125462,1.0000065564958411,0.00016196541361075648
1326.6663064357085,1326.6663064357085,1.0001833891308753,0.0001619621575703897
1326.6732510588704,1326.6732510588704,1.000068507963723,0.0001619353431790953
1326.6801956820332,1326.6801956820332,1.000198766100626,0.00016191578882915081
1326.6871403050552,1326.6871403050552,0.9997716808686132,0.0001618667415414332
1326.6954738527384,1326.6954738527384,0.9999913457248095,0.0001618516865676054
1326.7024184756679,1326.7024184756679,0.9997570277311816,0.00016181605197729192
1326.7093630986437,1326.7093630986437,1.0001261912337422,0.00016179469195669929
1326.7171410762112,1326.7171410762112,1.0000747764994888,0.00016177171871355672
1326.7246412689306,1326.7246412689306,1.000103566711436,0.00016175524554136773
1326.7315858916731,1326.7315858916731,0.9999379278911598,0.00016172924321057323
1326.7385305144167,1326.7385305144167,0.9999256250161512,0.00016172084257637146
1326.7454751372065,1326.7454751372065,1.0001120520776152,0.00016170225446836332
1326.7524197598564,1326.7524197598564,1.0001428870605396,0.00016169233058092178
1326.7593643824598,1326.7593643824598,1.0000734305739751,0.00016165006602094845
1326.7663090050632,1326.7663090050632,1.0001248461351975,0.00016165596720279994
1326.7732536275737,1326.7732536275737,1.000201187784563,0.00016167416394463242
1326.7801982501303,1326.7801982501303,0.9998096062824879,0.00016165641231575845
1326.7871428725011,1326.7871428725011,0.9998959273373644,0.00016167144807903926
1326.794087494872,1326.794087494872,0.9998827453900077,0.00016170368052731494
1326.8010321172424,1326.8010321172424,1.0000394343833554,0.00016172702821414707
1326.8079767396134,1326.8079767396134,1.0001304767002412,0.00016174839187827118
1326.8149213619836,1326.8149213619836,1.0003862206086431,0.0001618033106487759
1326.8218659842146,1326.8218659842146,1.00008057642491,0.00016182117068015673
1326.8288106064454,1326.8288106064454,0.9997159632028305,0.0001618076384931471
1326.8357552285834,1326.8357552285834,0.9998391966872824,0.0001618289658698615
1326.8426998506745,1326.8426998506745,0.9998291181268142,0.000161832677660064
1326.8496444727657,1326.8496444727657,1.0002191614985392,0.0001618527142153218
1326.8565890948105,1326.8565890948105,1.0001112865686288,0.00016185464899929033
1326.8635337168084,1326.8635337168084,0.9998494241283469,0.00016180219339638322
1326.8704783387604,1326.8704783387604,0.9998649690189338,0.0001617796736727869
1326.8774229606654,1326.8774229606654,1.0000069164904555,0.00016172941783342416
1326.8843675825235,1326.8843675825235,1.000169553855015,0.00016168527225493925
1326.891312204382,1326.891312204382,1.0002474907061287,0.00016160615985892326
1326.8982568261936,1326.8982568261936,0.9998420486471037,0.0001615358756651396
1326.9052014478664,1326.9052014478664,1.0001682230892888,0.00016144722834560547
1326.9121460695847,1326.9121460695847,0.99989287224247,0.0001613473865882293
1326.9190906912568,1326.9190906912568,0.9996794292321463,0.00016124471053843704
1326.9260353128361,1326.9260353128361,1.0001950810549078,0.0001611539743114187
1326.9329799344616,1326.9329799344616,1.0000129070452535,0.00016104766955386593
1326.9399245559475,1326.9399245559475,0.9998588718665331,0.00016094773556399642
1326.9468691774796,1326.9468691774796,1.000000572002508,0.00016089296793847158
1326.9538137989193,1326.9538137989193,1.0000210255631743,0.00016080891585078776
1326.9607584203582,1326.9607584203582,1.0003399051056232,0.0001607627385506997
1326.967703041705,1326.967703041705,0.9999514785688246,0.00016066646171751926
1326.9746476630044,1326.9746476630044,0.9999719308601014,0.0001606087389654024
1326.9815922842106,1326.9815922842106,0.9999487815651664,0.00016052974546769194
1326.9885369056503,1326.9885369056503,1.0000068296715088,0.0001605140125284904
1326.9954815267636,1326.9954815267636,0.9998288434034391,0.0001604531817726255
1327.0024261478302,1327.0024261478302,0.9999855766614021,0.00016043939922401093
1327.0093707690369,1327.0093707690369,1.000026663915539,0.0001604383011791863
1327.016315390057,1327.016315390057,0.9998094790402192,0.00016042469939699086
1327.0232600111237,1327.0232600111237,0.999946810703564,0.00016042872625888425
1327.0302046320974,1327.0302046320974,1.0001344882807537,0.0001604519193070231
1327.0371492530712,1327.0371492530712,1.0001951531216846,0.00016046020668845554
1327.0440938739514,1327.0440938739514,1.0001615257099328,0.0001604839332740293
1327.0510384947856,1327.0510384947856,1.000031267642436,0.00016048662224775153
1327.0579831156194,1327.0579831156194,0.9999083699478462,0.00016050978008353767
