time,time,flux,flux_err
1354.1196192170578,1354.1196192170578,0.9999526449453383,0.0005853556865616306
1354.1284155170176,1354.1284155170176,1.0001203555030855,0.0005852762655960376
1354.1360544085812,1354.1360544085812,0.9996804780750839,0.0005341597300085896
1354.1429988552345,1354.1429988552345,0.9999301210809302,0.0005340912427829762
1354.1499433016081,1354.1499433016081,0.9999783637499281,0.0005341390807588538
1354.1568877477025,1354.1568877477025,1.000680074191092,0.0005341937352820786
1354.1638321935172,1354.1638321935172,1.0005393523251442,0.000534197867426255
1354.170776639146,1354.170776639146,0.9993851970534792,0.000533832333239759
1354.1777210843088,1354.1777210843088,1.0003036927212703,0.0005340884194407434
1354.1846655293791,1354.1846655293791,0.9993007020075293,0.000533879588982652
1354.1916099742625,1354.1916099742625,0.9998161708386111,0.0005339757430575064
1354.1985544188665,1354.1985544188665,0.9998154838426373,0.0005339887042649493
1354.2054988631915,1354.2054988631915,0.9996945149841652,0.0005339437678275445
1354.212443307237,1354.212443307237,0.9999253801310312,0.0005340665481546047
1354.2193877510958,1354.2193877510958,1.0002271022490221,0.0005341113645188236
1354.2263321946757,1354.2263321946757,1.0007476621693345,0.0005341015763552441
1354.2332766379757,1354.2332766379757,1.0005440231236924,0.0005340947102972445
1354.24022108109,1354.24022108109,0.9999486699748081,0.0005339662230737718
1354.2471655238317,1354.2471655238317,1.0000854338343923,0.0005340767280907486
1354.2541099665732,1354.2541099665732,0.9990262907905425,0.0005338564424524302
1354.2610544090353,1354.2610544090353,0.9992601551324702,0.0005338617927263373
1354.2679988513112,1354.2679988513112,0.9998373447358098,0.0005339836839812817
1354.2749432932144,1354.2749432932144,1.0006487187505406,0.0005341319338060278
1354.2818877348386,1354.2818877348386,0.9997771839611242,0.0005339834709557838
1354.2888321764624,1354.2888321764624,0.9999947050632201,0.0005339782262531899
1354.295776617714,1354.295776617714,1.0000218424046619,0.0005340179193864464
1354.3027210586856,1354.3027210586856,1.0000898591749618,0.0005341175019474376
1354.3096654996575,1354.3096654996575,1.0008516838813406,0.0005343352313182713
1354.3166099400712,1354.3166099400712,0.9994910196520219,0.000533968469042719
1354.3235543804842,1354.3235543804842,0.998977937794634,0.0005338701826789084
1354.3304988208974,1354.3304988208974,1.0003002179102751,0.0005341250908203848
1354.337443260752,1354.337443260752,0.9996074572188475,0.0005341068751953686
1354.3443877006061,1354.3443877006061,1.000276207347809,0.000534169500305129
1354.3513321400887,1354.3513321400887,0.9999673765914198,0.0005340968531202521
1354.358276579384,1354.358276579384,1.0000155281198504,0.0005342006483854723
1354.3652210185865,1354.3652210185865,0.9998039774882173,0.0005340998359585415
1354.3721654575097,1354.3721654575097,0.999832763841931,0.0005341007339334901
1354.3791098962463,1354.3791098962463,1.0014161193476678,0.0005343108197514268
1354.386054334797,1354.386054334797,0.9996240738496475,0.0005339256924362882
1354.3929987729753,1354.3929987729753,1.0000176379227,0.0005340662941656235
1354.39994321106,1354.39994321106,0.9994508673212813,0.0005340224149450404
1354.4068876491451,1354.4068876491451,1.0004381547914059,0.0005342018757342341
1354.4138320869506,1354.4138320869506,0.9996350230116814,0.0005341452784816973
1354.4207765244769,1354.4207765244769,0.999944660342144,0.0005341382080141122
1354.427720961817,1354.427720961817,1.0005270336293433,0.000534220769837192
1354.43466539897,1354.43466539897,0.9999786121168007,0.000534279411356897
1354.4416098359375,1354.4416098359375,0.9997529907692592,0.0005341205986869605
1354.4485542727184,1354.4485542727184,1.0001628297002167,0.000534339894777684
1354.4554987094066,1354.4554987094066,0.999443690563681,0.0005341159153565997
1354.462443145722,1354.462443145722,0.99987299497876,0.0005341830937638296
1354.4693875819444,1354.4693875819444,0.9998214551837851,0.0005341863049816929
1354.4763320178868,1354.4763320178868,0.9998250837645182,0.0005342312712843163
1354.4832764536438,1354.4832764536438,1.0006808383577135,0.000534281593858494
1354.4902208894,1354.4902208894,1.0003386251512298,0.0005343275312016271
1354.4971653250639,1354.4971653250639,1.0001380481464948,0.000534282396455155
1354.504109760355,1354.504109760355,0.9995088721654255,0.0005341642262467696
1354.5110541954596,1354.5110541954596,0.9994524935960267,0.000534003835705707
1354.517998630378,1354.517998630378,1.000447876219654,0.000534282367732434
1354.5249430652964,1354.5249430652964,1.0000464100473845,0.0005340671143103193
1354.5318874998422,1354.5318874998422,1.0002509174748568,0.0005342939570092413
1354.5388319342953,1354.5388319342953,0.9999791234034001,0.000534129949474339
1354.545776368655,1354.545776368655,0.9995189126493486,0.0005340275562375555
1354.552720802642,1354.552720802642,1.0003669982287748,0.0005342340170714764
1354.5596652366291,1354.5596652366291,0.9994645844000261,0.0005340825619839123
1354.56660967043,1354.56660967043,1.000700567268226,0.0005342961673621149
1354.5735541040447,1354.5735541040447,0.9996585153077584,0.0005340834851223111
1354.5804985374727,1354.5804985374727,0.9996118228483274,0.0005340165705421367
1354.5874429708078,1354.5874429708078,1.0006279262055808,0.0005343199351993571
1354.594387403864,1354.594387403864,1.0001981553041719,0.0005342313852667953
1354.6013318367332,1354.6013318367332,1.000529432276108,0.0005343253827890768
1354.6082762696028,1354.6082762696028,0.9998703670146742,0.0005342689839198164
1354.615220702286,1354.615220702286,0.9996323605682822,0.0005341432196588303
1354.6221651346896,1354.6221651346896,0.9997861639130011,0.0005341535996182559
1354.6291095670938,1354.6291095670938,0.9999022019864295,0.0005341706474726811
1354.6360539992183,1354.6360539992183,0.9992575683923398,0.0005341365555846312
1354.6429984311565,1354.6429984311565,1.0003511765855957,0.0005341908193361625
1354.6499428630948,1354.6499428630948,0.9999923881718544,0.0005340436288227962
1354.6568872948467,1354.6568872948467,0.9999756717406545,0.0005341695296192287
1354.6638317264124,1354.6638317264124,1.000881852731052,0.0005341990351755765
1354.6707761576986,1354.6707761576986,0.998680517042142,0.0005338615813223829
1354.677720589171,1354.677720589171,1.0003174140904778,0.0005340789304911607
1354.6846650202713,1354.6846650202713,1.0006564992366234,0.0005340282170054328
1354.691609451092,1354.691609451092,1.0003878179707104,0.000534075576236519
1354.6985538819122,1354.6985538819122,0.9996423336102274,0.0005339334097117664
1354.7054983125468,1354.7054983125468,0.9996799927517376,0.0005340736108156361
1354.712442743088,1354.712442743088,1.0001270865002314,0.0005341663164992346
1354.719387173443,1354.719387173443,1.0005839555055511,0.0005342363180868171
1354.726331603705,1354.726331603705,1.0004588484975694,0.0005342441423187888
1354.7332760338734,1354.7332760338734,0.9989004631020466,0.0005339843943696768
1354.740220463856,1354.740220463856,0.999215955347686,0.0005340870970120673
1354.747164893559,1354.747164893559,0.9997282100830608,0.0005341895327088646
1354.754109323169,1354.754109323169,1.0006544364667291,0.0005344365389460695
1354.7610537527787,1354.7610537527787,0.999032125846487,0.0005339754391870591
1354.7679981822025,1354.7679981822025,1.0006342162781443,0.0005342365104488742
1354.7749426114399,1354.7749426114399,0.9999834358798729,0.0005341480319996731
1354.781887040584,1354.781887040584,0.9998050081758121,0.0005341000854745364
1354.7888314695422,1354.7888314695422,1.000101343527486,0.000534234309189957
1354.7957758983139,1354.7957758983139,0.9999807988867395,0.0005342665207146624
1354.8027203270854,1354.8027203270854,0.9998422860670784,0.0005341829672905743
1354.8096647557638,1354.8096647557638,1.000825825149887,0.000534293369537296
1354.816609184163,1354.816609184163,0.9993285863734508,0.0005341906399971609
1354.8235536125624,1354.8235536125624,1.0012289939555843,0.000534509357412928
1354.8304980406822,1354.8304980406822,0.999122451845132,0.0005341819854640815
1354.8374424688022,1354.8374424688022,1.0004312270222147,0.0005343807587092252
1354.8443868967356,1354.8443868967356,0.9996103693356947,0.000534293851367695
1354.851331324483,1354.851331324483,0.9991344682822098,0.0005341958704609655
1354.85827575223,1354.85827575223,0.9991273273633062,0.0005343110230800929
1354.8652201796979,1354.8652201796979,1.000403337894453,0.0005345352408864663
1354.872164607166,1354.872164607166,1.0005548296859044,0.0005344995512168351
1354.8791090344473,1354.8791090344473,1.0002421357575622,0.0005345962026228379
1354.886053461636,1354.886053461636,1.0001303274750106,0.0005344967669823782
1354.8929978887313,1354.8929978887313,0.9997765591775062,0.0005343285762084816
1354.8999423155474,1354.8999423155474,0.9998159783516929,0.0005342887011656333
1354.9068867423634,1354.9068867423634,0.9996001809615009,0.0005343841272320965
1354.913831169179,1354.913831169179,1.000331388081057,0.0005344910139841786
1354.9207755957154,1354.9207755957154,0.9993289699463783,0.0005342293390951847
1354.927720022159,1354.927720022159,0.9999434932912357,0.0005343437793910325
1354.9346644484162,1354.9346644484162,1.0012649801556792,0.0005346790595521591
1354.9429977598686,1354.9429977598686,0.9995499272485855,0.0005341805048211441
1354.9499421858466,1354.9499421858466,0.9997882245599786,0.0005343205862926686
1354.956886611731,1354.956886611731,1.0004087187294863,0.0005345047842654999
1354.9638310376158,1354.9638310376158,0.9998294662022051,0.0005343690603083261
1354.9707754633143,1354.9707754633143,0.9997391267881646,0.0005343944730639958
1354.9777198889194,1354.9777198889194,1.0004305078991935,0.0005343456764752671
1354.9846643144317,1354.9846643144317,0.9999706948124016,0.0005342586248605517
1354.9916087397573,1354.9916087397573,0.9993521251299267,0.0005342062608984534
1354.99855316499,1354.99855316499,1.0001681320044478,0.000534431437227229
1355.0054975900364,1355.0054975900364,0.9996853158001153,0.000534370097836341
1355.012442015176,1355.012442015176,1.0004685851002635,0.0005344031911351066
1355.0193864400364,1355.0193864400364,0.9998763823432458,0.0005342667462065681
1355.0263308648032,1355.0263308648032,1.0004383582970036,0.0005343392559873873
1355.0332752894774,1355.0332752894774,1.0000362503536444,0.000534226675939232
1355.0402197140584,1355.0402197140584,0.999624554121836,0.0005341796671116947
1355.0471641383594,1355.0471641383594,1.0004886759306502,0.0005342755368234546
1355.05410856294,1355.05410856294,0.9998301174798125,0.0005344173906663438
1355.061052987055,1355.061052987055,0.9992489252163118,0.000534192904246965
1355.0679974111704,1355.0679974111704,0.999944160910456,0.0005343674870210437
1355.0749418352855,1355.0749418352855,1.0007078544913408,0.0005345154096311739
1355.081886258935,1355.081886258935,1.0004606346990697,0.0005344184112268318
1355.0888306828633,1355.0888306828633,0.9994482020520561,0.0005343449966596623
1355.095775106513,1355.095775106513,1.0002370012176658,0.0005344063029116021
1355.1027195301626,1355.1027195301626,0.9994732367283605,0.0005342861571080877
1355.1096639536258,1355.1096639536258,0.9998246361025069,0.0005344628437988386
1355.116608376996,1355.116608376996,1.0001388077021056,0.0005344318510779628
1355.1235528001798,1355.1235528001798,0.9998279175777383,0.0005344375264063817
1355.1304972233634,1355.1304972233634,1.0003426889892306,0.0005344615273502591
1355.137441646361,1355.137441646361,1.000603572571693,0.0005345131138170818
1355.1443860693582,1355.1443860693582,0.999285172447229,0.0005343472118943127
1355.1513304922632,1355.1513304922632,1.0006330695817411,0.0005345584461239729
1355.1582749149811,1355.1582749149811,0.9994041011818166,0.0005342351055577341
1355.165219337606,1355.165219337606,0.999714024409322,0.0005343624876720252
1355.1721637601381,1355.1721637601381,0.9999852564203653,0.0005344176189461621
1355.1791081824836,1355.1791081824836,1.0003321269630863,0.0005344453402158925
1355.186052604829,1355.186052604829,1.0001733196116405,0.0005343332490581887
1355.1929970270817,1355.1929970270817,0.9995672629445677,0.0005342072465346643
1355.1999414492407,1355.1999414492407,1.0004398558355008,0.0005344770562526537
1355.206885871121,1355.206885871121,1.0004484647451617,0.0005344120732573163
1355.21383029328,1355.21383029328,0.9993249996192946,0.0005342559329397836
1355.2207747151601,1355.2207747151601,1.0000984317841057,0.0005343787183179621
1355.227719136761,1355.227719136761,1.0004473511136969,0.0005343865119924341
1355.2346635582683,1355.2346635582683,0.9997708099549036,0.0005344156877664095
1355.2416079798688,1355.2416079798688,1.0001211432606956,0.0005344305714403664
1355.248552401283,1355.248552401283,0.9999005729082754,0.0005342960522953842
1355.255496822604,1355.255496822604,0.9996214759805249,0.0005343625069304224
1355.2624412438322,1355.2624412438322,1.0001140723740638,0.0005345121962944239
1355.26938566506,1355.26938566506,1.0007168969477103,0.0005345472211300391
1355.2763300860086,1355.2763300860086,0.9995927264140041,0.0005343976568651054
1355.283274506957,1355.283274506957,0.9997886577652745,0.0005344314915884605
1355.2902189278127,1355.2902189278127,0.9993111517430229,0.0005343489228853004
1355.2971633486684,1355.2971633486684,1.0003683095073996,0.0005344950893098261
1355.3041077692444,1355.3041077692444,1.000048149233609,0.0005343191309182408
1355.3110521898204,1355.3110521898204,1.0010797717614441,0.0005346691665485143
1355.3179966103037,1355.3179966103037,0.9990832380152949,0.0005342091213052471
1355.3249410306003,1355.3249410306003,1.0001443750784216,0.0005345220211428974
1355.3318854508968,1355.3318854508968,0.9995258347688415,0.0005342713000101859
1355.3396632015285,1355.3396632015285,1.0008132704194934,0.0005344500630250136
1355.3471631751959,1355.3471631751959,0.9993286878053824,0.0005342763092324789
1355.3541075951198,1355.3541075951198,1.0005713286779154,0.000534460654170318
1355.3610520150442,1355.3610520150442,0.9998046523122749,0.0005343613994756552
1355.367996434782,1355.367996434782,1.000273087216499,0.0005345416884637808
1355.374940854613,1355.374940854613,0.9995303741733901,0.0005343174298602503
1355.3818852740715,1355.3818852740715,1.000056129346326,0.0005343987455319179
1355.38882969353,1355.38882969353,0.9996753111330297,0.0005343344997597698
1355.3957741129884,1355.3957741129884,1.0003233869721304,0.0005343623297952215
1355.4038296395604,1355.4038296395604,0.9991169903213626,0.000534296100472898
1355.4110518354244,1355.4110518354244,1.0007385263596016,0.0005346114488497926
1355.4179962546036,1355.4179962546036,1.0003957540167923,0.0005344761148284233
1355.4249406736897,1355.4249406736897,1.0001451906639864,0.0005343353400329348
1355.4318850925895,1355.4318850925895,1.0007814483370474,0.0005346042352458798
1355.4388295114893,1355.4388295114893,0.9998234439322404,0.0005343829696816612
1355.445773930296,1355.445773930296,0.9987708029408026,0.0005340797652529162
1355.4527183490093,1355.4527183490093,0.9992217247593368,0.000534345230495685
1355.4596627675364,1355.4596627675364,1.0004800238518734,0.00053456831560307
1355.4666071860634,1355.4666071860634,1.0000483646697436,0.0005345878119190139
1355.473551604498,1355.473551604498,1.0003987427484284,0.0005345633212360431
1355.480496022839,1355.480496022839,1.001099808211353,0.0005348273766531202
1355.4874404410864,1355.4874404410864,0.999759747551677,0.0005346686332455026
1355.4943848591479,1355.4943848591479,0.9997582615891009,0.0005345926894683459
1355.5013292773026,1355.5013292773026,0.9997307698604813,0.0005345338965652981
1355.5082736952706,1355.5082736952706,0.9992686590832243,0.0005345154180077202
1355.515218113053,1355.515218113053,1.0001608338343735,0.0005347383596379523
1355.5221625310216,1355.5221625310216,1.000468265393156,0.0005348555772784182
1355.5291069487103,1355.5291069487103,1.0002485513723216,0.0005347293269997228
1355.536051366306,1355.536051366306,0.999506712774768,0.000534686594413983
1355.5429957839024,1355.5429957839024,1.0004828782823592,0.0005346899057607334
1355.5499402012188,1355.5499402012188,1.00099551603886,0.0005348853650176085
1355.5568846188146,1355.5568846188146,0.9995329851723167,0.0005345691807041241
1355.5638290359448,1355.5638290359448,0.9997621808070212,0.0005346558902730146
1355.5707734530747,1355.5707734530747,0.9992404368589657,0.0005345707323646962
1355.577717870205,1355.577717870205,1.0007849306845764,0.0005348054188219926
1355.5846622873353,1355.5846622873353,1.000185757725224,0.0005346533256915611
1355.5916067044654,1355.5916067044654,1.0002460252560506,0.0005347125192777481
1355.5985511211302,1355.5985511211302,1.000705438761817,0.000534678642176903
1355.6054955379807,1355.6054955379807,0.999408269779704,0.0005344544666144844
1355.6124399547384,1355.6124399547384,0.9991380426371139,0.0005344621318138849
1355.61938437131,1355.61938437131,1.0000812960628311,0.0005345793082613787
1355.6263287878812,1355.6263287878812,0.9996949272329143,0.0005344523673819903
1355.6332732042667,1355.6332732042667,1.0004441199419762,0.0005347673069617038
1355.6402176206516,1355.6402176206516,1.0004644222367143,0.0005347904941333849
1355.6471620369434,1355.6471620369434,0.9998740339857427,0.0005346898652857342
1355.6541064531425,1355.6541064531425,1.0008985303150744,0.000534777150395977
1355.6610508693416,1355.6610508693416,0.9996039915478084,0.000534569639068828
1355.667995285354,1355.667995285354,1.0005366017607698,0.0005347133482976939
1355.6749397012738,1355.6749397012738,0.9988437675925745,0.0005344676125488902
1355.681884117193,1355.681884117193,0.9993027646877627,0.000534592464933229
1355.6888285330194,1355.6888285330194,1.0001187347860843,0.000534753784425138
1355.6957729486596,1355.6957729486596,1.0004282869064849,0.0005347777484556155
1355.7027173642996,1355.7027173642996,0.9996388609700746,0.0005346435110069631
1355.7096617798466,1355.7096617798466,0.9999116803409652,0.0005347363161570368
1355.7166061953935,1355.7166061953935,1.001466087751862,0.0005349272884214854
1355.723550610754,1355.723550610754,1.0001028284449265,0.0005347826097764388
1355.7304950260218,1355.7304950260218,0.9992951320645924,0.000534505304488405
1355.7374394412896,1355.7374394412896,0.9997846721741996,0.0005345897681704843
1355.7443838564639,1355.7443838564639,1.0000649454516726,0.0005346843230017353
1355.7527171544123,1355.7527171544123,1.0000018499436671,0.0005345690528501966
1355.7596615696798,1355.7596615696798,0.9996520058534625,0.0005345351756650132
1355.7666059844819,1355.7666059844819,0.9995208289667634,0.0005345331959005033
1355.7735503992837,1355.7735503992837,1.0001273663305845,0.0005347257685080714
1355.7804948140852,1355.7804948140852,1.0006110522665845,0.0005347064199213068
1355.787439228608,1355.787439228608,1.0003852932632724,0.0005347109672713586
1355.7943836432237,1355.7943836432237,0.9998257186868653,0.0005346504121654708
1355.801328057653,1355.801328057653,1.0000767804399138,0.0005347099472339674
1355.8082724721758,1355.8082724721758,0.9999984886140314,0.0005346589093396437
1355.815216886512,1355.815216886512,1.0004637427151415,0.0005347161382228178
1355.8221613007552,1355.8221613007552,0.9993675251697243,0.0005346424378484937
1355.829105714905,1355.829105714905,0.9999664638469419,0.0005347397401680463
1355.8360501290547,1355.8360501290547,0.9998048561875128,0.0005346637053983553
1355.8429945431121,1355.8429945431121,1.000051069824107,0.0005347454104196965
1355.8499389569822,1355.8499389569822,0.9998972317099841,0.0005347876835484774
1355.8568833709462,1355.8568833709462,1.0000073518358683,0.0005346774606611236
1355.8638277847235,1355.8638277847235,0.9993905765630033,0.000534585356122718
1355.8707721985008,1355.8707721985008,0.9999067162863746,0.0005346349264221249
1355.8777166120922,1355.8777166120922,1.0002748358535218,0.000534761851118422
1355.8846610256837,1355.8846610256837,1.0003895512299725,0.0005348260473156698
1355.8916054391814,1355.8916054391814,1.0003450376819318,0.0005346905703300828
