time,time,flux,flux_err
1325.299603117809,1325.299603117809,0.9998884218854561,0.0001310797352380264
1325.3079364278985,1325.3079364278985,1.0001275031057684,0.00013110020661338812
1325.3162697382363,1325.3162697382363,0.9999953994943042,0.0001311069094432601
1325.323908606255,1325.323908606255,1.0000592171082012,0.00011968183868034434
1325.3308530319068,1325.3308530319068,1.000052456013843,0.00011968835834848708
1325.3377974577104,1325.3377974577104,0.9999915242934238,0.00011969727856818915
1325.3447418836886,1325.3447418836886,0.999825506297009,0.00011968475731000022
1325.3516863098353,1325.3516863098353,1.0000328908246985,0.00011970956599611574
1325.3586307361334,1325.3586307361334,1.0000462774559158,0.00011971896624786782
1325.3655751625888,1325.3655751625888,0.9998697876213732,0.00011971087329118709
1325.3725195892068,1325.3725195892068,0.9999587766165462,0.00011971669812808078
1325.3794640159765,1325.3794640159765,1.000066541944453,0.00011973183299522793
1325.3864084429092,1325.3864084429092,1.000060308623866,0.00011975053456607738
1325.393352869987,1325.393352869987,1.000062705056441,0.00011975938142925766
1325.4002972972223,1325.4002972972223,1.0000866542433304,0.0001197733591750275
1325.4072417246032,1325.4072417246032,0.9998657369761194,0.00011975576593082577
1325.4141861521352,1325.4141861521352,0.9999835968164252,0.00011977290651212587
1325.4211305798187,1325.4211305798187,1.0000944466150328,0.00011979364199724806
1325.4280750076475,1325.4280750076475,1.0000027060520054,0.00011979403872753511
1325.4350194356161,1325.4350194356161,0.9996880466084249,0.00011978052499052778
1325.4419638637305,1325.4419638637305,1.000057907610468,0.00011980276379698512
1325.448908291996,1325.448908291996,0.9998261448070718,0.00011980054335417648
1325.4558527203899,1325.4558527203899,1.0002685594791714,0.00011983965211572396
1325.4627971489285,1325.4627971489285,1.0001678560037397,0.0001198334343654594
1325.4697415776077,1325.4697415776077,1.0001340287866667,0.00011984136790055599
1325.4766860064203,1325.4766860064203,0.9997869783644451,0.00011983292327883018
1325.4836304353782,1325.4836304353782,1.0000361766946533,0.00011986143213113063
1325.4905748644474,1325.4905748644474,1.0001223338408112,0.00011986743134815405
1325.4975192936733,1325.4975192936733,1.0000055899050533,0.0001198751361820029
1325.5044637230098,1325.5044637230098,0.9997756167671772,0.00011987170679663875
1325.5114081524982,1325.5114081524982,1.0000067581560148,0.00011989687500653765
1325.5183525820962,1325.5183525820962,0.9999292900926579,0.00011990609546987494
1325.5252970118286,1325.5252970118286,1.000023149694521,0.0001199226343676889
1325.532241441689,1325.532241441689,0.9999525442528825,0.00011992399055601227
1325.5391858716716,1325.5391858716716,1.0001917754453378,0.00011995296521952629
1325.5461303017769,1325.5461303017769,0.999934364745535,0.00011994584159944685
1325.5530747320095,1325.5530747320095,0.9999893549169329,0.0001199634716893654
1325.5600191623648,1325.5600191623648,1.0000367035708844,0.00011996150778253645
1325.5669635928364,1325.5669635928364,0.9999622593857124,0.00011998406450993568
1325.5739080234243,1325.5739080234243,1.0000534753302628,0.0001199976109085075
1325.5808524541292,1325.5808524541292,0.9999126917273264,0.00011999892260064735
1325.5877968849436,1325.5877968849436,1.00005360753257,0.00012001239335934141
1325.594741315887,1325.594741315887,1.0000918254637383,0.00012001399014769814
1325.6016857469347,1325.6016857469347,0.9998829614548587,0.00012001205699995628
1325.6086301780933,1325.6086301780933,0.9999354840038791,0.00012001681306085269
1325.615574609374,1325.615574609374,1.0001226626570783,0.00012003672670441103
1325.6225190407595,1325.6225190407595,0.9998833321375198,0.00012001943900064342
1325.6294634722497,1325.6294634722497,1.0001043172389752,0.00012003064202047923
1325.6364079038447,1325.6364079038447,0.9999464285245827,0.00012003330794045991
1325.6433523355502,1325.6433523355502,0.9999127647426691,0.00012003201568168114
1325.6502967673607,1325.6502967673607,1.0001658755531424,0.00012005186219067596
1325.6572411992815,1325.6572411992815,0.9999025331276254,0.00012003433048084695
1325.6641856313015,1325.6641856313015,1.0000314606695233,0.00012004375107712517
1325.6711300634145,1325.6711300634145,1.0000412347579661,0.00012004434121124028
1325.6780744956382,1325.6780744956382,1.0000894560918474,0.00012004387756315042
1325.685018927961,1325.685018927961,0.9999596468902583,0.0001200342259523566
1325.6919633603768,1325.6919633603768,0.9999772786579639,0.00012004550671653719
1325.6989077928972,1325.6989077928972,0.9998779435431591,0.00012004895719324162
1325.705852225511,1325.705852225511,0.9998799578181213,0.0001200463918518907
1325.7127966582175,1325.7127966582175,0.9998391642872031,0.00012004218178711137
1325.7197410910292,1325.7197410910292,1.0000591270425534,0.00012006002707045018
1325.7266855239222,1325.7266855239222,1.0002832342260723,0.00012007874455652399
1325.7336299569083,1325.7336299569083,1.0002066794378375,0.00012007251182064801
1325.7405743899878,1325.7405743899878,1.000050279894851,0.0001200701265908005
1325.7475188231542,1325.7475188231542,0.9998953279651499,0.00012006460170411194
1325.754463256414,1325.754463256414,0.9999629397504217,0.00012007133265556997
1325.761407689767,1325.761407689767,0.9998262851037838,0.000120076436169919
1325.7683521232016,1325.7683521232016,0.9998385620354359,0.00012008322096043675
1325.7752965567229,1325.7752965567229,1.0001483544750358,0.00012010817941286215
1325.7822409903263,1325.7822409903263,1.000106742477786,0.00012010847070719427
1325.789185424023,1325.789185424023,1.0000571041355177,0.00012012756959965451
1325.7961298578005,1325.7961298578005,1.0000143897270117,0.00012011971751733542
1325.8030742916596,1325.8030742916596,1.0000664864748274,0.00012012990422606263
1325.8100187256007,1325.8100187256007,0.9999210444453357,0.00012012018211655969
1325.816963159617,1325.816963159617,0.9998995510033556,0.00012011083897182802
1325.8239075937208,1325.8239075937208,0.9999730465275807,0.00012012869028950291
1325.8308520279002,1325.8308520279002,0.9998930776894779,0.0001201294300274039
1325.8377964621552,1325.8377964621552,1.000033941338236,0.0001201485655837305
1325.8447408964862,1325.8447408964862,1.0000580452730397,0.0001201408535903185
1325.8516853309036,1325.8516853309036,1.000190773481981,0.00012014275620050165
1325.8586297653806,1325.8586297653806,0.9998216852421917,0.00012012161183466916
1325.865574199944,1325.865574199944,1.0001108400613519,0.0001201388321293813
1325.8725186345835,1325.8725186345835,1.0000273100786743,0.00012011778570239716
1325.8794630692867,1325.8794630692867,0.9998992125228916,0.00012011251845083943
1325.8864075040656,1325.8864075040656,0.9998495742155773,0.00012009934769247224
1325.8933519389261,1325.8933519389261,1.0000177021040044,0.00012009753928007174
1325.900296373839,1325.900296373839,1.0000545472852571,0.00012010153196108993
1325.907240808839,1325.907240808839,1.000158852820488,0.00012009920353289753
1325.9141852438916,1325.9141852438916,0.9998384652752955,0.0001200813680783166
1325.9211296790252,1325.9211296790252,1.0000142579371956,0.0001200912023755326
1325.9280741142181,1325.9280741142181,1.0001576876926948,0.00012009485721121939
1325.93501854948,1325.93501854948,0.9999495635609955,0.00012008950825974306
1325.9419629848178,1325.9419629848178,1.000065516723391,0.00012009421797080405
1325.948907420208,1325.948907420208,0.9999708541712407,0.00012007946653110318
1325.955851855668,1325.955851855668,0.9999411329574647,0.00012007609603676043
1325.963629623461,1325.963629623461,0.9999345540954934,0.00012007303116851951
1325.9711296138908,1325.9711296138908,1.0000033379513893,0.00012008198778882462
1325.9780740495546,1325.9780740495546,0.9999227648925452,0.00012008344629280017
1325.9850184852762,1325.9850184852762,0.9999354506326524,0.00012006804656176021
1325.9919629210565,1325.9919629210565,1.0001767384254188,0.00012009062178856267
1325.9989073569006,1325.9989073569006,1.0000764733378482,0.00012009752882233991
1326.0058517928087,1326.0058517928087,1.000028397136637,0.0001200886986999947
1326.0127962287638,1326.0127962287638,0.999999583215742,0.00012009189891059449
1326.0197406647826,1326.0197406647826,0.9999332205378533,0.00012009905407399928
1326.0266851008598,1326.0266851008598,1.000049862382966,0.00012010649038616411
1326.033629536989,1326.033629536989,0.9998432937094842,0.00012009752811340312
1326.0405739731762,1326.0405739731762,1.000104551434512,0.00012009973039990504
1326.0475184094166,1326.0475184094166,1.000029502772843,0.00012009441790254165
1326.0544628457146,1326.0544628457146,0.9996194479271099,0.00012007524157277934
1326.061407282071,1326.061407282071,0.9999669675088487,0.00012010885280739862
1326.06835171848,1326.06835171848,1.0002047342120757,0.0001201199572454352
1326.0752961549406,1326.0752961549406,1.0004518350636817,0.00012014280049379135
1326.0822405914548,1326.0822405914548,1.0000414227600565,0.00012011582890503565
1326.0891850280148,1326.0891850280148,0.9998965906752122,0.00012010963714221794
1326.0961294646274,1326.0961294646274,0.9999353441487109,0.00012009809441083312
1326.1030739012867,1326.1030739012867,0.9999407336961099,0.00012010525069431577
1326.1100183380095,1326.1100183380095,0.9996733069650631,0.00012010325219686869
1326.1169627747674,1326.1169627747674,0.9999168108180976,0.00012010158105050819
1326.1239072115836,1326.1239072115836,0.9999535584933461,0.00012009755805898105
1326.1308516484469,1326.1308516484469,1.000183733428106,0.00012012275640695567
1326.1377960853558,1326.1377960853558,1.000187928796085,0.00012011757492950972
1326.144740522318,1326.144740522318,1.0001522938592138,0.00012011216153910945
1326.1516849593145,1326.1516849593145,1.0000143403519905,0.00012011053467044578
1326.1586293963633,1326.1586293963633,1.0000062935129663,0.00012010730206977748
1326.1655738334593,1326.1655738334593,0.9999319243808508,0.0001201066703425845
1326.1725182706011,1326.1725182706011,0.9997185344511719,0.00012009284562141469
1326.1794627077902,1326.1794627077902,0.9999394698130205,0.00012010091494158015
1326.186407145014,1326.186407145014,0.9999917982324119,0.00012010923137869669
1326.1933515822839,1326.1933515822839,1.0001922318178151,0.00012012249661452149
1326.2002960196012,1326.2002960196012,1.0002215003789343,0.00012010933477573217
1326.2072404569526,1326.2072404569526,0.9999362464154216,0.00012011522615621689
1326.2141848943515,1326.2141848943515,1.0000165452445002,0.00012010864730850703
1326.2211293317962,1326.2211293317962,0.9998554974321217,0.00012008502646046083
1326.2280737692815,1326.2280737692815,0.9998484535180886,0.00012009199488293748
1326.2350182068021,1326.2350182068021,1.0000705432501455,0.00012010225925015828
1326.241962644363,1326.241962644363,1.0000436896759792,0.00012010568631919119
1326.2489070819656,1326.2489070819656,0.9998949385596065,0.00012009762330107343
1326.255851519608,1326.255851519608,1.0001803315613351,0.00012011245155678023
1326.2627959572806,1326.2627959572806,0.9999356615882086,0.00012010273528756771
1326.2697403950046,1326.2697403950046,1.000144017114077,0.00012010808005745646
1326.2766848327578,1326.2766848327578,1.000045084044551,0.000120099354483725
1326.2836292705522,1326.2836292705522,0.9999789712030618,0.00012010164944142948
1326.2905737083752,1326.2905737083752,0.9999338878322106,0.0001200893293830165
1326.297518146251,1326.297518146251,0.9997972159580865,0.00012008418157637107
1326.3044625841555,1326.3044625841555,0.9998787411180832,0.0001200896143990513
1326.3114070220895,1326.3114070220895,1.000035023459855,0.00012010845857760046
1326.31835146007,1326.31835146007,1.0001713200788191,0.00012010777167571212
1326.3252958980734,1326.3252958980734,0.9999893309388446,0.00012010508383120259
1326.3322403361183,1326.3322403361183,1.0001686264090544,0.0001201117352200509
1326.3391847741916,1326.3391847741916,0.9999281304231902,0.00012010539344871843
1326.3466847673517,1326.3466847673517,1.0000010367829055,0.00012009241244096802
1326.3558514257065,1326.3558514257065,0.9999822026540375,0.0001201062230147907
1326.3627958639022,1326.3627958639022,1.0000958414797583,0.00012011297848678677
1326.3697403021215,1326.3697403021215,0.9999307180142856,0.00012011135949716017
1326.3766847403697,1326.3766847403697,1.0000571532242746,0.00012011920412099754
1326.3836291786524,1326.3836291786524,1.0000473159813636,0.00012011897640383088
1326.3905736169766,1326.3905736169766,0.9997553796590555,0.00012010721222566425
1326.3975180553177,1326.3975180553177,1.000093192327699,0.00012012434481057058
1326.4044624936998,1326.4044624936998,0.9999152713527814,0.00012012258915933703
1326.4114069320997,1326.4114069320997,1.0001876676203425,0.00012013481166924271
1326.4183513705339,1326.4183513705339,0.9999201870863761,0.00012012716563364016
1326.4252958090033,1326.4252958090033,1.0000336302760526,0.00012012512028123398
1326.4322402475016,1326.4322402475016,0.9997455785523904,0.00012011919109102971
1326.4391846860174,1326.4391846860174,0.9999274848190653,0.00012012918901052868
1326.4461291245684,1326.4461291245684,1.000208889326771,0.00012014414428402408
1326.4530735631483,1326.4530735631483,1.0000793082279738,0.00012014019696399383
1326.4600180017574,1326.4600180017574,0.9999404813612489,0.0001201362012995948
1326.4669624403898,1326.4669624403898,0.9998738923688627,0.0001201203026036565
1326.473906879051,1326.473906879051,1.0001421792605636,0.00012014310374457113
1326.4808513177359,1326.4808513177359,0.9999742035427822,0.00012014116533178593
1326.4877957564436,1326.4877957564436,0.9998465209181304,0.00012013632857105466
1326.4947401951868,1326.4947401951868,0.9999971046251565,0.00012014724176563426
1326.5016846339527,1326.5016846339527,1.0000377179676776,0.00012014650625203655
1326.5086290727427,1326.5086290727427,0.9999353867787665,0.00012014903879400186
1326.515573511561,1326.515573511561,0.9999077319159184,0.00012014966889376154
1326.5225179503911,1326.5225179503911,1.0001053599127634,0.00012015981310497781
1326.5294623892626,1326.5294623892626,0.9999172194498349,0.00012015810164308625
1326.5364068281447,1326.5364068281447,0.9999842993347359,0.00012015731066985216
1326.5433512670568,1326.5433512670568,1.000228317745934,0.00012018170826287136
1326.5502957059919,1326.5502957059919,0.9999826429412115,0.00012016961499473422
1326.55724014495,1326.55724014495,0.9999186748393967,0.000120168338538201
1326.5641845839316,1326.5641845839316,1.0001230960115215,0.00012017024085881238
1326.5711290229247,1326.5711290229247,0.9999163150859655,0.00012016926446460749
1326.578073461953,1326.578073461953,0.9998961473274113,0.00012015944745363325
1326.5850179010042,1326.5850179010042,0.9998389315092233,0.00012015867652291717
1326.5919623400735,1326.5919623400735,0.9999678620099077,0.00012017770113766262
1326.5989067791593,1326.5989067791593,1.0001182024447572,0.00012018758892126846
1326.605851218275,1326.605851218275,1.000189404752189,0.00012018026196320345
1326.6127956574023,1326.6127956574023,0.9999657394812953,0.00012018101580017822
1326.619740096564,1326.619740096564,1.000041067015005,0.00012018293231505191
1326.6266845357263,1326.6266845357263,1.0001112927922922,0.00012018059373140534
1326.6336289749229,1326.6336289749229,0.9999979014612876,0.0001201775098609474
1326.640573414132,1326.640573414132,0.9998296521222905,0.00012016646758348445
1326.6475178533635,1326.6475178533635,1.0000367753692505,0.00012018517289534548
1326.6544622926187,1326.6544622926187,0.9999177705438322,0.00012017444648542898
1326.6614067318856,1326.6614067318856,0.9999124538369827,0.00012017592760374765
1326.6683511711697,1326.6683511711697,0.9998656633675417,0.0001201689202622087
1326.6752956104715,1326.6752956104715,1.0000354762931543,0.00012017102103996145
1326.6822400498083,1326.6822400498083,1.0002901301587772,0.00012017911217773809
1326.6902955994458,1326.6902955994458,0.9999679214050378,0.00012015962935262481
1326.6975178163837,1326.6975178163837,1.0001211144358229,0.00012016096789854683
1326.7044622557669,1326.7044622557669,0.9998654762416376,0.00012014001409412722
1326.7119622503183,1326.7119622503183,1.0000779506158264,0.00012015541953986017
1326.719740022471,1326.719740022471,0.9999958032426581,0.00012015134898355677
1326.7266844619005,1326.7266844619005,0.9999548915337618,0.00012013981521618482
1326.7336289013533,1326.7336289013533,0.9998726349829916,0.00012014474167162065
1326.74057334083,1326.74057334083,1.000065343560937,0.00012014553834584344
1326.747517780312,1326.747517780312,1.0000291733329547,0.00012014606176987984
1326.7544622198116,1326.7544622198116,1.000091965564779,0.00012014902392222144
1326.7614066593346,1326.7614066593346,0.9999509067166228,0.00012012579185640699
1326.7683510988631,1326.7683510988631,0.9999034228510008,0.0001201364712121671
1326.7752955384035,1326.7752955384035,0.9999504658182774,0.00012012524545206717
1326.7822399779675,1326.7822399779675,1.0001202031667795,0.00012013956978932909
1326.7891844175424,1326.7891844175424,0.9997078517717564,0.00012012300968938664
1326.7961288571296,1326.7961288571296,1.0001737955429222,0.00012014490997079198
1326.80307329674,1326.80307329674,1.000026201590614,0.00012014322643067145
1326.8100177363617,1326.8100177363617,1.0000339735668855,0.00012013674195870371
1326.8169621759948,1326.8169621759948,1.0000619516852391,0.00012013835919366833
1326.8239066156402,1326.8239066156402,1.000091324205476,0.00012013199998579826
1326.830851055303,1326.830851055303,1.0000144479809898,0.00012013193729691015
1326.8377954949772,1326.8377954949772,0.9999617359846855,0.00012012936532070113
1326.8447399346571,1326.8447399346571,0.9998912148656895,0.00012012604090005561
1326.8516843743605,1326.8516843743605,0.9999027437332648,0.00012012095455852739
1326.8586288140696,1326.8586288140696,0.9998905025638685,0.00012011474433834908
1326.865573253791,1326.865573253791,0.999906056297721,0.00012011031039927014
1326.872517693529,1326.872517693529,1.0002988894869325,0.00012013997852536177
1326.879462133273,1326.879462133273,0.9999619864748173,0.00012011353604709162
1326.8864065730463,1326.8864065730463,1.0000841467877268,0.00012010819949097494
1326.8933510128131,1326.8933510128131,1.0001352383814244,0.0001201114099143027
1326.9002954525986,1326.9002954525986,0.9998988560058162,0.00012008757813460083
1326.907239892395,1326.907239892395,0.9999788653570745,0.00012009536315875256
1326.9141843322031,1326.9141843322031,0.9999740609700056,0.00012008767770557015
1326.9211287720227,1326.9211287720227,0.9999319455398895,0.00012007448292538955
1326.9280732118427,1326.9280732118427,0.9997775857169252,0.00012005837337010459
1326.93501765168,1326.93501765168,1.000175805840908,0.00012008211194466782
1326.9419620915344,1326.9419620915344,1.0000167725205464,0.00012005618362183114
1326.9489065313892,1326.9489065313892,1.0000865328728312,0.00012005921832139435
1326.9558509712672,1326.9558509712672,1.0000597230765997,0.00012005486141325815
1326.9627954111338,1326.9627954111338,0.999983526187419,0.00012004401487615453
1326.9697398510234,1326.9697398510234,0.9999913342063426,0.00012004304112599416
1326.9766842909298,1326.9766842909298,0.9999795795639326,0.00012003685843921172
1326.9836287308376,1326.9836287308376,1.0000090598107854,0.00012003858572103273
1326.990573170756,1326.990573170756,0.9999505384222305,0.00012002917746178154
1326.9975176106811,1326.9975176106811,1.0000808981042582,0.00012002201951019939
1327.004462050617,1327.004462050617,1.0000639209581492,0.0001200346653610648
1327.0114064905647,1327.0114064905647,0.9998275943292556,0.00012001576658099502
1327.0183509305182,1327.0183509305182,1.0000453834807892,0.00012003002507567613
1327.0252953704835,1327.0252953704835,0.9999195090327886,0.00012001639682325644
1327.0322398104431,1327.0322398104431,0.9998308249279338,0.00012001888908603372
1327.0391842504255,1327.0391842504255,1.0001460325991902,0.00012002825585291257
1327.0461286904088,1327.0461286904088,0.9999149295105569,0.00012000328032541728
1327.053073130403,1327.053073130403,1.0001584801265655,0.00012001684036427327
