time,time,flux,flux_err
1385.951260125439,1385.951260125439,0.9998135945100793,0.0009017155831297644
1385.9595935103982,1385.9595935103982,1.000264683776556,0.0009018063170479062
1385.9679268953566,1385.9679268953566,0.9992775106916464,0.000901227407148704
1385.9762602803148,1385.9762602803148,1.0009530328114127,0.0009014061958271459
1385.9838992165428,1385.9838992165428,1.0004477254103294,0.0008225984247985654
1385.990843704012,1385.990843704012,1.001170022811826,0.0008229902827448218
1385.9977881914929,1385.9977881914929,0.9985711538793464,0.0008220755882318851
1386.0047326789743,1386.0047326789743,0.9996240299113763,0.0008222511121927864
1386.0116771664434,1386.0116771664434,0.9990882949811228,0.0008222452635609411
1386.0186216539357,1386.0186216539357,0.9992446764974476,0.0008224648574659193
1386.0255661414294,1386.0255661414294,0.9998196039884959,0.0008222939354096696
1386.0325106288985,1386.0325106288985,1.001188931511167,0.0008226555170229961
1386.0394551163904,1386.0394551163904,1.0001790290197277,0.0008227866552034718
1386.0463996038955,1386.0463996038955,1.0002769004732912,0.0008227006643973439
1386.0533440913882,1386.0533440913882,1.0007556796274053,0.0008225401137245087
1386.0602885788685,1386.0602885788685,0.9997158602983364,0.0008223040548109111
1386.0672330663733,1386.0672330663733,0.9990067691166791,0.0008224318403241655
1386.074177553878,1386.074177553878,1.0008075618686427,0.0008227421037036283
1386.08112204137,1386.08112204137,1.0005971980575536,0.0008227751086411073
1386.0880665288746,1386.0880665288746,0.998485889288863,0.0008224261924700997
1386.0950110163792,1386.0950110163792,1.0001602361491115,0.0008228844326464227
1386.1019555038947,1386.1019555038947,1.0004389167344971,0.0008229904871130519
1386.1088999913986,1386.1088999913986,0.9988728923009507,0.0008225963183582012
1386.1158444789155,1386.1158444789155,0.9992200939669196,0.0008226383648000397
1386.1227889664194,1386.1227889664194,1.000996835387653,0.0008230117174739754
1386.1297334539236,1386.1297334539236,1.0006692030111544,0.0008227705184579631
1386.13667794144,1386.13667794144,1.0007133114008704,0.0008230292812862186
1386.1436224289675,1386.1436224289675,0.9999335715806946,0.0008229019756557426
1386.1505669164828,1386.1505669164828,0.9985729721654024,0.0008226204313409906
1386.1575114039995,1386.1575114039995,1.0012865750920525,0.000823332004401872
1386.1644558915154,1386.1644558915154,1.0008661973185742,0.0008233441986364099
1386.1714003790426,1386.1714003790426,1.0007264378000074,0.0008231845621733258
1386.1783448665706,1386.1783448665706,0.9977994208565544,0.000822823997715459
1386.1852893540868,1386.1852893540868,0.9990195176285039,0.0008230390490168835
1386.1922338416139,1386.1922338416139,1.00029924712272,0.0008233280285537776
1386.1991783291414,1386.1991783291414,0.9994940181056784,0.0008230281791831
1386.2061228166692,1386.2061228166692,1.0006179033214084,0.0008230241998329665
1386.2130673042086,1386.2130673042086,1.0001756866977478,0.0008231186552224653
1386.2200117917123,1386.2200117917123,0.999930682326144,0.0008231282669510679
1386.2269562792758,1386.2269562792758,1.0007181262002443,0.0008231533227083983
1386.2339007667797,1386.2339007667797,1.0000034916656002,0.0008232691803980223
1386.2408452543418,1386.2408452543418,1.0004688389353944,0.0008228230384901206
1386.2477897418469,1386.2477897418469,0.9995118976496196,0.0008227172281306174
1386.2547342294097,1386.2547342294097,1.0008281352020654,0.0008229139096641877
1386.2616787169247,1386.2616787169247,0.9989959829547231,0.0008224755113191929
1386.2686232044762,1386.2686232044762,0.998659189432663,0.0008223215109289783
1386.275567692004,1386.275567692004,1.0014587123740664,0.0008228940608870694
1386.2825121795424,1386.2825121795424,1.0005738493969396,0.0008227073517814553
1386.2894566671052,1386.2894566671052,0.9997148092627006,0.0008227588379720117
1386.2964011546096,1386.2964011546096,0.9989752068421517,0.0008225555852641031
1386.3033456421722,1386.3033456421722,1.0003785607318112,0.0008229367944309176
1386.3102901297227,1386.3102901297227,1.000656347765775,0.0008229382235146333
1386.3172346172391,1386.3172346172391,0.9998106572710711,0.0008227358347113719
1386.3241791048017,1386.3241791048017,0.9999298432179426,0.0008225897661803353
1386.3311235923522,1386.3311235923522,0.9999813632374177,0.0008228090020271254
1386.3380680798684,1386.3380680798684,1.000091375227266,0.0008229634229909756
1386.3450125674315,1386.3450125674315,0.9998701994799706,0.0008230690153634738
1386.3519570549931,1386.3519570549931,1.0002880439429787,0.0008231339957457347
1386.3589015425096,1386.3589015425096,1.000120364921076,0.0008230912222555737
1386.366957148071,1386.366957148071,0.9986847535760525,0.0008229803237572028
1386.3741794151351,1386.3741794151351,1.0007238978190254,0.000823295962993038
1386.381123902686,1386.381123902686,1.0004530077083646,0.0008234893484993049
1386.3880683902025,1386.3880683902025,0.9996928240670157,0.0008231304157540621
1386.3950128777647,1386.3950128777647,1.0000372016966965,0.0008233060813967822
1386.4019573653272,1386.4019573653272,1.0004564092476227,0.0008235379590024558
1386.4089018528782,1386.4089018528782,1.0000065720104687,0.0008234046436349654
1386.4158463403942,1386.4158463403942,0.9989600952336607,0.0008232453110754783
1386.422790827956,1386.422790827956,0.9997256865499512,0.0008230589808666947
1386.4297353155193,1386.4297353155193,1.0010780873234304,0.0008235665114093829
1386.4366798030826,1386.4366798030826,0.9991336377923806,0.0008230702461459744
1386.4436242905974,1386.4436242905974,1.0005848288919588,0.0008234307394088716
1386.4505687781489,1386.4505687781489,0.9998082537868356,0.0008232327983578147
1386.457513265712,1386.457513265712,1.0006898834992055,0.0008231087383790781
1386.4644577532733,1386.4644577532733,0.9994555299830603,0.0008233296852008408
1386.4714022408243,1386.4714022408243,0.999929390821063,0.0008230357155507593
1386.478346728341,1386.478346728341,1.0001468508942146,0.000822977825550373
1386.4852912159033,1386.4852912159033,0.9998598752520845,0.0008232038621822392
1386.4922357034654,1386.4922357034654,0.9992039252945604,0.0008229206515438165
1386.4991801910282,1386.4991801910282,1.0006142596322523,0.0008234412121482751
1386.5061246785563,1386.5061246785563,1.0005223118576272,0.0008236235593270386
1386.5130691660947,1386.5130691660947,0.99991902115226,0.0008234578580753474
1386.5200136536578,1386.5200136536578,1.0005094967663024,0.0008237350358150789
1386.5269581412206,1386.5269581412206,1.000163767383802,0.0008233968066836869
1386.5339026287595,1386.5339026287595,1.000599229582055,0.0008234362336429554
1386.5408471162868,1386.5408471162868,0.9988992910800816,0.0008233175092793935
1386.54779160385,1386.54779160385,0.9988523111721118,0.000823481698676819
1386.5547360914122,1386.5547360914122,0.9998475411634142,0.000823654540277991
1386.562513917447,1386.562513917447,1.0008545533197692,0.0008235913685180629
1386.5700139639916,1386.5700139639916,1.0000356976583809,0.0008236453763313375
1386.5769584515547,1386.5769584515547,0.9988966910511975,0.0008231642095563983
1386.5839029391161,1386.5839029391161,1.0007077995563012,0.0008235149367685091
1386.5908474266212,1386.5908474266212,1.0010103313721594,0.0008235327147615568
1386.5977919141837,1386.5977919141837,0.9998253221644766,0.0008233811011299635
1386.604736401746,1386.604736401746,0.9992036097454887,0.0008231924434381635
1386.6116808892616,1386.6116808892616,1.0013914401036677,0.0008238978600471519
1386.618625376813,1386.618625376813,0.9992170585460551,0.0008230507203372615
1386.6255698643758,1386.6255698643758,1.000756302268144,0.0008237330726984425
1386.6325143518911,1386.6325143518911,0.9995754081110336,0.0008232081600796227
1386.6394588394423,1386.6394588394423,0.9991244853275107,0.0008233666743753948
1386.6464033270054,1386.6464033270054,0.9998553442411193,0.0008235774060537836
1386.6533478145088,1386.6533478145088,0.9990106534765912,0.0008234644691313282
1386.6602923020716,1386.6602923020716,1.0004455716953684,0.0008236503678858304
1386.6672367895999,1386.6672367895999,1.001280650577538,0.000823876566884568
1386.6741812771384,1386.6741812771384,1.0012518676423143,0.0008239749814224087
1386.6811257646896,1386.6811257646896,0.9998160470019796,0.0008237622056279339
1386.6880702522058,1386.6880702522058,1.000433943850489,0.0008236556308700141
1386.6950147397565,1386.6950147397565,0.9989609670663733,0.0008236713406698761
1386.701959227272,1386.701959227272,0.9984234187656922,0.000823423165485101
1386.708903714823,1386.708903714823,0.9997388423525878,0.0008237413638134041
1386.7158482023399,1386.7158482023399,1.0000532478505433,0.000823867636850073
1386.72279268989,1386.72279268989,1.0002583990478386,0.0008239037770156376
1386.729737177406,1386.729737177406,1.0002671676358428,0.0008240727505551661
1386.736681664946,1386.736681664946,1.0002800884360905,0.0008239630297588146
1386.743626152473,1386.743626152473,1.0009264735542314,0.0008238568198869212
1386.7505706399886,1386.7505706399886,0.9999068642660982,0.0008234314911874463
1386.7575151275287,1386.7575151275287,1.0003481836366266,0.0008238005629706022
1386.7644596150446,1386.7644596150446,0.9992565417192697,0.0008237699268776067
1386.7722374410791,1386.7722374410791,0.9994000023302135,0.0008235414428410609
1386.7797374876006,1386.7797374876006,1.000188992449346,0.0008236606024622235
1386.7866819751284,1386.7866819751284,0.9995527708018045,0.0008234359260550587
1386.7936264626321,1386.7936264626321,1.0004153702980714,0.0008237163900052441
1386.80057095016,1386.80057095016,0.9999474488712309,0.0008239035234586004
1386.807515437676,1386.807515437676,1.0008639407223723,0.0008238619268824693
1386.8144599251923,1386.8144599251923,1.0001530770978224,0.0008239516187550448
1386.8214044127076,1386.8214044127076,1.0003339013959671,0.0008241352132679046
1386.8283489002122,1386.8283489002122,0.9992607250489135,0.0008239306381255147
1386.835293387729,1386.835293387729,1.000098507874479,0.0008240503552667967
1386.8422378752439,1386.8422378752439,1.0002418133017619,0.0008245012439633121
1386.8491823627487,1386.8491823627487,0.9997207235534905,0.0008244575807209185
1386.8561268502651,1386.8561268502651,0.9994788396387456,0.0008243299079989071
1386.8630713377693,1386.8630713377693,1.0002680364938579,0.0008245033436207073
1386.8700158252734,1386.8700158252734,1.000586055520707,0.0008247246942711632
1386.876960312778,1386.876960312778,1.0000613931225557,0.0008246373378867489
1386.8839048002824,1386.8839048002824,0.9983178793755098,0.0008243065241868063
1386.8908492877742,1386.8908492877742,1.0011656846022947,0.0008247448626536987
1386.8977937752788,1386.8977937752788,1.0001283907498177,0.0008247914354504773
1386.9047382627723,1386.9047382627723,0.9990544984753231,0.0008244318345363201
1386.9116827502762,1386.9116827502762,1.0007840465439928,0.000824605318425649
1386.918627237757,1386.918627237757,0.9996886113176758,0.0008246550888552321
1386.9255717252504,1386.9255717252504,1.0008726076564556,0.0008246046216051448
1386.932516212743,1386.932516212743,1.000103197595027,0.0008244343451554124
1386.9394607002348,1386.9394607002348,0.9995066711747885,0.00082429107240063
1386.9464051877167,1386.9464051877167,0.999295549786047,0.0008242656546412029
1386.9533496752097,1386.9533496752097,1.0004019390233505,0.0008244285088921967
1386.9602941626902,1386.9602941626902,0.9995829516807865,0.0008244752585270555
1386.967238650171,1386.967238650171,0.9996864452845935,0.000824508368734983
1386.9741831376527,1386.9741831376527,1.0004940043738326,0.000824732716990488
1386.982516522623,1386.982516522623,0.9999857369921503,0.0008245361554198933
1386.9894610101032,1386.9894610101032,1.0013476177446448,0.0008250343798866227
1386.996405497573,1386.996405497573,1.000648856491784,0.0008250290999026163
1387.0033499850429,1387.0033499850429,0.9997089655144464,0.0008250131003990533
1387.0102944725118,1387.0102944725118,0.9986021874691161,0.0008246851862496391
1387.0172389599927,1387.0172389599927,0.9998982965066187,0.0008250912286232381
1387.0241834474627,1387.0241834474627,1.0001557089181918,0.0008250161644648276
1387.0311279349087,1387.0311279349087,0.9997238915383517,0.0008249333116628529
1387.0380724223662,1387.0380724223662,0.9992694162914354,0.0008247550129000015
1387.0450169098362,1387.0450169098362,0.9990456246585981,0.0008245246026414466
1387.0519613972942,1387.0519613972942,1.000322166559869,0.0008246621552613628
1387.0589058847513,1387.0589058847513,1.0014590144639093,0.0008248380248960889
1387.0658503721975,1387.0658503721975,1.0005712993047406,0.0008245957046704536
1387.0727948596557,1387.0727948596557,1.0003847910871062,0.0008245191619653813
1387.0797393471016,1387.0797393471016,1.0002188059817105,0.0008243512663161781
1387.086683834547,1387.086683834547,1.0000468049917957,0.0008246518559213302
1387.0936283219937,1387.0936283219937,0.9984015989700366,0.0008244018695752328
1387.100572809429,1387.100572809429,1.0006373361900387,0.0008247791949809529
1387.1075172968742,1387.1075172968742,1.0001636266915785,0.0008246433653989202
1387.114461784309,1387.114461784309,0.9998945561970558,0.000824780188407144
1387.1214062717438,1387.1214062717438,0.9994939067444395,0.0008247144870217309
1387.1283507591784,1387.1283507591784,1.0002505107366713,0.0008250616597473762
1387.1352952466123,1387.1352952466123,0.9998372005525041,0.0008250920734455532
1387.1422397340355,1387.1422397340355,0.9999022663691663,0.0008250531717967439
1387.1491842214587,1387.1491842214587,1.0004798075922485,0.0008254991433993339
1387.1561287088812,1387.1561287088812,0.9997487886238989,0.0008250440629916202
1387.1630731963153,1387.1630731963153,0.9997215785964808,0.0008250402177883337
1387.170017683739,1387.170017683739,1.0004639424657964,0.0008251235062291774
1387.1769621711503,1387.1769621711503,1.0006883166907663,0.0008251659528669254
1387.1839066585603,1387.1839066585603,0.9993196010794666,0.0008250926224757866
1387.1908511459606,1387.1908511459606,0.9989214922072307,0.000824835411999694
1387.197795633372,1387.197795633372,1.0017394615668311,0.0008252823765560159
1387.204740120783,1387.204740120783,0.9989473105096162,0.0008248032046895623
1387.2116846081824,1387.2116846081824,1.0012547418726978,0.0008258036244345278
1387.2186290955822,1387.2186290955822,1.0004754228871615,0.0008252018275296235
1387.2255735829826,1387.2255735829826,1.0005207251713362,0.000825252738744445
1387.2325180703695,1387.2325180703695,0.9996834018885459,0.0008251307723620031
1387.239462557769,1387.239462557769,0.9985603510241982,0.0008250188699000423
1387.2464070451579,1387.2464070451579,1.0003756206180483,0.0008253130835692051
1387.2533515325456,1387.2533515325456,0.9998636451663092,0.0008250447698942185
1387.2602960199329,1387.2602960199329,1.0009146705463423,0.0008254445647894652
1387.2672405073095,1387.2672405073095,0.9998300724929748,0.0008252232259441944
1387.2741849946863,1387.2741849946863,0.999834021043349,0.000825338047591596
1387.2811294820735,1387.2811294820735,1.0002595714543507,0.0008254832467093767
1387.288073969438,1387.288073969438,0.9995206260595655,0.0008253957019515786
1387.295018456815,1387.295018456815,0.9995555212785007,0.0008254032283379344
1387.3019629441799,1387.3019629441799,1.0006252816714638,0.0008256383367386733
1387.3105741085121,1387.3105741085121,0.9998216017554389,0.0008254541863811554
1387.3186297138404,1387.3186297138404,0.999829752928003,0.0008254887053034378
1387.3255742012059,1387.3255742012059,0.9998704730963537,0.0008252901909814987
1387.3339075860238,1387.3339075860238,1.0004252248683843,0.0008258236031147767
1387.3408520733772,1387.3408520733772,1.0003821072370536,0.0008256719791227667
1387.3486298992036,1387.3486298992036,0.9993241161673658,0.0008256828877862124
1387.3561299455491,1387.3561299455491,1.0004112182450633,0.0008259835541865459
1387.3630744328789,1387.3630744328789,0.9999482898879254,0.0008256520394102565
1387.3700189202207,1387.3700189202207,1.000156054486796,0.0008257410241396366
1387.3769634075506,1387.3769634075506,0.999800024666629,0.0008258191774394273
1387.3839078948795,1387.3839078948795,0.9999110240811124,0.0008258082259193925
1387.3908523822097,1387.3908523822097,1.0001838079425671,0.0008260129051816332
1387.3977968695397,1387.3977968695397,1.0011598435851345,0.0008260941262120996
1387.4047413568576,1387.4047413568576,0.9988810986948333,0.0008260798727088462
1387.4116858441753,1387.4116858441753,0.9994790454777258,0.0008259633783273929
1387.418630331505,1387.418630331505,0.9997906650979822,0.0008259133007235753
1387.4255748188123,1387.4255748188123,1.0012429849874276,0.0008264318434453065
1387.4325193061063,1387.4325193061063,0.999505084700683,0.0008258741093164319
1387.439463793436,1387.439463793436,1.000180238872938,0.0008262523440998679
1387.4464082807199,1387.4464082807199,0.998646843547701,0.0008259514199693976
1387.4533527680376,1387.4533527680376,1.0005113855228525,0.0008263358257351529
1387.460297255309,1387.460297255309,1.0005157869047148,0.0008261221654094223
1387.4672417426275,1387.4672417426275,0.9996701844436672,0.000826193606816226
1387.4741862299109,1387.4741862299109,1.0006913190592905,0.0008263120663271738
1387.481130717182,1387.481130717182,1.0000948714126898,0.0008261117663344076
1387.4880752044533,1387.4880752044533,0.9998411199443884,0.000826388166330365
1387.4950196917252,1387.4950196917252,0.999706443490755,0.0008262396539051376
1387.5019641790436,1387.5019641790436,1.0002068266030388,0.0008263893562792466
1387.508908666326,1387.508908666326,1.0007598788699685,0.0008265754614680358
1387.5158531535512,1387.5158531535512,0.999247745958065,0.000826334090103885
1387.5227976408114,1387.5227976408114,1.0007484417159145,0.0008267674750361241
1387.5297421280834,1387.5297421280834,0.9996470730031903,0.0008266278526640203
1387.536686615354,1387.536686615354,0.9995277403428433,0.0008262859600228746
1387.5436311026258,1387.5436311026258,0.9989372220638817,0.0008263295500883815
1387.5505755898396,1387.5505755898396,1.0000062508908836,0.000826420225139904
1387.5575200771111,1387.5575200771111,1.0003267336761095,0.0008261949267191111
1387.5644645643356,1387.5644645643356,0.9996482614004275,0.0008262187972208869
1387.5714090515958,1387.5714090515958,1.0008823075473974,0.0008264226685651518
1387.5783535388096,1387.5783535388096,1.0001369857491729,0.0008263038888301829
1387.5852980260572,1387.5852980260572,1.0005810173609468,0.0008263446742310197
1387.5922425132935,1387.5922425132935,1.0001706061510163,0.0008261867285393265
1387.5991870005073,1387.5991870005073,0.999171116654438,0.0008259542834542097
1387.6061314877322,1387.6061314877322,1.0001717114044757,0.0008261690044726782
1387.613075974945,1387.613075974945,0.9997489729646899,0.0008262389315601044
1387.6200204621587,1387.6200204621587,1.000953934573094,0.0008265644987548931
1387.6269649493727,1387.6269649493727,0.999217801339034,0.0008263934787031658
1387.633909436586,1387.633909436586,0.9996248795367702,0.0008267249985572115
1387.6408539237752,1387.6408539237752,1.0007522042840375,0.0008267999658284059
1387.6477984109774,1387.6477984109774,0.9999776381371019,0.000826771659089512
1387.6547428981794,1387.6547428981794,1.0002918882603116,0.0008269165794527163
1387.6616873853573,1387.6616873853573,0.9985007477397498,0.0008269131575702948
1387.6686318725474,1387.6686318725474,0.9993419269004308,0.0008269174256233096
1387.6755763597262,1387.6755763597262,0.9997591275572685,0.0008271556398868798
1387.6825208469163,1387.6825208469163,0.9997706895530543,0.0008270390789259622
1387.6894653340821,1387.6894653340821,1.000842263210641,0.0008274135167093651
1387.6964098212607,1387.6964098212607,0.9999194142872622,0.0008272631499498312
1387.7033543084165,1387.7033543084165,1.0006820785488728,0.0008276089693588721
1387.7102987955834,1387.7102987955834,0.9991947711288283,0.0008274250487062312
1387.7172432827376,1387.7172432827376,0.9989061971681104,0.0008270742143202876
1387.7241877698932,1387.7241877698932,1.001337599893562,0.0008276759086020948
1387.7311322570488,1387.7311322570488,1.0014148882252083,0.000827774834107639
