time,time,flux,flux_err
1325.3004009539918,1325.3004009539918,1.0000928960831879,0.0003848660412033241
1325.3087342362242,1325.3087342362242,1.000234133272459,0.0003849988300047078
1325.3163730784204,1325.3163730784204,0.9999427648290606,0.0003514978680586221
1325.3233174805798,1325.3233174805798,1.0001342832735727,0.0003515719245032849
1325.3302618828554,1325.3302618828554,0.9995691898349625,0.00035162655181862764
1325.3372062852711,1325.3372062852711,0.9997889327943643,0.000351740765632187
1325.3441506878266,1325.3441506878266,0.9999952444225629,0.0003519035815655077
1325.3510950905213,1325.3510950905213,0.9999055169376778,0.0003519662111213858
1325.3580394933326,1325.3580394933326,1.0000864025475327,0.0003521471650090136
1325.364983896307,1325.364983896307,0.9999295994749152,0.0003522816502703595
1325.3719282993748,1325.3719282993748,0.9999045920924227,0.00035235045085418225
1325.3788727025817,1325.3788727025817,0.9998844042848429,0.00035246113747548476
1325.3858171059287,1325.3858171059287,1.0004596586949674,0.0003526394178691045
1325.3927615094383,1325.3927615094383,0.9997514313509452,0.00035267903156330183
1325.399705912971,1325.399705912971,1.0004525636382797,0.00035286588569190003
1325.4066503166907,1325.4066503166907,0.9997785911455311,0.00035286451183063803
1325.4135947205493,1325.4135947205493,0.999702299150975,0.00035293242173475354
1325.4205391245255,1325.4205391245255,0.999889756802455,0.00035308808970412606
1325.4274835286171,1325.4274835286171,1.0003350795485322,0.00035325208751511427
1325.4344279327786,1325.4344279327786,1.0003708583443403,0.0003533778008985647
1325.441372337127,1325.441372337127,0.9998039710624681,0.0003533201356327946
1325.4483167415679,1325.4483167415679,0.9999886110269165,0.000353500635683148
1325.4552611461488,1325.4552611461488,0.9997032744893858,0.0003535468605857522
1325.4622055508228,1325.4622055508228,0.9998763912113973,0.00035368268137510935
1325.469149955636,1325.469149955636,1.0000211552833602,0.0003537959073799899
1325.4760943605434,1325.4760943605434,0.9999365203941354,0.00035384993244854166
1325.4830387655895,1325.4830387655895,0.9998531450917154,0.000353974661392086
1325.489983170706,1325.489983170706,1.0003958037837233,0.00035418925030112676
1325.4969275759622,1325.4969275759622,1.0004551794190344,0.0003543800048562809
1325.5038719813576,1325.5038719813576,0.9995179427118985,0.000354286181412402
1325.5108163868238,1325.5108163868238,1.0002068550537881,0.000354544882393438
1325.5177607924054,1325.5177607924054,1.0000089527206888,0.0003546426015387936
1325.5247051981273,1325.5247051981273,1.0002500312699476,0.00035478885694624837
1325.5316496039652,1325.5316496039652,0.999584796115022,0.0003548163348264806
1325.5385940098267,1325.5385940098267,1.0001056723828192,0.0003550331858209945
1325.5455384158508,1325.5455384158508,1.0000863397039903,0.00035512164749889545
1325.5524828219686,1325.5524828219686,0.9995710015847468,0.0003552069040322793
1325.5594272281794,1325.5594272281794,0.9994882764800141,0.0003553087541991845
1325.566371634553,1325.566371634553,1.0002684393342132,0.00035552657100773263
1325.5733160409732,1325.5733160409732,1.0000192893147544,0.00035558829686765616
1325.5802604474634,1325.5802604474634,0.9998609128144349,0.00035567803552373196
1325.5872048541162,1325.5872048541162,0.9997711878011316,0.0003557626018731384
1325.594149260839,1325.594149260839,1.000176935889893,0.00035585433728434386
1325.6010936676548,1325.6010936676548,0.9999498732018168,0.0003559128170499379
1325.6080380745875,1325.6080380745875,1.000136009748917,0.00035599054989598485
1325.6149824815898,1325.6149824815898,0.9997915090387594,0.0003560046711366042
1325.6219268887319,1325.6219268887319,1.0002198056960343,0.00035605742948337205
1325.6288712959204,1325.6288712959204,1.0001801808010868,0.0003561124889251496
1325.6358157032253,1325.6358157032253,1.0000184938432022,0.0003560829510686179
1325.6427601106234,1325.6427601106234,0.9999220728714174,0.0003561136436679915
1325.6497045181145,1325.6497045181145,0.9998782492096078,0.0003560669605371372
1325.6566489256988,1325.6566489256988,0.9997622771144872,0.00035612804716125417
1325.663593333353,1325.663593333353,0.9999465888550583,0.0003561516899334752
1325.6705377411004,1325.6705377411004,1.0001622760601252,0.0003561693298710209
1325.6774821489407,1325.6774821489407,0.9999982593706338,0.0003561574964503294
1325.684426556898,1325.684426556898,0.9999712952125714,0.0003561639874826369
1325.6913709649016,1325.6913709649016,0.9998083191587247,0.000356213949816382
1325.6983153729748,1325.6983153729748,1.000311109993898,0.0003563237860570276
1325.7052597811878,1325.7052597811878,1.0001875374000018,0.0003562838039136882
1325.712204189447,1325.712204189447,1.0001405890606043,0.0003563536348979242
1325.7191485978,1325.7191485978,1.0000166256324483,0.0003564079139717996
1325.7260930062223,1325.7260930062223,1.0001041051016237,0.00035650081571455845
1325.7330374147612,1325.7330374147612,0.9997299268323626,0.00035650048434079847
1325.739981823347,1325.739981823347,0.9995869137880872,0.0003564819355094082
1325.746926231979,1325.746926231979,0.9998922433571668,0.0003566197529156886
1325.7538706407272,1325.7538706407272,0.9996402480214425,0.00035663946142258597
1325.7608150495926,1325.7608150495926,1.0001049363398546,0.0003567948934194797
1325.7677594585039,1325.7677594585039,1.0004618478573524,0.0003569072745871624
1325.774703867462,1325.774703867462,0.9999162285700048,0.0003569232997479223
1325.7816482765363,1325.7816482765363,1.0003254877149728,0.0003570505908016391
1325.7885926856811,1325.7885926856811,1.0004555191477462,0.0003571288521269595
1325.7955370948716,1325.7955370948716,1.0002260045195264,0.00035715657936452046
1325.8024815041788,1325.8024815041788,0.9992505837467338,0.00035703512330328583
1325.8094259135098,1325.8094259135098,1.0002110228792773,0.00035727372152954306
1325.8163703229097,1325.8163703229097,0.9999540539675443,0.0003572368461877297
1325.823314732404,1325.823314732404,0.9997804340256373,0.0003572547604258904
1325.830259141967,1325.830259141967,0.9998854947904313,0.0003573272432809875
1325.8372035516,1325.8372035516,0.9997410307806371,0.00035734571052999716
1325.8441479612804,1325.8441479612804,0.999937805119759,0.0003573909748144404
1325.8510923710528,1325.8510923710528,1.0000942288627315,0.0003574025212232331
1325.858036780919,1325.858036780919,1.0007325405133796,0.00035747471551068747
1325.864981190832,1325.864981190832,0.9997663349142204,0.0003573010481451627
1325.8719256007448,1325.8719256007448,1.0005687051438208,0.00035733970821963753
1325.878870010797,1325.878870010797,0.9994414941235572,0.0003570960663236271
1325.8858144208723,1325.8858144208723,0.9997408857862242,0.00035712551342943267
1325.8927588310414,1325.8927588310414,0.9994325868856535,0.0003570271443124154
1325.8997032412567,1325.8997032412567,1.0000895749958858,0.00035703260698619424
1325.9066476515418,1325.9066476515418,1.0004039353829466,0.0003570050604873792
1325.9135920618967,1325.9135920618967,1.0004198722401583,0.00035697677891007604
1325.9205364722982,1325.9205364722982,0.99979193536363,0.00035683333985344696
1325.9274808827236,1325.9274808827236,0.9998506913506947,0.00035677895415724733
1325.9344252932876,1325.9344252932876,0.999842589383276,0.00035673887922065483
1325.9413697038528,1325.9413697038528,1.0000373607790738,0.0003567828618686638
1325.9483141145104,1325.9483141145104,1.0004394154925076,0.00035676120432911204
1325.9552585251913,1325.9552585251913,0.9999525608151922,0.0003567284135803341
1325.9627584888285,1325.9627584888285,0.9999666227879483,0.00035666230235415646
1325.9705362289317,1325.9705362289317,0.9999183339394205,0.0003566932185094628
1325.9774806398223,1325.9774806398223,0.9999320310468907,0.00035667399444531
1325.9844250507358,1325.9844250507358,0.9999474369701339,0.0003566775668249714
1325.9913694617196,1325.9913694617196,0.9998384165712746,0.0003567080784270658
1325.9983138727966,1325.9983138727966,0.9998669316232522,0.00035674800711751344
1326.0052582838732,1326.0052582838732,1.0003295044754252,0.0003568114820719765
1326.012202694997,1326.012202694997,0.9998834302127235,0.0003568501405777954
1326.01914710619,1326.01914710619,1.0006171488649676,0.00035702210932961104
1326.026091517453,1326.026091517453,0.9996753791487769,0.0003570008251087489
1326.0330359287398,1326.0330359287398,0.9999772020027728,0.0003570365448286691
1326.0399803400956,1326.0399803400956,1.0001132330283995,0.000357081259797767
1326.0469247514986,1326.0469247514986,0.9999538765555499,0.0003570499785264607
1326.0538691629245,1326.0538691629245,0.9995589410209066,0.0003570021672103693
1326.0608135744205,1326.0608135744205,0.9998917500199689,0.0003570368202141045
1326.0677579859862,1326.0677579859862,1.0002436528830552,0.00035713265862043344
1326.0747023975516,1326.0747023975516,1.0001598174026853,0.0003571722335068699
1326.081646809211,1326.081646809211,1.0002477960464524,0.0003571748228889613
1326.0885912208698,1326.0885912208698,0.9996556664140689,0.0003571027170500543
1326.095535632622,1326.095535632622,1.0001894460608325,0.00035719198363811316
1326.102480044374,1326.102480044374,0.9998773221847959,0.00035715881676402463
1326.109424456196,1326.109424456196,1.0001013599861244,0.000357170860620477
1326.1163688680642,1326.1163688680642,0.9998586244435111,0.00035718149322401337
1326.1233132799557,1326.1233132799557,1.0000645613014447,0.0003572055171916992
1326.1302576919174,1326.1302576919174,1.0001710274934585,0.0003572190049409336
1326.1372021039256,1326.1372021039256,1.0000123389679099,0.0003572482185003899
1326.1441465159571,1326.1441465159571,0.9997849366876166,0.0003571839652635109
1326.1510909280353,1326.1510909280353,1.0001197618708144,0.0003572200838716511
1326.158035340136,1326.158035340136,0.9998315229424002,0.00035715534728062175
1326.1649797522846,1326.1649797522846,0.9998989780605949,0.00035712664370440866
1326.1719241645017,1326.1719241645017,0.9997666173300971,0.0003571119791485459
1326.1788685767428,1326.1788685767428,0.9997062582303059,0.00035706662654278403
1326.1858129889838,1326.1858129889838,1.0005595031105277,0.00035713655233760337
1326.192757401341,1326.192757401341,1.000151540867245,0.00035708781788437846
1326.1997018136753,1326.1997018136753,1.0000648001511963,0.00035712675073219324
1326.206646226079,1326.206646226079,1.0001326218042226,0.0003570665726634038
1326.213590638507,1326.213590638507,1.0004522257267348,0.0003571229326130616
1326.22053505098,1326.22053505098,0.9999657912694081,0.0003570487916545554
1326.227479463454,1326.227479463454,0.999331754934744,0.0003568848364717536
1326.234423876021,1326.234423876021,0.9993996976506072,0.0003569389593905881
1326.2413682885876,1326.2413682885876,1.0002240122278987,0.00035706695310787416
1326.2483127012015,1326.2483127012015,0.9998858996478376,0.00035700512398992437
1326.255257113838,1326.255257113838,0.9998992200793865,0.0003569810648145773
1326.262201526522,1326.262201526522,1.0007626244003005,0.0003571029463932817
1326.2691459392518,1326.2691459392518,1.0007388235591104,0.00035710432341990676
1326.276090351958,1326.276090351958,0.9994787076086785,0.00035691984372325503
1326.2830347647814,1326.2830347647814,0.9998887307598736,0.0003569269938708601
1326.2899791776042,1326.2899791776042,0.9995416632745812,0.0003568928307812152
1326.2969235904275,1326.2969235904275,0.9995819728321184,0.00035688568556062984
1326.3038680032737,1326.3038680032737,0.9998829743318582,0.0003569651019187245
1326.31081241619,1326.31081241619,1.0005259663227222,0.0003570789548429113
1326.3177568291526,1326.3177568291526,1.0007714052554757,0.00035711570468628087
1326.324701242115,1326.324701242115,0.9995294210746755,0.0003569695001094557
1326.331645655125,1326.331645655125,1.0004715128079797,0.00035710143035423616
1326.3385900681337,1326.3385900681337,0.9997059852829271,0.0003569742351782988
1326.3455344812132,1326.3455344812132,0.9994813524565735,0.00035695574275306435
1326.355256659515,1326.355256659515,1.0002513432232887,0.00035715651805252673
1326.3622010726867,1326.3622010726867,0.9999525693898004,0.0003571145962057816
1326.3691454858129,1326.3691454858129,0.9991972522697143,0.00035698432231651665
1326.376089899008,1326.376089899008,1.0005576654011448,0.0003572119396404004
1326.3830343122274,1326.3830343122274,0.9993331789685314,0.00035705470937695533
1326.3899787254693,1326.3899787254693,1.0005585948910107,0.000357303752371151
1326.3969231387348,1326.3969231387348,1.000391928456302,0.0003572671593332473
1326.4038675520235,1326.4038675520235,0.9998336776438412,0.0003572599362211445
1326.4108119653588,1326.4108119653588,1.0000519124392675,0.0003572769701464452
1326.417756378671,1326.417756378671,1.000201622260388,0.00035737470657756977
1326.424700792076,1326.424700792076,1.000016600581127,0.00035735691486888873
1326.4316452054813,1326.4316452054813,0.9993801800714627,0.00035730136229765203
1326.438589618886,1326.438589618886,0.9996194132811933,0.0003573265661944905
1326.4455340323145,1326.4455340323145,1.0002811729222638,0.0003574936698777964
1326.452478445813,1326.452478445813,0.9997276785547626,0.0003574094329439418
1326.4594228593112,1326.4594228593112,0.9999189787439253,0.00035750430480676866
1326.4663672728093,1326.4663672728093,0.9998338210654903,0.0003574800079679853
1326.4733116863542,1326.4733116863542,1.0003640673675602,0.00035757061609907983
1326.4802560999456,1326.4802560999456,1.000638407947806,0.0003575592812138181
1326.4872005134905,1326.4872005134905,1.0002149697147462,0.0003575591621161218
1326.4941449271284,1326.4941449271284,0.9995344216789117,0.0003574716004711362
1326.5010893407666,1326.5010893407666,1.0003713711590574,0.00035763163968348675
1326.5080337544275,1326.5080337544275,0.9992528271272942,0.00035745643685064016
1326.5149781680889,1326.5149781680889,0.999944015053905,0.0003576115277041952
1326.5219225817732,1326.5219225817732,1.0000954214909188,0.00035770304246550774
1326.5288669955048,1326.5288669955048,1.0004622692167513,0.00035775968850328767
1326.5358114092355,1326.5358114092355,0.9996565437541769,0.0003577100946659174
1326.54275582299,1326.54275582299,1.0000410591542868,0.00035777148450839255
1326.549700236791,1326.549700236791,0.9996991539148012,0.0003578027991578204
1326.5566446505686,1326.5566446505686,1.0009123402309643,0.00035803517053813584
1326.563589064393,1326.563589064393,0.9999433604210093,0.00035790017610856753
1326.570533478217,1326.570533478217,0.9996677348375256,0.00035784100264678087
1326.577477892088,1326.577477892088,0.9994156777365312,0.00035782466190603223
1326.5844223059585,1326.5844223059585,0.9999144495211532,0.00035793410718452527
1326.5913667198529,1326.5913667198529,1.0004840039684502,0.0003580638445677487
1326.5983111337468,1326.5983111337468,1.000376375077819,0.0003580786547072009
1326.6052555477106,1326.6052555477106,0.9996730395820222,0.0003579608018272107
1326.6121999616282,1326.6121999616282,0.9998753765190498,0.00035802195083700346
1326.6191443755688,1326.6191443755688,1.0000303759905247,0.0003580260965424934
1326.6260887895558,1326.6260887895558,0.9999979567678189,0.0003580200819694254
1326.6330332035432,1326.6330332035432,1.0002944200996733,0.00035807887030952774
1326.6399776176002,1326.6399776176002,0.9996401594301204,0.00035798094874693695
1326.6469220316342,1326.6469220316342,0.9997051431976406,0.0003579642276951804
1326.6538664456677,1326.6538664456677,1.0002953186557353,0.0003580346958811057
1326.660810859725,1326.660810859725,1.0001514333531716,0.00035793946293440564
1326.6677552738051,1326.6677552738051,0.999795068366096,0.00035789078186491437
1326.674699687909,1326.674699687909,1.0002629599544783,0.000357868564775286
1326.6816441020123,1326.6816441020123,1.0000722222519687,0.00035782874960743285
1326.6894218458178,1326.6894218458178,1.000117179092714,0.0003578089251759536
1326.6969218130869,1326.6969218130869,0.9997930501892169,0.00035770747678229504
1326.7038662272369,1326.7038662272369,0.9996717617004526,0.0003576444898162747
1326.7110884179704,1326.7110884179704,1.0002204346188805,0.00035765495560894874
1326.7191439384283,1326.7191439384283,0.9998412458855086,0.000357608819413392
1326.7260883526483,1326.7260883526483,1.0001676357473148,0.0003575684741389454
1326.733032766845,1326.733032766845,0.9996000200595685,0.0003574533431782752
1326.7399771810651,1326.7399771810651,1.000626773748677,0.00035762314144964854
1326.7469215952851,1326.7469215952851,1.0006367715969486,0.0003575740605610233
1326.7538660095747,1326.7538660095747,0.9995128310145363,0.0003573953980229819
1326.760810423795,1326.760810423795,1.0002920538052318,0.00035752402467545007
1326.7677548380611,1326.7677548380611,1.0003415483288154,0.00035745723614736717
1326.7746992523748,1326.7746992523748,0.9996050588414984,0.0003573641545832213
1326.7816436666878,1326.7816436666878,0.9999731645091019,0.0003574088007518276
1326.7885880809777,1326.7885880809777,1.0002921958766056,0.0003574988583639096
1326.7955324952914,1326.7955324952914,0.9993567097588583,0.00035737228218287153
1326.8024769096278,1326.8024769096278,0.9999067774080693,0.0003574738262917721
1326.809421323987,1326.809421323987,1.0004920073524899,0.0003575716472521068
1326.8163657383234,1326.8163657383234,0.9998349529423918,0.00035746247837983207
1326.8233101526835,1326.8233101526835,0.9998402791444023,0.00035741249649046575
1326.8302545670663,1326.8302545670663,1.0003432972363782,0.00035753618468615053
1326.8371989814495,1326.8371989814495,0.9996645390003522,0.0003574132212740315
1326.8441433958558,1326.8441433958558,1.0001674804976513,0.0003574456504433116
1326.8510878102386,1326.8510878102386,1.0001616985510275,0.0003574335499538105
1326.8580322246682,1326.8580322246682,0.9998405935740651,0.0003573395548715775
1326.864976639075,1326.864976639075,0.9997050203851954,0.0003572716144648411
1326.8719210535044,1326.8719210535044,1.0002615650721303,0.00035730108880119066
1326.8788654679572,1326.8788654679572,1.0001059265798813,0.00035722408031238246
1326.8858098824098,1326.8858098824098,0.999753278325926,0.0003571692044090477
1326.8927542968631,1326.8927542968631,1.000601681697717,0.0003571889898635487
1326.8996987113392,1326.8996987113392,1.0000431401995042,0.0003569883767957765
1326.9066431258152,1326.9066431258152,0.9999352624310809,0.0003569407327042244
1326.913587540268,1326.913587540268,0.9997897771423269,0.0003567921995006313
1326.9205319547677,1326.9205319547677,1.0001187013229063,0.0003568012844113916
1326.9274763692902,1326.9274763692902,0.9993982919599806,0.0003565848052335508
1326.9344207837667,1326.9344207837667,0.9998925300338479,0.0003566430036822558
1326.9413651983123,1326.9413651983123,0.9999636141422137,0.000356562034464324
1326.9483096127885,1326.9483096127885,1.000318807803025,0.0003565052950665035
1326.9552540273346,1326.9552540273346,1.0005073687962134,0.00035647418787439694
1326.962198441904,1326.962198441904,0.9999584549011328,0.000356328448717188
1326.9691428564036,1326.9691428564036,0.9997521426539151,0.00035618737078030744
1326.9760872709257,1326.9760872709257,0.9999007385767748,0.0003562133299010729
1326.9830316854955,1326.9830316854955,0.9997338887599595,0.0003560899837636753
1326.9899761000647,1326.9899761000647,1.0004141537621405,0.0003561834573582209
1326.9969205146344,1326.9969205146344,0.9999931244862154,0.0003560789165710886
1327.0038649292032,1327.0038649292032,0.9999085673185515,0.00035602161930307224
1327.0108093437725,1327.0108093437725,0.9996877182065441,0.00035597424629105553
1327.0177537583418,1327.0177537583418,0.999822194198868,0.0003559632891550525
1327.024698172911,1327.024698172911,1.0003748045691545,0.0003560487152400303
1327.0316425875503,1327.0316425875503,1.000341165292975,0.0003560998843469565
1327.038587002166,1327.038587002166,0.9996524266107768,0.000355910631055501
1327.0455314167357,1327.0455314167357,1.0002251577588788,0.0003560406987836931
1327.0524758313047,1327.0524758313047,1.0002927335487857,0.0003560532285280575
1327.059975799156,1327.059975799156,0.9998022661516994,0.00035601553932645903
