time,time,flux,flux_err
1354.1109747615815,1354.1109747615815,146442.42,42.65644
1354.1123636412826,1354.1123636412826,146423.94,42.66861
1354.1151414005667,1354.1151414005667,146427.2,42.628002
1354.1165302801514,1354.1165302801514,146417.4,42.673717
1354.1179191598521,1354.1179191598521,146373.16,42.66801
1354.1193080395526,1354.1193080395526,146460.19,42.679653
1354.120696919253,1354.120696919253,146369.48,42.661892
1354.1220857988378,1354.1220857988378,146443.97,42.676605
1354.1234746785392,1354.1234746785392,146348.16,42.658703
1354.1248635582397,1354.1248635582397,146455.17,42.678665
1354.1262524379404,1354.1262524379404,146363.44,42.667168
1354.1276413176406,1354.1276413176406,146421.81,42.665947
1354.1290301973413,1354.1290301973413,146422.48,42.675034
1354.130419076926,1354.130419076926,146436.55,42.67574
1354.1318079566267,1354.1318079566267,146462.33,42.680107
1354.133196836327,1354.133196836327,146449.2,42.672653
1354.1345857161448,1354.1345857161448,146453.08,42.67929
1354.1359745958453,1354.1359745958453,146398.05,42.665607
1354.1373634755464,1354.1373634755464,146490.03,42.682648
1354.138752355247,1354.138752355247,146475.11,42.67707
1354.140141234947,1354.140141234947,146396.05,42.659107
1354.141530114648,1354.141530114648,146473.98,42.682262
1354.1429189943492,1354.1429189943492,146450.12,42.682594
1354.1443078741663,1354.1443078741663,146386.03,42.66559
1354.1456967538668,1354.1456967538668,146413.9,42.671917
1354.1470856335673,1354.1470856335673,146447.69,42.670776
1354.1484745133848,1354.1484745133848,146430.42,42.674168
1354.1498633930862,1354.1498633930862,146392.16,42.662464
1354.1512522727862,1354.1512522727862,146372.22,42.670593
1354.1526411526029,1354.1526411526029,146492.75,42.676903
1354.154030032304,1354.154030032304,146437.27,42.673973
1354.1554189121218,1354.1554189121218,146452.62,42.675762
1354.1568077918223,1354.1568077918223,146458.14,42.675922
1354.1581966716385,1354.1581966716385,146420.34,42.67263
1354.1595855513397,1354.1595855513397,146445.48,42.671852
1354.1609744311575,1354.1609744311575,146447.3,42.67297
1354.1623633109743,1354.1623633109743,146456.9,42.67769
1354.163752190675,1354.163752190675,146394.11,42.66899
1354.1651410704917,1354.1651410704917,146417.25,42.66371
1354.1665299503095,1354.1665299503095,146379.05,42.665386
1354.1679188301273,1354.1679188301273,146454.72,42.67146
1354.169307709827,1354.169307709827,146465.45,42.680798
1354.170696589644,1354.170696589644,146509.27,42.680355
1354.1720854694618,1354.1720854694618,146455.25,42.672504
1354.1734743492784,1354.1734743492784,146411.84,42.67493
1354.174863229096,1354.174863229096,146425.98,42.662476
1354.176252108913,1354.176252108913,146460.98,42.670223
1354.1776409887302,1354.1776409887302,146443.86,42.67887
1354.1790298685478,1354.1790298685478,146521.89,42.686245
1354.1804187483644,1354.1804187483644,146333.33,42.662903
1354.1818076281822,1354.1818076281822,146419.2,42.669247
1354.1831965079991,1354.1831965079991,146452.89,42.676735
1354.1845853878153,1354.1845853878153,146522.92,42.67848
1354.1859742676331,1354.1859742676331,146424.34,42.66955
1354.187363147451,1354.187363147451,146499.8,42.675385
1354.188752027384,1354.188752027384,146535.73,42.687553
1354.190140907201,1354.190140907201,146458.2,42.674805
1354.191529787018,1354.191529787018,146461.4,42.673058
1354.1929186668358,1354.1929186668358,146416.0,42.667
1354.1943075467698,1354.1943075467698,146341.52,42.665623
1354.195696426586,1354.195696426586,146367.95,42.65152
1354.1970853064029,1354.1970853064029,146382.39,42.66427
1354.198474186337,1354.198474186337,146406.06,42.67426
1354.1998630661546,1354.1998630661546,146385.42,42.66339
1354.2012519460877,1354.2012519460877,146474.0,42.672337
1354.2026408259042,1354.2026408259042,146326.22,42.655643
1354.2040297058384,1354.2040297058384,146390.52,42.66537
1354.205418585656,1354.205418585656,146489.42,42.67346
1354.206807465589,1354.206807465589,146393.28,42.665348
1354.2081963454061,1354.2081963454061,146403.47,42.669437
1354.2095852253397,1354.2095852253397,146372.36,42.65447
1354.2109741052736,1354.2109741052736,146445.8,42.675392
1354.2123629850912,1354.2123629850912,146457.28,42.66132
1354.2137518650238,1354.2137518650238,146396.11,42.66717
1354.2151407449574,1354.2151407449574,146376.72,42.660564
1354.2165296248913,1354.2165296248913,146465.8,42.679977
1354.2179185047082,1354.2179185047082,146431.33,42.66664
1354.2193073846424,1354.2193073846424,146356.5,42.660507
1354.2206962645755,1354.2206962645755,146425.52,42.666336
1354.222085144509,1354.222085144509,146380.78,42.662838
1354.223474024443,1354.223474024443,146433.38,42.67016
1354.2248629043766,1354.2248629043766,146452.95,42.676006
1354.2262517843096,1354.2262517843096,146468.36,42.674606
1354.2276406642432,1354.2276406642432,146376.2,42.664032
1354.2290295441765,1354.2290295441765,146417.53,42.66941
1354.2304184241107,1354.2304184241107,146369.61,42.66669
1354.2318073040447,1354.2318073040447,146419.77,42.666348
1354.233196183978,1354.233196183978,146513.5,42.676468
1354.2345850639113,1354.2345850639113,146424.44,42.67194
1354.2359739438448,1354.2359739438448,146382.97,42.663506
1354.2373628238952,1354.2373628238952,146429.5,42.678078
1354.2387517038292,1354.2387517038292,146418.06,42.65926
1354.2401405837618,1354.2401405837618,146415.4,42.670464
1354.2415294636953,1354.2415294636953,146363.98,42.66438
1354.2429183437457,1354.2429183437457,146440.5,42.664833
1354.2443072236797,1354.2443072236797,146473.62,42.67313
1354.2456961036132,1354.2456961036132,146404.94,42.67663
1354.2470849836623,1354.2470849836623,146455.62,42.6725
1354.2484738635962,1354.2484738635962,146451.36,42.66634
1354.2498627435302,1354.2498627435302,146432.75,42.669727
1354.2512516235802,1354.2512516235802,146383.6,42.665825
1354.2526405035132,1354.2526405035132,146392.45,42.66543
1354.2540293835632,1354.2540293835632,146454.75,42.66275
1354.2554182634972,1354.2554182634972,146391.16,42.6676
1354.2568071435476,1354.2568071435476,146468.81,42.680065
1354.2581960234802,1354.2581960234802,146388.0,42.655975
1354.2595849035301,1354.2595849035301,146414.05,42.671
1354.2609737835805,1354.2609737835805,146443.08,42.665695
1354.262362663514,1354.262362663514,146450.72,42.67485
1354.2637515435645,1354.2637515435645,146421.78,42.665356
1354.2651404236142,1354.2651404236142,146386.72,42.660675
1354.2665293035475,1354.2665293035475,146417.88,42.66686
1354.2679181835979,1354.2679181835979,146431.88,42.66637
1354.2693070636478,1354.2693070636478,146401.17,42.662193
1354.2706959436978,1354.2706959436978,146366.14,42.65999
1354.2720848237473,1354.2720848237473,146456.05,42.671795
1354.2734737037972,1354.2734737037972,146401.45,42.6701
1354.2748625837312,1354.2748625837312,146433.34,42.6692
1354.2762514637816,1354.2762514637816,146471.64,42.680984
1354.2776403438315,1354.2776403438315,146458.33,42.66909
1354.279029223881,1354.279029223881,146401.11,42.66782
1354.280418103931,1354.280418103931,146369.22,42.666546
1354.2818069839814,1354.2818069839814,146465.03,42.67676
1354.2831958640313,1354.2831958640313,146479.08,42.670982
1354.2845847440803,1354.2845847440803,146399.6,42.66825
1354.2859736241307,1354.2859736241307,146462.33,42.669273
1354.2873625042976,1354.2873625042976,146446.98,42.673664
1354.288751384348,1354.288751384348,146402.81,42.66902
1354.290140264398,1354.290140264398,146418.53,42.665806
1354.291529144447,1354.291529144447,146393.4,42.66482
1354.2929180244973,1354.2929180244973,146435.45,42.668175
1354.2943069046642,1354.2943069046642,146460.97,42.675037
1354.2956957847134,1354.2956957847134,146447.03,42.67068
1354.2970846647631,1354.2970846647631,146472.34,42.681713
1354.2984735448135,1354.2984735448135,146306.33,42.650623
1354.2998624249803,1354.2998624249803,146410.53,42.667458
1354.301251305031,1354.301251305031,146453.88,42.66873
1354.3026401850802,1354.3026401850802,146484.48,42.67616
1354.3040290652461,1354.3040290652461,146359.08,42.65987
1354.3054179452965,1354.3054179452965,146440.55,42.66779
1354.306806825463,1354.306806825463,146510.88,42.68252
1354.3081957055133,1354.3081957055133,146376.34,42.659866
1354.3095845856797,1354.3095845856797,146387.7,42.66025
1354.3109734657294,1354.3109734657294,146436.94,42.669147
1354.3123623458964,1354.3123623458964,146419.58,42.661358
1354.313751225946,1354.313751225946,146400.69,42.66942
1354.3151401061123,1354.3151401061123,146415.48,42.66751
1354.3165289862784,1354.3165289862784,146390.19,42.66547
1354.3179178663281,1354.3179178663281,146451.53,42.674118
1354.319306746495,1354.319306746495,146396.23,42.661385
1354.3206956266617,1354.3206956266617,146457.69,42.6708
1354.322084506828,1354.322084506828,146493.7,42.681602
1354.323473386878,1354.323473386878,146365.67,42.658695
1354.324862267044,1354.324862267044,146406.22,42.67035
1354.3262511472108,1354.3262511472108,146448.92,42.664635
1354.3276400273771,1354.3276400273771,146416.95,42.666683
1354.3290289075426,1354.3290289075426,146357.64,42.666607
1354.330417787593,1354.330417787593,146468.12,42.66919
1354.33180666776,1354.33180666776,146485.03,42.67226
1354.333195547927,1354.333195547927,146428.08,42.671955
1354.334584428093,1354.334584428093,146447.53,42.667896
1354.3359733082584,1354.3359733082584,146397.1,42.664825
1354.3373621884255,1354.3373621884255,146340.42,42.655083
1354.3387510685925,1354.3387510685925,146371.22,42.66226
1354.340139948758,1354.340139948758,146417.53,42.673176
1354.3415288289239,1354.3415288289239,146493.47,42.66965
1354.342917709091,1354.342917709091,146401.4,42.66875
1354.344306589258,1354.344306589258,146447.42,42.672726
1354.3456954695412,1354.3456954695412,146420.28,42.66706
1354.3470843497066,1354.3470843497066,146437.22,42.666504
1354.3484732298728,1354.3484732298728,146448.39,42.677586
1354.3498621100398,1354.3498621100398,146361.84,42.65579
1354.3512509902057,1354.3512509902057,146500.08,42.6836
1354.352639870372,1354.352639870372,146505.42,42.673347
1354.3540287506546,1354.3540287506546,146436.33,42.670048
1354.3554176308216,1354.3554176308216,146429.11,42.669353
1354.3568065109885,1354.3568065109885,146365.27,42.66198
1354.358195391271,1354.358195391271,146440.64,42.663498
1354.3595842714371,1354.3595842714371,146447.88,42.68271
1354.3609731516035,1354.3609731516035,146326.89,42.645073
1354.3623620318858,1354.3623620318858,146436.03,42.679173
1354.3637509120529,1354.3637509120529,146371.05,42.649113
1354.3651397923363,1354.3651397923363,146474.08,42.67956
1354.3665286725022,1354.3665286725022,146378.08,42.656937
1354.367917552785,1354.367917552785,146469.28,42.67243
1354.3693064329511,1354.3693064329511,146454.56,42.668972
1354.3706953132346,1354.3706953132346,146502.6,42.67557
1354.3720841934005,1354.3720841934005,146504.56,42.680607
1354.3734730736824,1354.3734730736824,146426.44,42.66302
1354.3748619538494,1354.3748619538494,146474.89,42.67687
1354.3762508341329,1354.3762508341329,146404.02,42.657116
1354.377639714416,1354.377639714416,146428.81,42.667076
1354.3790285945822,1354.3790285945822,146377.75,42.659756
1354.3804174748643,1354.3804174748643,146441.2,42.667625
1354.3818063551475,1354.3818063551475,146475.1,42.677235
1354.3831952353144,1354.3831952353144,146514.53,42.680737
1354.3845841155962,1354.3845841155962,146467.25,42.672962
1354.385972995879,1354.385972995879,146471.64,42.67079
1354.3873618761622,1354.3873618761622,146468.9,42.67072
1354.3887507564455,1354.3887507564455,146466.75,42.668972
1354.3901396366123,1354.3901396366123,146443.25,42.67239
1354.3915285168941,1354.3915285168941,146441.38,42.668068
1354.392917397177,1354.392917397177,146507.94,42.676872
1354.3943062774601,1354.3943062774601,146398.2,42.665714
1354.395695157743,1354.395695157743,146417.28,42.66429
1354.3970840380252,1354.3970840380252,146438.75,42.668957
1354.398472918308,1354.398472918308,146427.81,42.663803
1354.3998617985912,1354.3998617985912,146435.31,42.66243
1354.4012506788745,1354.4012506788745,146474.86,42.673065
1354.4026395591573,1354.4026395591573,146391.27,42.65858
1354.4040284394396,1354.4040284394396,146460.42,42.668316
1354.4054173197223,1354.4054173197223,146417.44,42.667282
1354.4068062000051,1354.4068062000051,146544.1,42.67311
1354.4081950802884,1354.4081950802884,146426.31,42.667416
1354.4095839605716,1354.4095839605716,146417.1,42.656506
1354.4109728409705,1354.4109728409705,146340.02,42.661137
1354.412361721253,1354.412361721253,146471.55,42.67491
1354.4137506015359,1354.4137506015359,146377.98,42.66199
1354.415139481819,1354.415139481819,146426.89,42.66747
1354.4165283621019,1354.4165283621019,146408.9,42.667274
1354.4179172425002,1354.4179172425002,146449.14,42.671215
1354.4193061227834,1354.4193061227834,146369.23,42.657692
1354.4206950030666,1354.4206950030666,146464.58,42.673973
1354.4220838834663,1354.4220838834663,146402.53,42.662693
1354.423472763749,1354.423472763749,146477.05,42.671658
1354.424861644031,1354.424861644031,146419.9,42.668518
1354.4262505244305,1354.4262505244305,146454.33,42.67128
1354.4276394047138,1354.4276394047138,146459.12,42.669617
1354.4290282849956,1354.4290282849956,146479.98,42.670536
1354.4304171653948,1354.4304171653948,146477.47,42.677727
1354.431806045678,1354.431806045678,146415.36,42.663776
1354.4331949260777,1354.4331949260777,146382.05,42.66486
1354.434583806361,1354.434583806361,146450.75,42.669903
1354.4359726867592,1354.4359726867592,146457.08,42.664017
1354.437361567042,1354.437361567042,146363.88,42.66338
1354.4387504474416,1354.4387504474416,146381.75,42.657345
1354.4401393277244,1354.4401393277244,146510.34,42.678246
1354.4415282081234,1354.4415282081234,146396.34,42.66154
1354.4429170885223,1354.4429170885223,146457.31,42.665367
1354.4443059688056,1354.4443059688056,146415.19,42.66723
1354.4456948492052,1354.4456948492052,146411.02,42.66483
1354.4470837296044,1354.4470837296044,146365.9,42.658215
1354.4484726098872,1354.4484726098872,146411.8,42.666954
1354.449861490286,1354.449861490286,146387.4,42.66922
1354.451250370685,1354.451250370685,146389.28,42.651825
1354.4526392510847,1354.4526392510847,146374.38,42.667126
1354.454028131368,1354.454028131368,146323.98,42.649136
1354.4554170117672,1354.4554170117672,146426.16,42.66214
1354.4568058921661,1354.4568058921661,146479.66,42.66423
1354.458194772565,1354.458194772565,146366.19,42.662632
1354.4595836529647,1354.4595836529647,146445.81,42.664257
1354.4609725332475,1354.4609725332475,146437.94,42.667454
1354.4623614136458,1354.4623614136458,146501.69,42.671497
1354.4637502940454,1354.4637502940454,146467.22,42.67176
1354.465139174445,1354.465139174445,146466.89,42.67005
1354.4665280548447,1354.4665280548447,146420.97,42.6687
1354.467916935244,1354.467916935244,146506.48,42.676502
1354.4693058156422,1354.4693058156422,146347.31,42.650745
1354.4706946960418,1354.4706946960418,146404.69,42.664013
1354.4720835764415,1354.4720835764415,146394.14,42.660397
1354.47347245684,1354.47347245684,146393.11,42.66209
1354.474861337239,1354.474861337239,146369.48,42.65927
1354.4762502176386,1354.4762502176386,146457.0,42.674015
1354.4776390980385,1354.4776390980385,146417.06,42.65838
1354.4790279784384,1354.4790279784384,146354.56,42.657776
1354.480416858953,1354.480416858953,146490.38,42.675346
1354.4818057393518,1354.4818057393518,146481.58,42.67143
1354.4831946197517,1354.4831946197517,146498.73,42.679295
1354.4845835001506,1354.4845835001506,146418.56,42.66481
1354.4859723805498,1354.4859723805498,146417.19,42.661495
1354.4873612609485,1354.4873612609485,146297.31,42.6587
1354.4887501414648,1354.4887501414648,146469.53,42.664303
1354.4901390218647,1354.4901390218647,146434.39,42.672024
1354.4915279022634,1354.4915279022634,146428.08,42.661022
1354.492916782779,1354.492916782779,146420.88,42.66616
1354.494305663178,1354.494305663178,146337.36,42.653336
1354.495694543577,1354.495694543577,146563.73,42.68383
1354.497083424093,1354.497083424093,146437.33,42.669724
1354.498472304493,1354.498472304493,146446.11,42.66338
1354.4998611848919,1354.4998611848919,146375.12,42.66109
1354.5012500654075,1354.5012500654075,146458.3,42.666523
1354.5026389458062,1354.5026389458062,146434.19,42.66628
1354.5040278263225,1354.5040278263225,146408.39,42.659397
1354.5054167067215,1354.5054167067215,146357.28,42.657017
1354.5068055871197,1354.5068055871197,146388.25,42.659264
1354.5081944676358,1354.5081944676358,146373.66,42.65455
1354.5095833480357,1354.5095833480357,146374.83,42.656303
1354.510972228552,1354.510972228552,146467.12,42.672424
1354.5123611089507,1354.5123611089507,146437.05,42.665524
1354.5137499894654,1354.5137499894654,146378.27,42.655846
1354.5151388699817,1354.5151388699817,146438.16,42.665005
1354.5165277503816,1354.5165277503816,146444.55,42.666473
1354.5179166308963,1354.5179166308963,146423.1,42.66998
1354.5193055112952,1354.5193055112952,146463.6,42.668076
1354.5206943918115,1354.5206943918115,146422.0,42.66585
1354.5220832723276,1354.5220832723276,146400.58,42.654823
1354.5234721527272,1354.5234721527272,146431.31,42.664925
1354.524861033242,1354.524861033242,146425.02,42.658325
1354.5262499137575,1354.5262499137575,146387.16,42.665604
1354.5276387942736,1354.5276387942736,146399.67,42.660427
1354.5290276746723,1354.5290276746723,146403.98,42.655487
1354.530416555188,1354.530416555188,146425.3,42.66821
1354.5318054357035,1354.5318054357035,146410.48,42.662743
1354.5331943162196,1354.5331943162196,146447.19,42.66566
1354.5345831966192,1354.5345831966192,146448.83,42.667213
1354.5359720771348,1354.5359720771348,146434.39,42.660378
1354.53736095765,1354.53736095765,146395.7,42.66766
1354.5387498381656,1354.5387498381656,146436.27,42.664368
1354.540138718681,1354.540138718681,146401.45,42.66147
1354.5415275991973,1354.5415275991973,146403.56,42.662792
1354.5429164797133,1354.5429164797133,146389.06,42.656597
1354.5443053602285,1354.5443053602285,146376.89,42.664673
1354.545694240744,1354.545694240744,146420.19,42.65338
1354.5470831212597,1354.5470831212597,146419.7,42.66959
1354.5484720016593,1354.5484720016593,146414.31,42.64929
1354.5498608821745,1354.5498608821745,146457.58,42.667408
1354.5512497628058,1354.5512497628058,146460.78,42.67028
1354.552638643322,1354.552638643322,146420.77,42.65606
1354.5540275238382,1354.5540275238382,146334.3,42.648434
1354.5554164043542,1354.5554164043542,146513.1,42.6658
1354.5568052848698,1354.5568052848698,146347.61,42.653156
1354.5581941653845,1354.5581941653845,146532.17,42.67534
1354.5595830459006,1354.5595830459006,146506.17,42.67342
1354.5609719264166,1354.5609719264166,146415.19,42.662605
1354.5623608069313,1354.5623608069313,146448.78,42.674244
1354.563749687447,1354.563749687447,146384.61,42.658203
1354.565138567963,1354.565138567963,146469.47,42.664852
1354.5665274485955,1354.5665274485955,146391.05,42.662964
1354.5679163291115,1354.5679163291115,146433.14,42.657806
1354.5693052096262,1354.5693052096262,146509.27,42.672977
1354.5706940901418,1354.5706940901418,146478.95,42.674274
1354.5720829707743,1354.5720829707743,146491.98,42.67214
1354.57347185129,1354.57347185129,146437.08,42.662083
1354.574860731805,1354.574860731805,146442.64,42.669796
1354.5762496123207,1354.5762496123207,146448.03,42.667267
1354.5776384929532,1354.5776384929532,146348.0,42.655975
1354.5790273734692,1354.5790273734692,146371.4,42.657734
1354.5804162539848,1354.5804162539848,146464.31,42.66136
1354.5818051346166,1354.5818051346166,146452.89,42.669968
1354.583194015132,1354.583194015132,146380.36,42.655556
1354.5845828956476,1354.5845828956476,146461.64,42.670517
1354.58597177628,1354.58597177628,146371.53,42.653854
1354.5873606567961,1354.5873606567961,146354.03,42.649017
1354.5887495374282,1354.5887495374282,146420.0,42.663925
1354.5901384179433,1354.5901384179433,146392.64,42.654762
1354.5915272985753,1354.5915272985753,146426.53,42.65972
1354.5929161790914,1354.5929161790914,146462.42,42.67086
1354.5943050597234,1354.5943050597234,146443.3,42.66612
1354.595693940238,1354.595693940238,146393.92,42.656746
1354.5970828208706,1354.5970828208706,146451.11,42.663334
1354.5984717013866,1354.5984717013866,146351.11,42.65643
