time,time,flux,flux_err
1354.1144268959688,1354.1144268959688,1.000614332384788,0.0005350278285858221
1354.1232231668396,1354.1232231668396,1.0000133321154843,0.0005350458867351569
1354.131556476306,1354.131556476306,0.9997380028290391,0.0005350198712393444
1354.1398897859767,1354.1398897859767,1.000108633204434,0.0005350977112540202
1354.1475286533482,1354.1475286533482,0.9996648689210863,0.0004884227216312237
1354.1544730783887,1354.1544730783887,0.9994081410514337,0.0004884023155679651
1354.1614175035575,1354.1614175035575,0.9996370486065651,0.0004884073729740474
1354.1683619288658,1354.1683619288658,0.9994799975332891,0.0004884860229114121
1354.1753063543083,1354.1753063543083,1.0002788002544232,0.0004885811109446343
1354.1822507798843,1354.1822507798843,0.9998016093534036,0.0004884772281419572
1354.1891952055944,1354.1891952055944,1.0000895122463296,0.000488473366613295
1354.196139631444,1354.196139631444,1.0001200679309659,0.0004885143076149066
1354.2030840574157,1354.2030840574157,1.0008619423864045,0.0004886775537968173
1354.2100284835158,1354.2100284835158,1.0004299101000291,0.0004885581052142399
1354.2169729097438,1354.2169729097438,0.9996700435507166,0.0004884786838738807
1354.2239173361056,1354.2239173361056,1.0001387353126483,0.0004885367390335586
1354.2308617625956,1354.2308617625956,1.0000789729577755,0.0004885769576649266
1354.237806189208,1354.237806189208,0.9993028897426897,0.000488565996830212
1354.2447506159367,1354.2447506159367,0.9994523605059669,0.0004886128222056797
1354.2516950427876,1354.2516950427876,0.9996285518991683,0.0004885255419880566
1354.258639469772,1354.258639469772,1.0002450346088656,0.0004886135793701304
1354.2655838968617,1354.2655838968617,0.9999703385306585,0.0004886003351202634
1354.2725283240848,1354.2725283240848,1.000780325630055,0.0004887854605234139
1354.279472751419,1354.279472751419,0.9999034271874165,0.0004886349894954272
1354.2864171788692,1354.2864171788692,1.0001960053998176,0.0004886131739545262
1354.2933616064183,1354.2933616064183,0.9997074988881012,0.0004885668494221636
1354.3003060341075,1354.3003060341075,1.0001082010992333,0.0004885557556322695
1354.3072504618958,1354.3072504618958,1.0002135048597134,0.0004885866633411456
1354.3141948898,1354.3141948898,0.9996060733711595,0.0004885314834178773
1354.3211393178094,1354.3211393178094,1.000153313078796,0.0004886546760324963
1354.3280837459347,1354.3280837459347,0.9994923646784736,0.0004885376462376828
1354.3350281741655,1354.3350281741655,1.0002820625242692,0.0004886273660330898
1354.3419726025004,1354.3419726025004,1.0004769853324453,0.0004885760599251971
1354.3489170309401,1354.3489170309401,0.99984485382404,0.0004885677118116209
1354.3558614594851,1354.3558614594851,0.9999199115086308,0.0004885710849367609
1354.3628058881404,1354.3628058881404,0.9999926514948196,0.0004884858186281863
1354.3697503168887,1354.3697503168887,0.9996005738991768,0.0004884380303851091
1354.3766947457539,1354.3766947457539,0.9997285080959004,0.0004884973338970505
1354.3836391747059,1354.3836391747059,1.000307053793374,0.0004885695788815243
1354.390583603757,1354.390583603757,1.0011748323974015,0.000488698672020931
1354.3975280329244,1354.3975280329244,0.9992595316979911,0.0004884007048727519
1354.404472462173,1354.404472462173,0.9997483227839951,0.0004884967842036376
1354.4114168915216,1354.4114168915216,1.000212423722235,0.000488535051701905
1354.4183613209566,1354.4183613209566,1.0001501157158554,0.0004885178004934279
1354.4253057504966,1354.4253057504966,0.9999140747516023,0.0004884774028513295
1354.4322501801357,1354.4322501801357,0.9997347106997431,0.000488470100229954
1354.4391946098442,1354.4391946098442,1.0001581265819819,0.0004885021915643094
1354.4461390396639,1354.4461390396639,0.9996478216665636,0.0004884819621179533
1354.4530834695647,1354.4530834695647,1.000028117139539,0.0004885104693007653
1354.4600278995647,1354.4600278995647,1.000425279841434,0.0004885356735714318
1354.4669723296463,1354.4669723296463,1.0000508685992602,0.0004884869312093165
1354.4739167598088,1354.4739167598088,1.0002975786827135,0.0004885460099913754
1354.480861190065,1354.480861190065,0.9993347984399744,0.0004884506186930563
1354.4878056204025,1354.4878056204025,0.9998798544391823,0.0004884897930461324
1354.4947500508272,1354.4947500508272,1.0000324106842224,0.0004884639045475443
1354.5016944813337,1354.5016944813337,1.0000931629924381,0.0004884077035919587
1354.508638911933,1354.508638911933,0.9996343344544496,0.0004884404419660295
1354.5155833426022,1354.5155833426022,1.0004749363509464,0.000488526797120665
1354.5225277733475,1354.5225277733475,0.999640194361103,0.0004883928495060837
1354.5294722041795,1354.5294722041795,1.0002776311775643,0.0004884595324148088
1354.536416635105,1354.536416635105,1.0010483600363036,0.0004885444940330746
1354.543361066083,1354.543361066083,0.9996082638129625,0.0004884555243892873
1354.5503054971593,1354.5503054971593,0.9996239193148495,0.0004884154847673492
1354.5572499282887,1354.5572499282887,1.0001016378720997,0.0004885515015722183
1354.5641943595049,1354.5641943595049,1.0003977692878465,0.0004885336546991451
1354.5711387908027,1354.5711387908027,0.9989570697224016,0.0004883793736331404
1354.5780832221708,1354.5780832221708,1.0005249579360205,0.0004885358678996479
1354.5850276536025,1354.5850276536025,0.9999442607364545,0.0004885099409240696
1354.59197208511,1354.59197208511,0.9991264039871994,0.000488387240141151
1354.5989165166932,1354.5989165166932,1.0005961598654107,0.0004886328769390496
1354.605860948346,1354.605860948346,0.9999810478574732,0.0004885424852523847
1354.6128053800633,1354.6128053800633,1.0003343997976697,0.0004885614803788669
1354.6197498118559,1354.6197498118559,1.0004492689000302,0.0004885989737303017
1354.6266942437123,1354.6266942437123,0.9995734330347492,0.0004884965529839956
1354.6336386756334,1354.6336386756334,1.0002014522213833,0.0004885332489227099
1354.6405831076295,1354.6405831076295,0.9996655761280527,0.0004884568330691611
1354.64752753969,1354.64752753969,0.9996884975903747,0.0004885084736958389
1354.6544719718088,1354.6544719718088,1.0001365755317262,0.0004885204747473998
1354.6614164039916,1354.6614164039916,1.0002424338499984,0.0004886265272681671
1354.6683608362498,1354.6683608362498,1.0000941719455567,0.0004885841051152494
1354.675305268549,1354.675305268549,1.0000930723249826,0.0004886533268445589
1354.6822497009234,1354.6822497009234,0.9997941238746832,0.0004884781926013132
1354.6891941333568,1354.6891941333568,0.9997910454035367,0.0004885824389848146
1354.6961385658535,1354.6961385658535,1.0004456811083535,0.000488598033507835
1354.7030829984087,1354.7030829984087,0.9997012349003738,0.0004885188038927293
1354.7100274310226,1354.7100274310226,0.9992957885166108,0.0004885731130186432
1354.7169718636997,1354.7169718636997,1.0006562455586818,0.0004887364359469279
1354.7239162964238,1354.7239162964238,1.0005988680297102,0.0004887419479024156
1354.730860729206,1354.730860729206,1.0000535791386207,0.0004886610405401433
1354.7378051620462,1354.7378051620462,0.9993154622505479,0.000488558084256099
1354.744749594945,1354.744749594945,1.0000631763672772,0.0004886472026561638
1354.7516940279017,1354.7516940279017,1.0001235470320167,0.0004886801336550371
1354.758638460905,1354.758638460905,0.9990047485543428,0.000488490378955283
1354.7655828939728,1354.7655828939728,1.000898421557217,0.0004887691509667866
1354.7725273270808,1354.7725273270808,0.9999890046699562,0.0004886505464388256
1354.7794717602471,1354.7794717602471,1.000632229143283,0.0004887811873109245
1354.786416193466,1354.786416193466,0.9997373845446479,0.0004886436932951902
1354.7933606267313,1354.7933606267313,0.9995854568356799,0.0004887294323389433
1354.800305060061,1354.800305060061,0.9996726244148221,0.0004885689388723004
1354.8072494934252,1354.8072494934252,1.0003584564991148,0.000488729016297539
1354.8141939268419,1354.8141939268419,1.000773279268877,0.000488803297117766
1354.8211383603166,1354.8211383603166,0.9996114577480171,0.0004886352812479953
1354.8280827938265,1354.8280827938265,0.9998457227635725,0.0004886697754631197
1354.835027227389,1354.835027227389,0.9994391987774417,0.0004887152681836455
1354.8419716610033,1354.8419716610033,1.0003663811116688,0.0004887456748268039
1354.8489160946585,1354.8489160946585,0.9994038864698691,0.0004885206883942485
1354.8558605283665,1354.8558605283665,1.000370303019069,0.0004886697229719212
1354.862804962109,1354.862804962109,1.0004781210797904,0.0004887092907469755
1354.8697493959044,1354.8697493959044,1.000000186641837,0.0004886053275913892
1354.8766938297342,1354.8766938297342,0.9993306496510321,0.000488530707852066
1354.883638263622,1354.883638263622,0.9997883097704359,0.0004885980784968206
1354.8905826975395,1354.8905826975395,1.0004589908952068,0.0004886743438750439
1354.8975271315094,1354.8975271315094,1.0003733739730083,0.0004886347517560528
1354.9044715655136,1354.9044715655136,1.0001944313273843,0.0004885809173455832
1354.9114159995709,1354.9114159995709,1.0002818227663501,0.0004886751069253694
1354.9183604336565,1354.9183604336565,0.9997625068315836,0.0004886010483401383
1354.925304867801,1354.925304867801,0.9999214574329883,0.0004886280207470513
1354.9328048567015,1354.9328048567015,0.9995227332586424,0.0004885405440170398
1354.9405826230256,1354.9405826230256,0.9996303557961237,0.0004884614989728717
1354.9475270572807,1354.9475270572807,1.000448380298303,0.0004886819338580892
1354.9544714915762,1354.9544714915762,0.9995816578776384,0.0004885258859616985
1354.9614159259067,1354.9614159259067,1.0011133975815576,0.0004887262642411848
1354.968360360278,1354.968360360278,0.9999305792050439,0.0004885860043117669
1354.9753047946901,1354.9753047946901,0.999260596962011,0.0004885949799650543
1354.9822492291312,1354.9822492291312,0.9999344580049533,0.0004885894110459427
1354.9891936636188,1354.9891936636188,1.0001627602605134,0.0004886117676713368
1354.9961380981358,1354.9961380981358,0.9997072375936862,0.0004885600718134931
1355.0030825326874,1355.0030825326874,1.00044310682115,0.0004885539154447579
1355.0100269672685,1355.0100269672685,0.999653362908165,0.0004885558582967296
1355.0169714018957,1355.0169714018957,1.0007285025002026,0.0004888280665746171
1355.0239158365523,1355.0239158365523,0.999702447025921,0.0004885679168739354
1355.030860271238,1355.030860271238,1.0008573425302807,0.0004886737674223314
1355.0378047059583,1355.0378047059583,0.9987907766183728,0.0004884476704446704
1355.0447491407142,1355.0447491407142,0.9998967619004191,0.0004885575020099937
1355.0516935755043,1355.0516935755043,1.0001829252888343,0.0004885739242713395
1355.0586380103239,1355.0586380103239,0.9996526029952527,0.0004886393722685128
1355.0655824451726,1355.0655824451726,1.0005013802638838,0.0004886014470269384
1355.0725268800559,1355.0725268800559,1.0002008781604672,0.0004886847431512268
1355.0794713149687,1355.0794713149687,0.9996314065890738,0.0004885441128572143
1355.0864157499043,1355.0864157499043,1.000619995026647,0.0004886033377099539
1355.093360184881,1355.093360184881,0.9995829631516255,0.0004884657663962944
1355.1003046198812,1355.1003046198812,0.9993135614792168,0.0004884568810858664
1355.10724905491,1355.10724905491,1.0003155175033076,0.0004885591103766806
1355.1141934899683,1355.1141934899683,1.0002441032501328,0.0004886623205256968
1355.1211379250497,1355.1211379250497,1.0004525211823674,0.0004886720044274854
1355.128082360172,1355.128082360172,1.0003695368446919,0.0004887179334256691
1355.1350267953173,1355.1350267953173,0.999481000881383,0.0004885654988253132
1355.141971230492,1355.141971230492,1.000069365048883,0.0004887572968208705
1355.1489156656783,1355.1489156656783,0.9998904228739807,0.0004885937997858676
1355.1558601008992,1355.1558601008992,0.9993032194683528,0.0004884979708176259
1355.1628045361495,1355.1628045361495,1.0000421866408156,0.000488606800330941
1355.169748971429,1355.169748971429,0.9996970019140935,0.0004885654627594441
1355.1766934067196,1355.1766934067196,1.000325724432757,0.000488775798159015
1355.1836378420517,1355.1836378420517,0.9998701026101828,0.0004885677803814759
1355.1905822774013,1355.1905822774013,1.0004021914886674,0.0004886324667777985
1355.1975267127734,1355.1975267127734,1.0010493823530588,0.0004888082990250279
1355.204471148169,1355.204471148169,0.9995862325898612,0.0004884868487171818
1355.2114155835939,1355.2114155835939,0.9996698396241073,0.000488515632574491
1355.218360019042,1355.218360019042,0.9993797820370875,0.0004883988098020986
1355.2253044545075,1355.2253044545075,1.0003046222405565,0.0004886213697441571
1355.2322488899968,1355.2322488899968,0.9997075411888406,0.0004886069405850333
1355.2391933255144,1355.2391933255144,0.9999596275060572,0.0004886606119484916
1355.2461377610498,1355.2461377610498,1.0005537049687334,0.0004886771557436367
1355.2530821966088,1355.2530821966088,0.9997698736558428,0.0004886523525432344
1355.2600266321851,1355.2600266321851,1.00025787638183,0.0004887005540565859
1355.266971067796,1355.266971067796,1.0006287107994132,0.0004888116096998101
1355.2739155034074,1355.2739155034074,0.9996636084404461,0.0004885849525551294
1355.2808599390532,1355.2808599390532,0.9992847429257059,0.0004886003040051677
1355.287804374711,1355.287804374711,1.00032069565318,0.0004887184445453186
1355.2947488103919,1355.2947488103919,0.9994046214572745,0.0004885184650713472
1355.3016932460962,1355.3016932460962,1.0007115531627424,0.0004888025507399192
1355.308637681818,1355.308637681818,0.9999847288441657,0.000488667170342914
1355.3155821175685,1355.3155821175685,0.9999917907951932,0.0004887432602505776
1355.3225265533256,1355.3225265533256,0.9998923132905422,0.0004886988893941078
1355.3294709890938,1355.3294709890938,1.0001096409823726,0.0004888001088643655
1355.337804312054,1355.337804312054,0.9998832405660704,0.0004886690465260425
1355.344748747869,1355.344748747869,1.0004277185827817,0.0004887909061241502
1355.351693183707,1355.351693183707,0.9994236773268173,0.0004886334441349365
1355.3586376195628,1355.3586376195628,0.9999627267512047,0.0004886354931624233
1355.36558205543,1355.36558205543,0.9996020682462277,0.0004886660305578087
1355.3725264913262,1355.3725264913262,1.0004162091252256,0.0004885917840631336
1355.3794709272286,1355.3794709272286,1.0004085973875014,0.0004886460835925115
1355.386415363142,1355.386415363142,1.000005290147249,0.0004886486951807195
1355.393637576521,1355.393637576521,1.0001838610188387,0.000488682129724126
1355.4016931222263,1355.4016931222263,0.9996525846745309,0.0004885477766912887
1355.4086375581978,1355.4086375581978,0.9999810386884944,0.0004886965604159736
1355.4155819941816,1355.4155819941816,0.9998516035800403,0.000488599753746809
1355.4225264301829,1355.4225264301829,0.9996321518342708,0.0004886441898721684
1355.4294708662012,1355.4294708662012,1.0010481314955517,0.0004887654654639851
1355.4364153022375,1355.4364153022375,0.999507213311953,0.0004884785528081784
1355.4433597382852,1355.4433597382852,0.9995732549650537,0.0004885275524474488
1355.4503041743385,1355.4503041743385,1.000604120382273,0.0004886646069056976
1355.4572486104157,1355.4572486104157,0.9995747111358018,0.0004885276265014383
1355.4641930465036,1355.4641930465036,1.0000289239703253,0.0004885852853655938
1355.471137482604,1355.471137482604,1.000014009835184,0.0004884819255333939
1355.4780819187217,1355.4780819187217,0.999880368762971,0.0004885834012043312
1355.4850263548506,1355.4850263548506,1.0003479939259263,0.0004885985386432222
1355.4919707909858,1355.4919707909858,1.0003880206131408,0.0004885621305854655
1355.498915227144,1355.498915227144,0.9991501534452765,0.0004884504550865607
1355.5058596633082,1355.5058596633082,1.000202977621422,0.0004885537700941853
1355.5128040994896,1355.5128040994896,1.000115985270962,0.0004884830333503262
1355.5197485356828,1355.5197485356828,0.9999479450839142,0.000488487898718161
1355.526692971876,1355.526692971876,1.000277354466521,0.0004885363676939811
1355.5336374080923,1355.5336374080923,0.9999176891178063,0.000488491201582858
1355.5405818443148,1355.5405818443148,1.0003324950980508,0.0004884754980855481
1355.5475262805546,1355.5475262805546,0.9994248526724524,0.0004884191789089582
1355.5544707168003,1355.5544707168003,0.9995306782802457,0.0004883563846742163
1355.5614151530574,1355.5614151530574,1.0004573404733477,0.0004885612106151885
1355.568359589332,1355.568359589332,1.0008827999937338,0.0004885051527686662
1355.5753040256068,1355.5753040256068,0.9994406422887561,0.000488361996222301
1355.582248461899,1355.582248461899,0.9989789801202816,0.0004883034457882579
1355.5891928981912,1355.5891928981912,1.00028221072074,0.0004884739179242747
1355.5961373345067,1355.5961373345067,1.000186429737562,0.0004885533801218857
1355.6030817708163,1355.6030817708163,1.000941491755904,0.0004886538694434787
1355.6100262071548,1355.6100262071548,0.999886872280849,0.0004885462195423072
1355.6169706434937,1355.6169706434937,0.9999970349001386,0.0004885717446289938
1355.6239150798324,1355.6239150798324,0.9994886247307615,0.0004885114368120235
1355.6308595161945,1355.6308595161945,1.0008769958116397,0.0004886670721362353
1355.637803952551,1355.637803952551,0.999731121309468,0.0004885760784347339
1355.6447483889242,1355.6447483889242,0.9987768205596035,0.0004884286850683983
1355.651692825304,1355.651692825304,1.0005783988471464,0.0004887250325128904
1355.6586372616948,1355.6586372616948,0.9988604187359569,0.0004884250994754441
1355.6655816980917,1355.6655816980917,1.000334674691816,0.0004887388114179349
1355.6725261345007,1355.6725261345007,1.0009122356628721,0.0004888058288798922
1355.6794705709149,1355.6794705709149,1.000804104018049,0.0004887371991826049
1355.6864150073293,1355.6864150073293,0.9999432204394983,0.0004886153167878207
1355.6933594437555,1355.6933594437555,0.9993761986164251,0.000488606574776599
1355.7003038801872,1355.7003038801872,1.000781110301149,0.0004886770747569629
1355.7072483166367,1355.7072483166367,1.000116770870838,0.0004885825886013843
1355.714192753086,1355.714192753086,0.9993304761898891,0.0004885087765650759
1355.721137189535,1355.721137189535,0.9995351434955506,0.000488479508453761
1355.728081625996,1355.728081625996,1.000901202638578,0.0004887458553632107
1355.7350260624746,1355.7350260624746,1.0005775288601177,0.0004886901627120424
1355.7425260538482,1355.7425260538482,0.9998892851373599,0.0004886467716434522
1355.750303822711,1355.750303822711,0.9998474892927783,0.0004884908647116491
1355.757248259195,1355.757248259195,0.9996048289979631,0.0004885186854881878
1355.764192695697,1355.764192695697,1.000060553834127,0.0004885615826611106
1355.771137132193,1355.771137132193,1.000008341659496,0.0004886300111477535
1355.7780815687001,1355.7780815687001,0.9994981593939525,0.0004885157510242348
1355.7850260052078,1355.7850260052078,0.9998575115556683,0.000488534470811807
1355.7919704417213,1355.7919704417213,1.0003029166818365,0.0004886930445652163
1355.7989148782403,1355.7989148782403,1.0002964971305623,0.0004886239752779239
1355.8058593147653,1355.8058593147653,1.0010098525222668,0.0004886350011919976
1355.8128037512904,1355.8128037512904,1.000141270048716,0.0004885552230600004
1355.8197481878271,1355.8197481878271,0.9987632563240801,0.0004883856690005839
1355.8266926243637,1355.8266926243637,1.0002203612824008,0.0004885704098809787
1355.8336370609063,1355.8336370609063,0.9997207021467377,0.0004884485056902325
1355.8405814974485,1355.8405814974485,1.0006106860989876,0.0004886281520962437
1355.8475259339968,1355.8475259339968,0.9990383877857347,0.0004884183277784384
1355.854470370551,1355.854470370551,1.000025673466121,0.0004885726012192496
1355.8614148071051,1355.8614148071051,1.0006298198874954,0.0004886918327455957
1355.8683592436707,1355.8683592436707,0.9998059263550305,0.0004885153307036948
1355.8753036802368,1355.8753036802368,1.000396663414892,0.0004885974079698747
1355.8822481168029,1355.8822481168029,0.9991645581493319,0.0004883875538629498
1355.889192553374,1355.889192553374,1.0012604306501454,0.0004886702819238396
