time,time,flux,flux_err
1325.2991475470783,1325.2991475470783,1.0001563297251452,0.00019426642344547482
1325.307480721103,1325.307480721103,0.9998417367447843,0.00019422095000825473
1325.315813895448,1325.315813895448,0.999971576634152,0.00019424980792071827
1325.3241470701093,1325.3241470701093,1.000167882117235,0.00019427055916304805
1325.3317858138157,1325.3317858138157,0.9998742727363172,0.00017732686176338478
1325.3387301265113,1325.3387301265113,1.0000555795679815,0.00017736386489403236
1325.3456744394211,1325.3456744394211,0.9997214568933979,0.00017735573916986542
1325.352618752543,1325.352618752543,0.9999521471812555,0.00017740159121670286
1325.359563065876,1325.359563065876,0.9999363532641328,0.0001774221010346938
1325.3665073794189,1325.3665073794189,1.0001676787198819,0.00017746805313244762
1325.3734516931693,1325.3734516931693,1.000025890895074,0.00017747863907691642
1325.380396007124,1325.380396007124,1.0001750239977716,0.00017752397675112726
1325.3873403212865,1325.3873403212865,1.0001845884165526,0.0001775537581188936
1325.3942846356524,1325.3942846356524,1.0001095943872693,0.00017758606556744227
1325.4012289502168,1325.4012289502168,0.9994973583028885,0.0001775642145605519
1325.408173264986,1325.408173264986,1.0001580051569114,0.00017763254075227965
1325.415117579949,1325.415117579949,0.9999685732454825,0.00017763831621146707
1325.4220618951097,1325.4220618951097,0.9998917602314095,0.00017767194291584852
1325.429006210467,1325.429006210467,1.0000113268241286,0.00017769926049058968
1325.435950526015,1325.435950526015,0.9999686449923104,0.00017773767795569128
1325.442894841756,1325.442894841756,1.000031331320524,0.0001777496126052188
1325.449839157688,1325.449839157688,0.9998981116080821,0.00017776999381115098
1325.4567834738064,1325.4567834738064,1.0000589418582815,0.0001778019282824181
1325.4637277901124,1325.4637277901124,1.0002236153875852,0.00017785371346017853
1325.470672106606,1325.470672106606,0.9999216883025792,0.00017783911097817522
1325.4776164232806,1325.4776164232806,1.0000008310918485,0.00017787167208934787
1325.4845607401408,1325.4845607401408,0.9999256923241411,0.00017791010818435526
1325.491505057176,1325.491505057176,1.0001327734693155,0.00017794281067173373
1325.4984493743927,1325.4984493743927,0.9999452313549663,0.00017796361358384178
1325.5053936917889,1325.5053936917889,1.0001219029209047,0.00017801599221201438
1325.5123380093578,1325.5123380093578,1.0000907383279638,0.00017804267865346063
1325.5192823271032,1325.5192823271032,1.0002229922885242,0.00017808101544540132
1325.52622664502,1325.52622664502,0.9996457713111496,0.0001780781965754643
1325.533170963107,1325.533170963107,1.000104399218459,0.0001781251948212744
1325.5401152813627,1325.5401152813627,0.9998654264809914,0.0001781435950298024
1325.5470595997897,1325.5470595997897,1.0001618833612365,0.0001782009094173871
1325.55400391838,1325.55400391838,1.0000123527356781,0.00017819626041906203
1325.5609482371383,1325.5609482371383,1.0000338105488935,0.00017822982098283468
1325.5678925560592,1325.5678925560592,0.9999389129751849,0.0001782602233336805
1325.5748368751415,1325.5748368751415,1.0002093303256783,0.0001783092651790511
1325.581781194383,1325.581781194383,0.9998866746993065,0.00017830995844050153
1325.5887255137836,1325.5887255137836,1.0000273399566981,0.00017834835186836812
1325.595669833344,1325.595669833344,0.9995940887800228,0.00017832090387647482
1325.602614153059,1325.602614153059,1.0002016807888918,0.00017839400030189402
1325.609558472929,1325.609558472929,1.000101187088238,0.00017840082689115375
1325.6165027929515,1325.6165027929515,0.9999943252028792,0.00017840241615970612
1325.6234471131254,1325.6234471131254,0.9998985290244488,0.00017841081866570594
1325.6303914334494,1325.6303914334494,1.0001644489489958,0.0001784191499908106
1325.637335753926,1325.637335753926,1.00006687549496,0.0001784279506581299
1325.6442800745465,1325.6442800745465,0.9999378573533522,0.0001784224870283229
1325.6512243953143,1325.6512243953143,0.9998475201549972,0.00017841840014889716
1325.658168716227,1325.658168716227,1.0000272028070163,0.00017842916461595105
1325.6651130372845,1325.6651130372845,0.9998925061544103,0.00017842383835974985
1325.672057358483,1325.672057358483,1.000304745279633,0.00017845793062237964
1325.6790016798182,1325.6790016798182,0.9999400241452745,0.00017843585394630482
1325.6859460012959,1325.6859460012959,1.0001650816948786,0.0001784652159006623
1325.6928903229132,1325.6928903229132,0.9998205267690791,0.00017844124970921332
1325.6998346446662,1325.6998346446662,0.9997173649289766,0.00017845908476805055
1325.7067789665543,1325.7067789665543,0.9999614605222307,0.0001784871574588422
1325.7137232885777,1325.7137232885777,1.0001684785786404,0.00017850084633128723
1325.7206676107305,1325.7206676107305,0.9999795190521089,0.00017851396801348945
1325.7276119330177,1325.7276119330177,1.0001877722274104,0.00017854789056691707
1325.7345562554324,1325.7345562554324,1.0000611694607635,0.00017855824702440196
1325.741500577981,1325.741500577981,1.000011516607303,0.0001785724923572572
1325.748444900655,1325.748444900655,1.0000508344060342,0.00017858196063597024
1325.7553892234544,1325.7553892234544,1.000090391100964,0.0001786171938277822
1325.7623335463827,1325.7623335463827,0.9999380302837407,0.00017861842505893997
1325.7692778694322,1325.7692778694322,0.9997368441736393,0.0001786301452698563
1325.7762221926037,1325.7762221926037,0.9997844943762312,0.00017865992034602548
1325.7831665159006,1325.7831665159006,1.0001833625860592,0.00017870795462227154
1325.7901108393166,1325.7901108393166,0.9998297529304938,0.0001786945280171824
1325.7970551628518,1325.7970551628518,1.000017703244041,0.0001787195674095038
1325.803999486507,1325.803999486507,1.00018364258499,0.00017874354846338656
1325.8109438102763,1325.8109438102763,0.9999439209162301,0.00017873674655167538
1325.8178881341653,1325.8178881341653,1.000102010740169,0.00017876074282726671
1325.824832458168,1325.824832458168,1.0001834187229233,0.00017878092195172283
1325.8317767822825,1325.8317767822825,0.9998849041901481,0.0001787717510408725
1325.8387211065135,1325.8387211065135,1.0000613442683028,0.00017879061150149033
1325.8456654308536,1325.8456654308536,0.9998989688376808,0.0001787776476754501
1325.852609755307,1325.852609755307,1.0000176792843938,0.00017879887491173543
1325.8595540798685,1325.8595540798685,0.999948334182595,0.0001787834214887764
1325.866498404539,1325.866498404539,1.0000229222856454,0.00017877913445301475
1325.8734427293173,1325.8734427293173,0.9998646651304002,0.00017874106139156387
1325.880387054202,1325.880387054202,1.0000574700736709,0.00017874868035143348
1325.887331379191,1325.887331379191,0.9998294637679838,0.00017871567744501287
1325.8942757042873,1325.8942757042873,1.0001987162238946,0.00017873080033633065
1325.9012200294849,1325.9012200294849,0.9998256044661096,0.000178692284084288
1325.9081643547838,1325.9081643547838,1.0002157712089474,0.00017872065230735277
1325.9151086801862,1325.9151086801862,1.0000595995285877,0.000178667585016494
1325.9220530056891,1325.9220530056891,1.0000764095830468,0.00017868729206054572
1325.9289973312923,1325.9289973312923,1.00003454729746,0.0001786831630460775
1325.9359416569946,1325.9359416569946,0.9999317881456294,0.00017867749044320381
1325.9428859827913,1325.9428859827913,0.9998447377192388,0.00017867121028061896
1325.949830308687,1325.949830308687,1.0001586375862797,0.00017869211594091964
1325.9567746346788,1325.9567746346788,0.9999280413191449,0.00017867125853272147
1325.964830052952,1325.964830052952,0.9999731287455165,0.00017867399815333233
1325.9720521521954,1325.9720521521954,0.9999318519283878,0.00017868237454474658
1325.9789964784868,1325.9789964784868,1.000000883114294,0.00017870223405407423
1325.9859408048717,1325.9859408048717,1.0001878668472208,0.0001787115903085202
1325.9928851313493,1325.9928851313493,0.9997203400914705,0.0001786972418556152
1325.9998294579132,1325.9998294579132,1.0001473304285047,0.00017872873391741394
1326.0067737845698,1326.0067737845698,0.9998302718797991,0.00017871691548316162
1326.0137181113141,1326.0137181113141,1.0001776656813273,0.00017875375812675625
1326.0206624381453,1326.0206624381453,0.9997133755032077,0.0001787496606944206
1326.027606765067,1326.027606765067,1.0001842897349256,0.00017879843032410128
1326.0345510920731,1326.0345510920731,1.000008105601195,0.00017878472391192956
1326.041495419162,1326.041495419162,1.0000410904778858,0.0001787867841091915
1326.0484397463388,1326.0484397463388,0.9999707222632098,0.00017876893543030024
1326.0553840735988,1326.0553840735988,1.0000800805533938,0.00017880472798216654
1326.0623284009425,1326.0623284009425,1.0002797779935395,0.00017882002018818841
1326.069272728365,1326.069272728365,0.9995575472998531,0.0001787806450793095
1326.0762170558714,1326.0762170558714,1.0000541759370045,0.00017883401307310445
1326.0831613834584,1326.0831613834584,1.0002385167411536,0.0001788419114788988
1326.090105711125,1326.090105711125,0.9996376269061145,0.00017881534827207944
1326.097050038869,1326.097050038869,0.9995583086209983,0.00017880584219089475
1326.1039943666956,1326.1039943666956,0.9999064933148507,0.0001788419092055862
1326.1109386945964,1326.1109386945964,1.0001122007725933,0.00017885501414545193
1326.117883022576,1326.117883022576,1.0004835467369306,0.0001788912203255255
1326.124827350634,1326.124827350634,1.0001650557818111,0.00017887105919264882
1326.131771678765,1326.131771678765,1.0003412153376807,0.0001788842962659178
1326.1387160069685,1326.1387160069685,0.9996342735341093,0.00017883977738582588
1326.1456603352513,1326.1456603352513,0.999864950931174,0.000178872290320714
1326.152604663602,1326.152604663602,0.9997800182720347,0.00017886093043055512
1326.1595489920296,1326.1595489920296,0.9999004568050506,0.0001788766343569581
1326.1664933205273,1326.1664933205273,1.0000470561398285,0.00017888718495511256
1326.1734376490972,1326.1734376490972,1.0001561412903335,0.00017889600416314477
1326.1803819777379,1326.1803819777379,0.9997063616141662,0.0001788542047033513
1326.1873263064476,1326.1873263064476,1.0003061105631608,0.00017890468223311394
1326.1942706352304,1326.1942706352304,1.0000467426602788,0.00017887968083019052
1326.2012149640775,1326.2012149640775,0.9996501038122257,0.00017883840520143231
1326.2081592929942,1326.2081592929942,1.000111202710381,0.00017887845930947846
1326.215103621979,1326.215103621979,1.0001363959742118,0.00017887271923508862
1326.2220479510313,1326.2220479510313,1.0000687702960014,0.00017887906677696298
1326.2289922801501,1326.2289922801501,0.9998990241245055,0.00017886432547713555
1326.2359366093347,1326.2359366093347,1.0000947782034042,0.00017888469587342814
1326.2428809385815,1326.2428809385815,1.0002970555830424,0.00017890936345830438
1326.249825267896,1326.249825267896,0.9999045620305236,0.00017887894264145975
1326.256769597272,1326.256769597272,0.9998250867555788,0.00017887984847783073
1326.263713926713,1326.263713926713,0.9999301045573157,0.00017888295694517815
1326.2706582562175,1326.2706582562175,0.9998996793515975,0.00017886967235823727
1326.2776025857816,1326.2776025857816,1.0002074315594798,0.00017890417940004806
1326.2845469154104,1326.2845469154104,1.0000536977472627,0.00017890285424589152
1326.2914912450992,1326.2914912450992,0.9997993555901006,0.00017886827298536375
1326.2984355748472,1326.2984355748472,0.9998112913450867,0.00017887129820269186
1326.3053799046556,1326.3053799046556,1.00023187048348,0.0001789156073525667
1326.3123242345227,1326.3123242345227,1.0000004402039746,0.00017890121301731692
1326.3192685644508,1326.3192685644508,1.0002095405363882,0.00017890835411608287
1326.3262128944357,1326.3262128944357,0.9998523834331504,0.00017890101946923482
1326.3331572244801,1326.3331572244801,0.999815506574045,0.00017888582594777303
1326.3401015545815,1326.3401015545815,1.0001474917032136,0.00017892870109235097
1326.3481569775722,1326.3481569775722,1.0000729987595212,0.00017892798056148225
1326.3567679470532,1326.3567679470532,0.9998650228290924,0.00017891380744640805
1326.3637122773425,1326.3637122773425,0.9996497585148407,0.00017890735704834902
1326.370656607691,1326.370656607691,1.0001600999307163,0.00017896332025360047
1326.3776009380933,1326.3776009380933,1.0002713249726356,0.00017897015272150838
1326.3845452685466,1326.3845452685466,1.0002235034171734,0.00017896553106590778
1326.3914895990554,1326.3914895990554,0.9999726937743725,0.00017896295127534163
1326.3984339296182,1326.3984339296182,0.9996700538827874,0.00017895211058605086
1326.40537826023,1326.40537826023,1.000121373543236,0.0001789992357277755
1326.4123225908966,1326.4123225908966,1.000073578217699,0.00017900732038894166
1326.419266921614,1326.419266921614,1.0001842117496345,0.0001790309534573621
1326.4262112523847,1326.4262112523847,0.9997384443586796,0.0001789997651582838
1326.4331555832048,1326.4331555832048,0.99992908821631,0.00017902733144174154
1326.440099914076,1326.440099914076,1.0001262836682516,0.00017904603291461294
1326.4470442449951,1326.4470442449951,0.999670899160888,0.00017903346749387867
1326.4539885759634,1326.4539885759634,1.0000307934740917,0.00017906058194198997
1326.460932906983,1326.460932906983,1.0001021925314764,0.0001790697475495628
1326.4678772380505,1326.4678772380505,1.0003344393652058,0.0001790937173849285
1326.4748215691643,1326.4748215691643,0.9998652391419351,0.00017907594707932323
1326.4817659003281,1326.4817659003281,0.9998059603939902,0.00017907411001060996
1326.4887102315383,1326.4887102315383,0.9999974867144408,0.00017909976753502306
1326.4956545627952,1326.4956545627952,1.000428034021002,0.00017914103480256492
1326.5025988940993,1326.5025988940993,0.9995912334719863,0.00017909018779540279
1326.509543225448,1326.509543225448,1.0000515909730823,0.0001791341105761608
1326.5164875568412,1326.5164875568412,1.000010247910114,0.00017913781262272392
1326.5234318882829,1326.5234318882829,0.9999638969206283,0.000179147221707214
1326.5303762197652,1326.5303762197652,1.0001152101880095,0.00017917221863534362
1326.537320551295,1326.537320551295,0.9999594838530605,0.00017917996682336444
1326.544264882868,1326.544264882868,0.9998113194408196,0.0001791878937174687
1326.5512092144852,1326.5512092144852,1.0000440449037185,0.00017922745252055823
1326.558153546145,1326.558153546145,0.9999949094673326,0.00017920296651321744
1326.5650978778467,1326.5650978778467,1.000436676218804,0.00017925169678680925
1326.5720422095926,1326.5720422095926,0.9999723442802406,0.00017923593340051825
1326.578986541382,1326.578986541382,0.9998214577892544,0.00017923360330113273
1326.5859308732101,1326.5859308732101,0.9998700695607876,0.00017922881039096177
1326.59287520508,1326.59287520508,1.0000887315045202,0.00017925990527830612
1326.5998195369912,1326.5998195369912,1.000007533968303,0.00017926216509988935
1326.606763868942,1326.606763868942,1.0003255938876996,0.00017928373955417885
1326.613708200935,1326.613708200935,0.9998992797785867,0.00017926398554970913
1326.6206525329656,1326.6206525329656,0.9999929779705632,0.00017927679713402957
1326.6275968650389,1326.6275968650389,0.9998034134028435,0.00017925879336576375
1326.6345411971479,1326.6345411971479,1.0000545854826133,0.00017927668539335825
1326.6414855292983,1326.6414855292983,1.0000376782199007,0.00017927852996492638
1326.6484298614864,1326.6484298614864,1.0000996745411133,0.00017927686847129008
1326.6553741937137,1326.6553741937137,1.0001553802458203,0.00017928161192078354
1326.662318525979,1326.662318525979,1.0002390107773107,0.00017927238476483502
1326.6692628582784,1326.6692628582784,1.0000702213225805,0.0001792635777856704
1326.6762071906167,1326.6762071906167,0.9999433113707414,0.00017923032295801434
1326.6831515229953,1326.6831515229953,1.0001459156676948,0.00017923961994853577
1326.6914847218936,1326.6914847218936,0.9999139510138007,0.0001791980467364535
1326.6984290543492,1326.6984290543492,0.9997976763930442,0.00017918229374689717
1326.70537338684,1326.70537338684,0.999916157772662,0.00017915920692371172
1326.713151039274,1326.713151039274,1.0000018019007153,0.00017917917927157703
1326.720650918446,1326.720650918446,0.999882818156757,0.00017916221476808983
1326.72759525105,1326.72759525105,1.0003455014422427,0.00017918003352220184
1326.7345395836892,1326.7345395836892,1.0000559149643526,0.00017916653085045178
1326.7414839163634,1326.7414839163634,1.0000196452526207,0.00017913439470737067
1326.7484282490689,1326.7484282490689,0.9998085622716127,0.000179131781972585
1326.7553725818098,1326.7553725818098,1.0000936069445703,0.00017914222071132958
1326.762316914583,1326.762316914583,1.0002185779902264,0.00017913462963316918
1326.7692612473907,1326.7692612473907,0.9997770518008091,0.00017910682993109984
1326.776205580231,1326.776205580231,1.0000303966227386,0.00017912256721711202
1326.7831499131055,1326.7831499131055,1.0001303877462822,0.00017912649455008753
1326.7900942460096,1326.7900942460096,0.9995741373791838,0.0001790842367617974
1326.7970385789454,1326.7970385789454,1.0000964622895365,0.0001791214203958863
1326.8039829119139,1326.8039829119139,0.9998166244359513,0.00017910056287453985
1326.8109272449117,1326.8109272449117,1.0001147628169698,0.00017912728503645384
1326.817871577944,1326.817871577944,1.0003011678607412,0.00017913747169673148
1326.8248159110078,1326.8248159110078,0.9998663449495389,0.00017912649688769429
1326.8317602440966,1326.8317602440966,1.0001974512840108,0.00017914719690983552
1326.8387045772204,1326.8387045772204,0.999979256897119,0.00017911159237781748
1326.845648910373,1326.845648910373,1.0001032444059572,0.00017913365776245702
1326.8525932435564,1326.8525932435564,0.9997172556865651,0.000179092097759452
1326.8595375767661,1326.8595375767661,0.9997749979168857,0.0001790851807717832
1326.8664819100109,1326.8664819100109,1.0000639433147887,0.0001790927853082576
1326.87342624328,1326.87342624328,1.0000545131714351,0.00017909240682393213
1326.8803705765793,1326.8803705765793,1.0002971190738514,0.00017908732043898546
1326.8873149099054,1326.8873149099054,0.9998563394432054,0.0001790420915768782
1326.8942592432631,1326.8942592432631,0.9999666480799331,0.00017902052427756096
1326.901203576645,1326.901203576645,0.9997707904746427,0.00017897048190788865
1326.9081479100576,1326.9081479100576,1.0000129560117406,0.00017895828687156164
1326.9150922434972,1326.9150922434972,1.0001413039488902,0.0001789432762087009
1326.922036576963,1326.922036576963,0.9999673887497178,0.00017891212756092651
1326.9289809104564,1326.9289809104564,1.0002211781692503,0.00017889161011798592
1326.9359252439776,1326.9359252439776,1.0000535935332389,0.00017887202957217983
1326.942869577524,1326.942869577524,0.9998906684128908,0.00017883635094339146
1326.9498139111008,1326.9498139111008,0.999814820221092,0.00017880104167559044
1326.9567582446984,1326.9567582446984,0.9999731882441211,0.0001788090974821817
1326.9637025783231,1326.9637025783231,0.9999172954104385,0.0001787737305307907
1326.9706469119749,1326.9706469119749,1.0001229161250917,0.00017877831573221106
1326.9775912456514,1326.9775912456514,1.0001012210260296,0.00017875126577071405
1326.9845355793545,1326.9845355793545,0.9998618604635015,0.00017872458754162327
1326.9914799130806,1326.9914799130806,0.9997170993173367,0.00017871352850488593
1326.9984242468342,1326.9984242468342,1.0000977974024392,0.0001787232887329695
1327.0053685806101,1327.0053685806101,1.0001542133554653,0.0001787290657939784
1327.0123129144117,1327.0123129144117,1.0000441958895394,0.00017870424770505397
1327.0192572482338,1327.0192572482338,0.9996604662344367,0.00017867199730937667
1327.0262015820852,1327.0262015820852,1.0003378848513158,0.00017872568840859084
1327.0331459159586,1327.0331459159586,0.9996891502137892,0.0001786679198240711
1327.0400902498545,1327.0400902498545,0.9998837608962801,0.0001786793971946642
1327.0470345837743,1327.0470345837743,1.0001011335247634,0.00017869738699093936
1327.0539789177142,1327.0539789177142,1.000299571080695,0.0001787056533134243
1327.062034345119,1327.062034345119,1.0002965498322456,0.0001787209609422653
