time,time,flux,flux_err
1624.9625448765612,1624.9625448765612,0.9998925971908598,0.0005916491070571159
1624.9708783982808,1624.9708783982808,1.0000698888577289,0.0005948893273882074
1624.9792119200392,1624.9792119200392,1.0004199162229395,0.0005978634195815174
1624.9868509816538,1624.9868509816538,0.998920246416614,0.0005494607796914668
1624.993795583146,1624.993795583146,1.0008390445583983,0.000552700394200731
1625.0007401846387,1625.0007401846387,1.0004417587378633,0.0005562954231792675
1625.0076847862244,1625.0076847862244,0.9995447079382552,0.0005598425980164825
1625.0146293877638,1625.0146293877638,1.0002600292677408,0.0005641329584550912
1625.021573989349,1625.021573989349,0.9996758940575565,0.0005680453075785138
1625.0285185910284,1625.0285185910284,0.9999712507375482,0.0005719845063278185
1625.0354631926607,1625.0354631926607,0.9992021090600163,0.0005765641821947853
1625.0424077943396,1625.0424077943396,0.9997778511551652,0.000581070958114382
1625.0493523961118,1625.0493523961118,0.9997643601703654,0.0005856264291580089
1625.0562969978837,1625.0562969978837,1.0007935584540761,0.0005905194621247451
1625.0632415996556,1625.0632415996556,0.9995380567358267,0.0005951736821058673
1625.0701862015674,1625.0701862015674,0.9997838212061303,0.0005996312639152863
1625.077130803479,1625.077130803479,0.9995575458141845,0.0006039865876044014
1625.0840754054375,1625.0840754054375,1.0007651657332906,0.0006082774335437308
1625.0910200073959,1625.0910200073959,1.000388268424156,0.0006120974486045331
1625.097964609494,1625.097964609494,0.9997609516953073,0.0006155218548511337
1625.1049092116384,1625.1049092116384,1.0012157535387125,0.0006195997769048183
1625.1118538137828,1625.1118538137828,0.9998393428180009,0.0006229216540459093
1625.1187984159274,1625.1187984159274,0.9990558945037622,0.0006261231680197222
1625.1257430182582,1625.1257430182582,0.9999903443776994,0.0006297070023295245
1625.1326876205428,1625.1326876205428,0.9991874067818175,0.00063264902438342
1625.1396322229198,1625.1396322229198,1.0000673297560199,0.0006360472405411631
1625.1465768253906,1625.1465768253906,0.9997708611773317,0.000638886351078785
1625.1535214279072,1625.1535214279072,1.0001197590514512,0.0006419537023675535
1625.160466030471,1625.160466030471,1.000958185291236,0.0006448433742686073
1625.1674106330813,1625.1674106330813,1.0006393146729986,0.0006477292198130192
1625.1743552358314,1625.1743552358314,1.000308965427148,0.0006507249282601261
1625.1824109749712,1625.1824109749712,1.000153187006907,0.0006535427573829025
1625.1896333619927,1625.1896333619927,1.000833093024416,0.0006552953916385391
1625.1965779648824,1625.1965779648824,0.9991654791861446,0.0006578544069798133
1625.203522567819,1625.203522567819,0.9997227778893721,0.0006599639982000553
1625.2104671708944,1625.2104671708944,0.9995950195516372,0.0006622245447500456
1625.2185229104994,1625.2185229104994,1.0005013839714585,0.0006643551261168306
1625.2271342184627,1625.2271342184627,1.0005436919657409,0.0006675067790901507
1625.234078821772,1625.234078821772,1.0003012078969316,0.0006693128532407213
1625.2421345616099,1625.2421345616099,1.000152722611765,0.0006722400397289182
1625.2493569492838,1625.2493569492838,0.9993862455975832,0.0006745951722673427
1625.2563015527317,1625.2563015527317,1.0003334769409755,0.0006769351201683107
1625.2632461563203,1625.2632461563203,0.9999102978128789,0.0006789188556384419
1625.2713018965774,1625.2713018965774,0.9999021956197239,0.00068219203497977
1625.2785242844377,1625.2785242844377,1.0000399845097727,0.0006850967492324062
1625.2854688883049,1625.2854688883049,1.0010009000793365,0.0006878907575618449
1625.2924134921727,1625.2924134921727,1.0004050227438204,0.0006905284561388779
1625.2996358802654,1625.2996358802654,1.0001261170689502,0.0006940514548672901
1625.3090805417899,1625.3090805417899,0.998651564709365,0.0006983515995885073
1625.3160251458435,1625.3160251458435,0.9996771681642492,0.000701842647193868
1625.324080886753,1625.324080886753,1.0000641482225003,0.0007060151156591706
1625.3313032752183,1625.3313032752183,0.9999470547136836,0.0007092577873018407
1625.3382478795515,1625.3382478795515,0.9987349458753139,0.0007127498706488396
1625.3451924840242,1625.3451924840242,0.9999616178979714,0.0007165197752222908
1625.352137088497,1625.352137088497,1.0008574834757258,0.0007201012619995068
1625.359081693156,1625.359081693156,1.0011923010966421,0.0007229949960039634
1625.3660262977687,1625.3660262977687,0.9999087479380802,0.0007256401179510037
1625.372970902521,1625.372970902521,0.9998522786392297,0.0007284176055596113
1625.37991550732,1625.37991550732,0.9988071935762948,0.0007301557368263993
1625.3868601121653,1625.3868601121653,1.000199345588539,0.0007324939480588401
1625.3938047171503,1625.3938047171503,0.999470539710021,0.0007343444195160535
1625.400749322182,1625.400749322182,0.9992973079750023,0.0007361502360316634
1625.4076939272604,1625.4076939272604,1.0012120715303903,0.0007376825245621095
1625.4146385323852,1625.4146385323852,0.9998985963076041,0.0007389039847341024
1625.4215831376496,1625.4215831376496,1.0008509278326343,0.0007406626260117527
1625.4285277429137,1625.4285277429137,0.999996567406939,0.0007416770297215264
1625.435472348318,1625.435472348318,0.9995302370097772,0.0007419491101274254
1625.4424169537692,1625.4424169537692,1.0004267852888735,0.0007428694335784517
1625.4493615592662,1625.4493615592662,0.9999279940196235,0.000743623230549006
1625.4563061649035,1625.4563061649035,0.9997186688763293,0.0007441105961883429
1625.46325077054,1625.46325077054,1.001273417233842,0.0007445219860545201
1625.4701953761773,1625.4701953761773,0.9996760949990465,0.0007447320914730929
1625.4782511189492,1625.4782511189492,1.0007115066252399,0.0007450291447083575
1625.4854735090912,1625.4854735090912,0.9991328847568317,0.0007452944966785027
1625.4924181150068,1625.4924181150068,1.0014072311196296,0.000745404688758493
1625.4993627210174,1625.4993627210174,1.0005355103277498,0.0007456092051144614
1625.5063073270733,1625.5063073270733,0.9997271378866535,0.0007454077974655006
1625.5132519332687,1625.5132519332687,0.9986248278868711,0.0007447376424882182
1625.5201965394645,1625.5201965394645,0.9995504901941373,0.0007447949172514343
1625.5271411457068,1625.5271411457068,1.0000776377976819,0.0007441300410714229
1625.5340857520891,1625.5340857520891,1.00082748079802,0.0007438178631459857
1625.541030358471,1625.541030358471,0.999464145599082,0.0007424131771525073
1625.5479749649462,1625.5479749649462,0.9998358102745069,0.0007419746864422395
1625.5549195714682,1625.5549195714682,1.0002429211666484,0.0007405548308566105
1625.5618641780366,1625.5618641780366,1.0000483957331627,0.0007393731903247976
1625.5688087847448,1625.5688087847448,1.0008090249591333,0.0007377590637697057
1625.5757533914061,1625.5757533914061,1.000721137620625,0.0007364805686802113
1625.582697998207,1625.582697998207,0.9988721865596979,0.0007338114902575947
1625.5896426050545,1625.5896426050545,0.9995025960369219,0.0007322126736116002
1625.596587212042,1625.596587212042,0.9985457862992411,0.0007301162612546819
1625.6035318189831,1625.6035318189831,0.9992656341388175,0.0007278898310188261
1625.610476426017,1625.610476426017,1.0008066440485774,0.0007262412230905808
1625.6174210330978,1625.6174210330978,1.000261401955972,0.0007235549452136141
1625.6243656402717,1625.6243656402717,1.0006110191222146,0.000721840160805734
1625.6313102474455,1625.6313102474455,0.9999372866036808,0.0007195311826095168
1625.6382548547585,1625.6382548547585,1.0004368762705762,0.0007176207119677937
1625.6451994620252,1625.6451994620252,0.9994034940176102,0.0007152784290572845
1625.6521440694316,1625.6521440694316,0.9998836766607031,0.0007137555079108606
1625.6590886768845,1625.6590886768845,0.9998071025600568,0.0007116872692007505
1625.6660332843844,1625.6660332843844,0.9999948743184877,0.000710556979907201
1625.672977891884,1625.672977891884,1.000084337728897,0.0007091348420731728
1625.6799224995698,1625.6799224995698,0.9999569482771016,0.0007072217179717048
1625.6868671072093,1625.6868671072093,1.0001279646497643,0.0007060791406457733
1625.6938117149416,1625.6938117149416,0.9998892284774386,0.0007044554522700989
1625.7007563226748,1625.7007563226748,0.9986015032216622,0.0007032289568268841
1625.7077009304999,1625.7077009304999,1.0000397711582796,0.0007019710170849256
1625.7146455383722,1625.7146455383722,1.0002778500891394,0.0007008158864694958
1625.7215901463373,1625.7215901463373,1.0004737509447312,0.0006995136416103717
1625.7285347543025,1625.7285347543025,1.0005332838017016,0.0006983523374969665
1625.7354793623144,1625.7354793623144,1.0002891096507953,0.000697479725236287
1625.7424239704662,1625.7424239704662,0.9994736779201288,0.0006967121438986682
1625.749368578571,1625.749368578571,0.9999135736807927,0.0006955472621909919
1625.7563131867694,1625.7563131867694,1.0004313788998496,0.0006942779896034637
1625.7632577950146,1625.7632577950146,0.9995902865880483,0.0006936241393325001
1625.7702024033056,1625.7702024033056,0.9991817534568703,0.0006918812401625219
1625.7771470115968,1625.7771470115968,0.9999704438921562,0.0006910085997729579
1625.7840916200275,1625.7840916200275,1.0005281643664643,0.0006897300316609157
1625.7910362284588,1625.7910362284588,1.0006253363461775,0.0006888989158055496
1625.7979808369362,1625.7979808369362,0.9997764303374753,0.0006876854926193504
1625.8049254454604,1625.8049254454604,0.9996281758224645,0.0006864187033771556
1625.8118700540308,1625.8118700540308,0.9986203386155607,0.0006850390717792966
1625.8188146626478,1625.8188146626478,1.0008760503250302,0.000684169636469786
1625.8257592713119,1625.8257592713119,1.0019094520577412,0.0006829037883060296
1625.8327038799762,1625.8327038799762,1.0003859814666058,0.0006812883797945321
1625.8396484887794,1625.8396484887794,1.0004512359901396,0.0006800587116863659
1625.846593097536,1625.846593097536,0.9997602865601702,0.0006784667532995995
1625.853537706386,1625.853537706386,0.9988045052570194,0.0006769079836947179
1625.8604823152825,1625.8604823152825,0.9992428422831724,0.0006755443478745373
1625.8674269242258,1625.8674269242258,1.000039606799799,0.0006739207770704146
1625.8743715332162,1625.8743715332162,1.002295001811048,0.000672934963018456
1625.8813161421124,1625.8813161421124,1.0010100776225452,0.0006713834300863528
1625.888260751242,1625.888260751242,0.9991674807846327,0.0006691926797607436
1625.8952053603712,1625.8952053603712,1.0000041070761645,0.0006674425673049993
1625.902149969501,1625.902149969501,0.9997905869628749,0.0006660048474306871
1625.9090945786304,1625.9090945786304,0.9990260583993635,0.0006634688276747142
1625.9160391878063,1625.9160391878063,0.9987903883393091,0.0006619704307512436
1625.9229837971222,1625.9229837971222,1.0003871883078455,0.0006601147287355481
1625.929928406391,1625.929928406391,0.999802454796653,0.0006580093072213141
1625.936873015707,1625.936873015707,1.0010269955384652,0.0006557673907436715
1625.9438176250692,1625.9438176250692,1.0002431827529368,0.0006537585481888949
1625.9507622344781,1625.9507622344781,0.9994614728097136,0.000651730358600951
1625.9577068438869,1625.9577068438869,0.9997172577260087,0.0006498682192995353
1625.9646514533888,1625.9646514533888,0.9996673539531489,0.0006473935682814636
1625.9715960628905,1625.9715960628905,1.0009238515813421,0.0006456761453990164
1625.9785406724395,1625.9785406724395,0.9994856975623394,0.000643751305038452
1625.9854852820345,1625.9854852820345,0.9997220031449748,0.0006423400094249887
1625.9924298916299,1625.9924298916299,1.0006552763913374,0.0006407547507977987
1625.9993745013176,1625.9993745013176,1.0000102952661787,0.0006386450245260508
1626.0063191109596,1626.0063191109596,1.0002726559553814,0.000637285247919174
1626.0132637206943,1626.0132637206943,1.0010746603757397,0.0006356557699280241
1626.020208330476,1626.020208330476,0.9990925416683837,0.0006340030963637832
1626.0271529402103,1626.0271529402103,0.9996350884716622,0.0006326162879083171
1626.0340975500385,1626.0340975500385,1.000277661701402,0.0006313982134454359
1626.0410421599129,1626.0410421599129,0.9992365193205318,0.0006298351401846866
1626.0479867697406,1626.0479867697406,1.0000697203314939,0.0006286690818091718
1626.054931379709,1626.054931379709,1.0000647442972168,0.000627801116348131
1626.0618759896302,1626.0618759896302,1.000287328395214,0.0006266351264711287
1626.0688205996441,1626.0688205996441,1.0006171278968192,0.0006253960342379324
1626.0757652096115,1626.0757652096115,0.9996616564559018,0.0006249009607457202
1626.0827098196257,1626.0827098196257,1.0010320565377064,0.0006241358621253461
1626.0896544297334,1626.0896544297334,0.9992798437013082,0.0006227912723441506
1626.096599039794,1626.096599039794,0.9991775245860817,0.0006223112844975485
1626.1035436499012,1626.1035436499012,0.99925886311251,0.000621100081352746
1626.1104882601016,1626.1104882601016,1.0004614563625167,0.0006200394322903322
1626.117432870209,1626.117432870209,0.999546226623294,0.0006189895570754923
1626.1243774805027,1626.1243774805027,1.000533361267599,0.00061846212120564
1626.1313220906566,1626.1313220906566,1.000977352237377,0.0006175386189654481
1626.1382667008572,1626.1382667008572,0.9997360281214178,0.0006170464991555804
1626.1452113111507,1626.1452113111507,1.0006658305624172,0.0006164165030668072
1626.1521559214443,1626.1521559214443,1.0004117672962507,0.0006155015544187387
1626.159100531831,1626.159100531831,1.000080377725118,0.0006144505546256746
1626.1660451422642,1626.1660451422642,0.998882036106378,0.000613275428233979
1626.172989752558,1626.172989752558,0.9998671885248045,0.000612714196560544
1626.1799343630378,1626.1799343630378,0.9991819302609578,0.0006116655498850564
1626.1868789734247,1626.1868789734247,0.9998129749948337,0.0006108253846610776
1626.1938235839045,1626.1938235839045,1.0006572254563983,0.0006100455975958004
1626.2007681943844,1626.2007681943844,1.0000421543838673,0.0006093044328088443
1626.2077128049107,1626.2077128049107,1.0008461584099844,0.0006081887782365743
1626.2146574153908,1626.2146574153908,1.0002988684285543,0.0006074001407617694
1626.2216020259636,1626.2216020259636,0.9989624917299361,0.0006055929814341666
1626.2285466365834,1626.2285466365834,0.998806821925028,0.000604520782969449
1626.235491247156,1626.235491247156,1.0004889229518585,0.000603525060114965
1626.2424358577293,1626.2424358577293,0.9995722428926903,0.0006026714065082788
1626.2493804683954,1626.2493804683954,1.0009364291426208,0.0006014125024319553
1626.2563250790151,1626.2563250790151,1.0000155910646493,0.0006007689713363704
1626.2632696897276,1626.2632696897276,0.9998923570419066,0.0005994172032349923
1626.2702143004403,1626.2702143004403,0.9996016741321089,0.0005979392776075748
1626.277158911153,1626.277158911153,0.9997155828781595,0.0005966802852937744
1626.2841035219124,1626.2841035219124,1.0008506282974747,0.0005958118280399248
1626.2910481326246,1626.2910481326246,0.9999438942315922,0.0005950104682493029
1626.297992743431,1626.297992743431,0.9999834062536944,0.0005934991185318837
1626.3049373542367,1626.3049373542367,1.0000830211507645,0.0005927963289756275
1626.3118819649958,1626.3118819649958,0.9999454113679548,0.0005918615251149637
1626.3188265758945,1626.3188265758945,0.9995244111265004,0.0005907192460943721
1626.3257711867473,1626.3257711867473,0.9998794679720721,0.0005899747218066352
1626.3327157976462,1626.3327157976462,0.9995093423307276,0.0005890176436531187
1626.3396604084987,1626.3396604084987,1.0002840920553513,0.0005885978795421973
1626.3466050193979,1626.3466050193979,1.0003645334958018,0.0005877067654779068
1626.3535496303434,1626.3535496303434,1.000681035323181,0.0005872885189981112
1626.3604942412421,1626.3604942412421,1.0005190819952765,0.0005865307825327626
1626.367438852234,1626.367438852234,0.9992194843584455,0.0005859109926982687
1626.3743834631794,1626.3743834631794,0.9987925978921293,0.0005850778761327181
1626.381328074172,1626.381328074172,1.000168665603412,0.0005847811740106697
1626.388272685164,1626.388272685164,1.0003654195433334,0.0005840518486333159
1626.3952172962026,1626.3952172962026,1.0007986169478498,0.0005836567942714131
1626.4021619072414,1626.4021619072414,0.9993881519225157,0.000583339690406634
1626.40910651828,1626.40910651828,1.0002774438055304,0.0005825023462563527
1626.4160511293649,1626.4160511293649,1.0002723260901871,0.0005822712450127211
1626.4229957404502,1626.4229957404502,0.9998067784380744,0.000581657755427739
1626.4299403514892,1626.4299403514892,0.9993588194228853,0.0005812188395266637
1626.4368849626208,1626.4368849626208,0.9997485517708592,0.0005811562628825144
1626.443829573706,1626.443829573706,0.9999667341397702,0.000580684489645453
1626.450774184884,1626.450774184884,1.0008943902165748,0.0005803476224590465
1626.4577187959696,1626.4577187959696,1.0006915399475849,0.0005798917541474225
1626.4646634071478,1626.4646634071478,0.9997939270789861,0.0005794402768388188
1626.4716080183262,1626.4716080183262,0.999405637486271,0.000579008905341135
1626.478552629505,1626.478552629505,1.0002216501817063,0.0005790829585911657
1626.4854972407295,1626.4854972407295,1.0010358725208752,0.0005785124846858517
1626.492441851908,1626.492441851908,0.9993858129112594,0.0005785697118617588
1626.4993864631329,1626.4993864631329,0.999750227156623,0.0005781470087481345
1626.5063310743576,1626.5063310743576,0.9998946441811609,0.0005777361701352751
1626.5132756855824,1626.5132756855824,0.9999457116610191,0.0005774580851949144
1626.5202202968078,1626.5202202968078,1.001007775875402,0.000577631819646764
1626.5271649080792,1626.5271649080792,1.0004711029749622,0.0005773129800060882
1626.5341095193507,1626.5341095193507,0.9994148525086389,0.0005770217585671135
1626.5410541306687,1626.5410541306687,0.9997609571249673,0.000576866724496887
1626.5479987419399,1626.5479987419399,0.9992672054255329,0.0005763190370828584
1626.5549433532117,1626.5549433532117,0.9998154078467261,0.0005763134789397645
1626.5618879645765,1626.5618879645765,0.9997120355502995,0.0005757537463842795
1626.5688325758479,1626.5688325758479,0.9998622446343053,0.0005760193851805128
1626.5757771872125,1626.5757771872125,1.0011905802940901,0.0005760039211670042
1626.5827217985302,1626.5827217985302,1.000436209744246,0.0005758883043370244
1626.5896664098484,1626.5896664098484,1.0003290080874705,0.0005753091570871384
1626.596611021213,1626.596611021213,1.000135239346401,0.0005750720247744446
1626.6035556326242,1626.6035556326242,0.9997560189878666,0.0005750020194248099
1626.6105002438956,1626.6105002438956,0.9994887154753179,0.0005747493286799638
1626.6174448553534,1626.6174448553534,0.9991332704286474,0.0005744749759036939
1626.6243894667182,1626.6243894667182,0.999986018080649,0.0005751705286584647
1626.6313340780364,1626.6313340780364,1.000393802790196,0.0005749452695973485
1626.638278689494,1626.638278689494,1.0002687364853422,0.0005745883709080836
1626.6452233009516,1626.6452233009516,1.0002532779123108,0.000574449286243316
1626.6521679123628,1626.6521679123628,1.0007365748191117,0.0005737285698600117
1626.6591125236341,1626.6591125236341,0.9994434939997021,0.0005733867097502967
1626.6660571350922,1626.6660571350922,0.9993148553214993,0.0005730239276380013
1626.67300174655,1626.67300174655,0.9997139223345929,0.0005726890883567191
1626.6799463580078,1626.6799463580078,0.9999793028500111,0.0005729214079060543
1626.6868909694651,1626.6868909694651,1.000173266737776,0.000572435061273697
1626.693835580923,1626.693835580923,1.00033997723069,0.0005725567061130611
1626.7007801923805,1626.7007801923805,1.0007986772305113,0.0005729501000507591
1626.7077248038381,1626.7077248038381,0.9999359554640698,0.0005722759117925616
1626.7146694152964,1626.7146694152964,0.999461818774925,0.0005729668251987328
1626.7216140267542,1626.7216140267542,0.9995911351419956,0.0005722964597278887
1626.7285586382118,1626.7285586382118,0.9999076932585942,0.0005718818215330678
1626.7355032496694,1626.7355032496694,0.9992162150677759,0.0005721043251620448
1626.742447861127,1626.742447861127,1.0000594839204398,0.0005721807627906551
