time,time,flux,flux_err
1354.1187557418143,1354.1187557418143,0.9998717773153448,0.0013514859594921263
1354.126857638494,1354.126857638494,1.001987902913801,0.0012342789771649534
1354.1338021211889,1354.1338021211889,0.9982935373563893,0.001233226663981194
1354.1407466035118,1354.1407466035118,1.0005631280920828,0.001234464032955344
1354.1476910858341,1354.1476910858341,0.997553142625071,0.0012332991426743979
1354.154635568064,1354.154635568064,1.0012709396933297,0.001234704612791538
1354.1615800499212,1354.1615800499212,1.000510242719847,0.0012347977102070877
1354.1685245316853,1354.1685245316853,0.9998818192485193,0.0012346664408126914
1354.1754690132625,1354.1754690132625,0.999966289581524,0.0012344433162884692
1354.1824134947476,1354.1824134947476,0.9989051392149406,0.0012344872801100545
1354.1893579759526,1354.1893579759526,1.0019943157132134,0.0012355256424998202
1354.1963024570646,1354.1963024570646,1.0002195426842502,0.0012346192129684284
1354.2032469380833,1354.2032469380833,0.9980216594521913,0.0012332566578658651
1354.2101914189163,1354.2101914189163,1.0012520637505253,0.0012342676343433594
1354.2171358995624,1354.2171358995624,0.998926862559394,0.0012336891708062225
1354.2240803800228,1354.2240803800228,1.0003350466852376,0.0012337644387880767
1354.231024860203,1354.231024860203,1.0002694694682484,0.0012336265460543886
1354.2379693406635,1354.2379693406635,1.0001387012749776,0.001233560259238015
1354.244913820658,1354.244913820658,1.0003901812702811,0.001234035535841864
1354.2518583002798,1354.2518583002798,0.9995147539780463,0.0012332043271648
1354.2588027800878,1354.2588027800878,1.0008426105669357,0.001233095916206973
1354.2657472595236,1354.2657472595236,0.9983524220899056,0.0012323398349819658
1354.272691738959,1354.272691738959,1.000640604986272,0.0012331882518344093
1354.2796362181157,1354.2796362181157,0.9997749168869478,0.0012330891371082021
1354.2865806972718,1354.2865806972718,1.0007744060422152,0.0012333652543437177
1354.293525176335,1354.293525176335,1.000431048065963,0.0012334856323466302
1354.3004696550252,1354.3004696550252,1.0013369300043766,0.0012337052164003836
1354.3074141336228,1354.3074141336228,0.999396441173111,0.0012334994995882626
1354.3143586122205,1354.3143586122205,1.0003962750946738,0.0012338128804656543
1354.3213030905383,1354.3213030905383,0.9994695495882592,0.0012332750249866304
1354.3282475687633,1354.3282475687633,0.9980325984534282,0.001232638621245669
1354.335192046802,1354.335192046802,0.9987890764176981,0.0012332072802348905
1354.3421365247473,1354.3421365247473,1.0006726821750627,0.0012335666090529424
1354.3490810024136,1354.3490810024136,1.0002394637888306,0.0012339437774554008
1354.3560254800796,1354.3560254800796,1.0002590758533696,0.0012336244696336232
1354.3629699577461,1354.3629699577461,0.9996926777726369,0.001233207242963753
1354.3699144349468,1354.3699144349468,1.0002842661577833,0.0012336206013143427
1354.3768589122399,1354.3768589122399,1.0019716466887105,0.0012335584520668428
1354.3838033892546,1354.3838033892546,0.9996203035188719,0.0012327638823380715
1354.3907478662684,1354.3907478662684,1.0006091120891045,0.0012331350313839766
1354.3976923430964,1354.3976923430964,0.999789107119352,0.0012329116411108653
1354.404636819645,1354.404636819645,0.9992019390260923,0.001232892586869942
1354.4115812961936,1354.4115812961936,0.9990583285309871,0.0012327025106758916
1354.418525772649,1354.418525772649,0.9991543807982828,0.0012325169181968039
1354.4254702490114,1354.4254702490114,1.0002545518967914,0.001233493294692666
1354.432414725094,1354.432414725094,1.0001149692674214,0.0012332227047895977
1354.4393592010838,1354.4393592010838,1.0016923616101985,0.0012338501358225922
1354.4463036769805,1354.4463036769805,1.000477153473159,0.0012330988224451746
1354.453248152784,1354.453248152784,0.9991792473633566,0.0012329755254417278
1354.4601926283083,1354.4601926283083,0.9993037131003957,0.0012330173475531636
1354.467137103739,1354.467137103739,1.0005839183325596,0.001233383709908581
1354.4740815793564,1354.4740815793564,1.0001312659288022,0.0012326236900388897
1354.4810260543215,1354.4810260543215,0.998777351303428,0.001232700404152918
1354.4879705296592,1354.4879705296592,0.9993095620143502,0.0012325639790342056
1354.4949150045318,1354.4949150045318,1.000694410138799,0.0012330618306114808
1354.5018594794972,1354.5018594794972,1.001924840035953,0.0012330154330349886
1354.508803954183,1354.508803954183,0.9997385517037529,0.0012324147947245377
1354.5157484288688,1354.5157484288688,0.9997974104838103,0.0012324605631956454
1354.5226929032754,1354.5226929032754,0.999969503861886,0.0012322294811668755
1354.5296373776819,1354.5296373776819,0.9980342739270851,0.0012324184969983568
1354.5365818519954,1354.5365818519954,1.0010955501536443,0.001232916220939842
1354.5435263261224,1354.5435263261224,1.0005245380026746,0.0012327850886513154
1354.5504708000633,1354.5504708000633,1.0003692951034648,0.001232797315916991
1354.5574152740041,1354.5574152740041,1.0001734502835289,0.0012329528687956004
1354.5643597478515,1354.5643597478515,0.9999225136941945,0.0012329126836003695
1354.57130422142,1354.57130422142,0.9988123074327742,0.0012326652329163646
1354.5782486949884,1354.5782486949884,0.9991408346725692,0.001232302842911976
1354.5851931684635,1354.5851931684635,1.000943088417096,0.0012335580165390276
1354.5921376416595,1354.5921376416595,1.0003639895829002,0.001232934968101627
1354.5990821150415,1354.5990821150415,1.0006504182157594,0.0012329795584730453
1354.6060265880512,1354.6060265880512,1.0004343904820412,0.0012330021208004224
1354.6129710610603,1354.6129710610603,0.9985565229286444,0.0012327415459719659
1354.6199155338836,1354.6199155338836,1.000769008928482,0.0012327664631205022
1354.626860006614,1354.626860006614,0.9994969462492106,0.0012327046419100011
1354.6338044792508,1354.6338044792508,0.9988959009665207,0.0012329570656227033
1354.6407489517946,1354.6407489517946,0.9995793421184516,0.0012327463519804282
1354.6476934241523,1354.6476934241523,1.0016502989283935,0.0012335363119548037
1354.6546378965097,1354.6546378965097,0.9998493754463341,0.0012327700262394002
1354.6615823686816,1354.6615823686816,1.0012733812265948,0.0012333902417052372
1354.6685268407596,1354.6685268407596,0.9995746700847157,0.0012328096144508909
1354.6754713126513,1354.6754713126513,0.9972382839036703,0.00123184402855818
1354.6824157845435,1354.6824157845435,1.0014984634323922,0.0012331197091197733
1354.689360256342,1354.689360256342,1.0003479358625653,0.0012327084185147056
1354.6963047279548,1354.6963047279548,1.0011055126578596,0.0012331566614997868
1354.7032491995674,1354.7032491995674,0.9986123955722706,0.001231966509369875
1354.7101936709007,1354.7101936709007,1.0007785370029436,0.0012327487959641265
1354.7171381423268,1354.7171381423268,0.9996116003904154,0.0012329817909757636
1354.724082613567,1354.724082613567,1.000702982256731,0.0012326493699726503
1354.7310270847136,1354.7310270847136,0.9984167259567137,0.0012323287936740705
1354.7379715556747,1354.7379715556747,1.0018846846570164,0.0012324487016227177
1354.7449160267283,1354.7449160267283,1.0002103212355529,0.0012324223407860363
1354.7518604975023,1354.7518604975023,1.0003205292898945,0.0012325781554868858
1354.758804968184,1354.758804968184,1.0003906992966862,0.0012321910662304635
1354.7657494388648,1354.7657494388648,1.0001069625744754,0.001232101545000467
1354.772693909267,1354.772693909267,1.000519177930291,0.0012327944155516714
1354.7796383797618,1354.7796383797618,0.9999657942155453,0.0012319001434380492
1354.7865828499773,1354.7865828499773,1.000795686763223,0.001232874884199104
1354.7935273201929,1354.7935273201929,0.9978945713910232,0.0012321334779830365
1354.8004717903154,1354.8004717903154,0.998860078744943,0.0012319582780898335
1354.8074162603448,1354.8074162603448,1.0004788858996956,0.0012323346734280872
1354.8143607301877,1354.8143607301877,1.0020269131328958,0.001232741392850356
1354.8213052000306,1354.8213052000306,0.9999512322115786,0.0012324355453279692
1354.8282496697807,1354.8282496697807,1.000649685079171,0.0012327446882011601
1354.8351941394376,1354.8351941394376,0.9990094749071782,0.0012324177148698167
1354.842138609001,1354.842138609001,0.9995397476213113,0.0012322658337363863
1354.8490830782855,1354.8490830782855,0.9999200874663391,0.0012317912325129732
1354.8560275476625,1354.8560275476625,0.9990766349591693,0.0012314948025341013
1354.862972016947,1354.862972016947,0.9993243230088111,0.00123160014484006
1354.8699164860452,1354.8699164860452,1.0014782000611249,0.0012325302633941515
1354.8768609550498,1354.8768609550498,0.9993572967482915,0.0012319658331204405
1354.8838054240548,1354.8838054240548,1.0011947692752075,0.001232253421476862
1354.8907498928734,1354.8907498928734,1.0000226771829168,0.0012308942679007716
1354.897694361692,1354.897694361692,0.9986926808305506,0.0012309353099063671
1354.9046388302315,1354.9046388302315,1.0020803384364239,0.0012323335427733165
1354.9115832989562,1354.9115832989562,0.9999158607126531,0.0012315999969028904
1354.9185277673093,1354.9185277673093,0.9982964985343601,0.0012310723349779084
1354.9254722356623,1354.9254722356623,0.999560549402473,0.0012316108804375989
1354.9324167040154,1354.9324167040154,1.0021801583411796,0.001232717503214542
1354.9404722872116,1354.9404722872116,0.9989362707378066,0.0012313931885585597
1354.947694533926,1354.947694533926,1.0002697619727718,0.0012321150874482927
1354.9546390019996,1354.9546390019996,0.9993174869600836,0.0012313085644506722
1354.9615834698868,1354.9615834698868,1.0001766496962172,0.0012317286180729959
1354.9685279377743,1354.9685279377743,0.9991027631898131,0.0012312819630669058
1354.975472405475,1354.975472405475,1.0009840626234996,0.001232549339094794
1354.9824168730831,1354.9824168730831,0.9994420454794181,0.001231781789857386
1354.989361340598,1354.989361340598,1.0000038815535366,0.0012320333202333208
1354.9963058081125,1354.9963058081125,1.0031646734103008,0.0012336536509238417
1355.0032502755341,1355.0032502755341,0.9990621814113899,0.0012319461421460903
1355.0101947427695,1355.0101947427695,0.9995809521119124,0.0012320727623207884
1355.0171392100049,1355.0171392100049,0.999271658441234,0.0012317758819305482
1355.0240836770538,1355.0240836770538,0.9993878557381699,0.0012321196806212968
1355.031028144103,1355.031028144103,0.997717044809449,0.0012314750402864288
1355.037972611059,1355.037972611059,1.0018215489135958,0.0012324472269756742
1355.044917078015,1355.044917078015,1.0006922303698724,0.0012323937404283107
1355.0518615446915,1355.0518615446915,0.999829582276875,0.0012317951171035776
1355.058806011461,1355.058806011461,1.0007293651187728,0.0012324788886706665
1355.0657504779515,1355.0657504779515,1.0006648659552364,0.00123246985637756
1355.0726949445352,1355.0726949445352,0.9991184041438477,0.0012318720803609613
1355.0796394109318,1355.0796394109318,1.0012040008447751,0.0012322903570351428
1355.0865838772359,1355.0865838772359,0.9975381307756919,0.0012313735366295611
1355.0935283435401,1355.0935283435401,1.0000202802736164,0.0012315720648980086
1355.100472809751,1355.100472809751,1.0001452193193807,0.0012320877671524184
1355.1074172757756,1355.1074172757756,0.9995737266138548,0.0012320925453873793
1355.1143617418002,1355.1143617418002,1.0006934207817042,0.0012327223822497994
1355.1213062078248,1355.1213062078248,1.0006756598900575,0.001233408875531595
1355.1282506733837,1355.1282506733837,1.001389579599914,0.0012336479761851037
1355.1351951393153,1355.1351951393153,1.0014598903469332,0.001233974761872947
1355.142139604967,1355.142139604967,0.9988262664412202,0.0012328499371515936
1355.1490840705262,1355.1490840705262,0.9868283639453013,0.0012282341923065077
1355.1560285359924,1355.1560285359924,0.9794296766521287,0.0012257428860392551
1355.1629730014579,1355.1629730014579,0.9767399964294666,0.0012249272664480613
1355.1699174667378,1355.1699174667378,0.9752307497040767,0.001224772829501118
1355.1768619320171,1355.1768619320171,0.9748353171077433,0.001224840506167861
1355.1838063972039,1355.1838063972039,0.975176937656658,0.0012253124761738374
1355.190750862297,1355.190750862297,0.9753366720564941,0.0012248295795105023
1355.1976953273902,1355.1976953273902,0.9752681113859232,0.0012253636966013293
1355.2046397922973,1355.2046397922973,0.9794281080884144,0.001226344716625386
1355.2115842572043,1355.2115842572043,0.9794294260884909,0.001226862021294722
1355.218528721925,1355.218528721925,0.9842787625741993,0.001228915670770902
1355.2254731866462,1355.2254731866462,0.9959999788686451,0.001232767221738374
1355.2324176511804,1355.2324176511804,1.0029219511971739,0.0012352906054186662
1355.2393621158085,1355.2393621158085,1.000738951926291,0.0012336611421578446
1355.2463065802494,1355.2463065802494,1.0028417556813527,0.0012339211763075948
1355.2532510445976,1355.2532510445976,1.0020087366059258,0.0012337069101509865
1355.2601955088528,1355.2601955088528,1.0002344570511534,0.0012323915496455407
1355.267139973108,1355.267139973108,0.9985900468313684,0.0012314756772959414
1355.2740844371767,1355.2740844371767,1.0004291024901497,0.0012317000521252612
1355.2810289012455,1355.2810289012455,1.0010993582373464,0.001231680940798995
1355.2879733653142,1355.2879733653142,0.999390332080185,0.0012308522486231635
1355.2949178291042,1355.2949178291042,1.0014731867964755,0.0012319437290746946
1355.3018622928932,1355.3018622928932,0.9992730398339862,0.001231418918392667
1355.308806756962,1355.308806756962,1.0006393014057076,0.0012318594501204527
1355.3157512204725,1355.3157512204725,0.99893110934082,0.001231300257149528
1355.3226956838894,1355.3226956838894,1.0006104291224538,0.0012312754597388115
1355.3296401475857,1355.3296401475857,0.9992379444485003,0.001231182278587093
1355.3371401680051,1355.3371401680051,0.9995264965859884,0.0012313856018270337
1355.3449179669726,1355.3449179669726,0.9989587724392933,0.001231063728770356
1355.3518624302965,1355.3518624302965,1.0011167028400785,0.0012317866858491326
1355.3588068935271,1355.3588068935271,1.0008548840095557,0.0012319812334720432
1355.3657513566645,1355.3657513566645,0.9982336208444236,0.0012308722414152585
1355.3726958196155,1355.3726958196155,1.0001006487902537,0.0012314719125657617
1355.3796402826604,1355.3796402826604,1.00033872265398,0.00123146906470722
1355.3865847455183,1355.3865847455183,1.0010961522843247,0.0012320156639530047
1355.3935292082833,1355.3935292082833,1.001025913308909,0.0012313118115617392
1355.4013070065057,1355.4013070065057,0.9973765302666084,0.0012304819626350134
1355.4088070262728,1355.4088070262728,0.9996157616001314,0.0012315649820279645
1355.4157514889453,1355.4157514889453,0.998503272841565,0.0012314553695490541
1355.4226959513376,1355.4226959513376,0.9998541980999013,0.001231421234468518
1355.4296404137299,1355.4296404137299,1.00180294062852,0.001232017111572921
1355.4365848761227,1355.4365848761227,0.9990461998931901,0.0012305760976494883
1355.4435293384217,1355.4435293384217,1.0003816288023164,0.0012318690667313748
1355.4504738006278,1355.4504738006278,1.001467717918538,0.0012318632465654206
1355.4574182627412,1355.4574182627412,1.000405965212455,0.0012318238409927413
1355.4643627248543,1355.4643627248543,0.9985747386953413,0.0012307773389042304
1355.471307186781,1355.471307186781,0.9991412036524112,0.0012309197908605559
1355.478251648708,1355.478251648708,1.0011781240177906,0.0012315962639567464
1355.485196110542,1355.485196110542,0.9985873295079793,0.0012303746657269742
1355.4921405723753,1355.4921405723753,1.0001382545816382,0.001231176725588059
1355.4990850339295,1355.4990850339295,1.0010441672215245,0.0012317517746845542
1355.50602949567,1355.50602949567,1.0008044021751359,0.0012314937264858278
1355.5129739570377,1355.5129739570377,1.0002385244203333,0.0012316860838243431
1355.5199184186854,1355.5199184186854,0.9996435222686157,0.0012311300300242756
1355.5268628802394,1355.5268628802394,0.9996933393032126,0.001231308945113919
1355.5338073414214,1355.5338073414214,0.9992197751158545,0.0012309745451487104
1355.5407518025102,1355.5407518025102,1.0003411857381015,0.00123102505191484
1355.547696263878,1355.547696263878,0.9995831505046171,0.0012313572077915448
1355.5546407248737,1355.5546407248737,0.9989956850332712,0.0012312418427520967
1355.5615851859625,1355.5615851859625,1.0013863244821466,0.001232222738263485
1355.5685296469578,1355.5685296469578,1.0002951375423064,0.0012315052258336369
1355.5754741078604,1355.5754741078604,1.0008690570167869,0.0012316199873630515
1355.5824185686693,1355.5824185686693,0.9996110122155363,0.0012314181747342594
1355.5893630294788,1355.5893630294788,0.9988880858865287,0.0012304162005020009
1355.5963074901015,1355.5963074901015,1.000122253193279,0.0012317104744451524
1355.6032519508176,1355.6032519508176,1.0002808528580265,0.0012318621683105294
1355.6101964112545,1355.6101964112545,0.9993039264019886,0.0012311516165386398
1355.6171408717842,1355.6171408717842,0.9986117486231564,0.0012308659418005653
1355.6240853321276,1355.6240853321276,1.0034520960282716,0.001232548872234859
1355.6310297924715,1355.6310297924715,0.9987115311935106,0.001230869186624163
1355.637974252722,1355.637974252722,0.999228990072577,0.0012306943318716285
1355.644918712879,1355.644918712879,1.000668649204375,0.0012310101272986788
1355.6518631731294,1355.6518631731294,0.9997692346935081,0.0012307451561737032
1355.6588076331007,1355.6588076331007,0.999999334856535,0.0012309416423927516
1355.6657520930717,1355.6657520930717,1.000852843359872,0.00123114553777847
1355.67269655295,1355.67269655295,0.9998967823505567,0.0012312479913516303
1355.6796410128277,1355.6796410128277,0.9983154020494143,0.0012302081144756785
1355.6865854726125,1355.6865854726125,0.9997879206817899,0.0012308629763237914
1355.6935299323038,1355.6935299323038,1.0008517237440189,0.001231017538961174
1355.7004743919024,1355.7004743919024,1.0008284496620632,0.0012304981451656293
1355.707418851501,1355.707418851501,1.000864512949188,0.0012312776466864947
1355.7143633110063,1355.7143633110063,1.0003783870867342,0.0012311993990836696
1355.7213077704187,1355.7213077704187,0.9986517812106044,0.0012302574143701396
1355.7282522297378,1355.7282522297378,1.0006410383420496,0.0012315509171462932
1355.73519668915,1355.73519668915,1.0008726052857466,0.0012314949913921002
1355.7421411481896,1355.7421411481896,0.9988188182966932,0.0012310311638668045
1355.750196720862,1355.750196720862,0.9991958310087522,0.0012310017675768602
1355.7574189585428,1355.7574189585428,0.997203176991954,0.001230100143482003
1355.7643634172098,1355.7643634172098,1.0013896868630048,0.0012318084984299083
1355.7713078761567,1355.7713078761567,1.0018126027929597,0.0012314736609830251
1355.7782523351962,1355.7782523351962,0.9993998892894537,0.001230756973026616
1355.7851967938634,1355.7851967938634,0.9997311297719506,0.0012315317130633069
1355.7921412527169,1355.7921412527169,1.0012342883538907,0.0012313827978410955
1355.7990857112914,1355.7990857112914,1.000526724549387,0.0012314119653989302
1355.806030169865,1355.806030169865,1.0005297138526525,0.0012309692048320417
1355.812974628439,1355.812974628439,1.0003721822007257,0.0012311917019321708
1355.8199190869204,1355.8199190869204,0.9987459007686905,0.001230794185584018
1355.8268635453078,1355.8268635453078,0.9994220965450765,0.0012307558457131228
1355.8338080036026,1355.8338080036026,0.9978919619701235,0.0012303215729265631
1355.8407524618974,1355.8407524618974,1.0012812966632412,0.0012313734268650676
1355.8476969200055,1355.8476969200055,0.9989592327682659,0.001230873989181596
1355.854641378114,1355.854641378114,1.0023855834424489,0.001232061918248689
1355.8615858362227,1355.8615858362227,1.0010629081286135,0.0012316714132661589
1355.8685302942376,1355.8685302942376,0.9983230106844765,0.0012305462924935308
1355.8754747520668,1355.8754747520668,1.0003766389160604,0.001231462984595009
1355.882419209989,1355.882419209989,1.001442802925323,0.001231610830530664
1355.889363667725,1355.889363667725,0.9980469298243912,0.0012303753074046039
