time,time,flux,flux_err
1491.6407642884958,1491.6407642884958,1.0000112528610159,0.00017862741346607672
1491.6490978162628,1491.6490978162628,0.999971971145189,0.000178512216728133
1491.6567368832816,1491.6567368832816,1.0001478674057567,0.00016282876192297584
1491.663681489677,1491.663681489677,0.9997742021871108,0.00016271054467529306
1491.6706260957928,1491.6706260957928,1.0002037385567442,0.0001627027946174355
1491.677570702001,1491.677570702001,0.9999459566517359,0.00016255362000043875
1491.6845153080237,1491.6845153080237,0.9998343769089366,0.00016246082713906662
1491.6914599140464,1491.6914599140464,0.9999727750238163,0.000162415793260717
1491.6984045199756,1491.6984045199756,0.9999420681094332,0.00016233806817619054
1491.7053491257186,1491.7053491257186,1.000211677932905,0.00016227989437992194
1491.712293731462,1491.712293731462,1.0000402051842165,0.00016220372405450944
1491.719238337112,1491.719238337112,0.9998747514373726,0.00016211815735313735
1491.726182942762,1491.726182942762,1.0003005187111391,0.00016207831585420647
1491.7331275482256,1491.7331275482256,0.9998751881443668,0.0001619638003424188
1491.7400721535964,1491.7400721535964,0.9998531401403554,0.00016189652326502319
1491.7470167588735,1491.7470167588735,1.00015534181609,0.00016185485376337595
1491.753961364151,1491.753961364151,0.9999940758568723,0.00016178326178577698
1491.7609059692425,1491.7609059692425,0.999925423151045,0.00016172659731916085
1491.7678505742401,1491.7678505742401,0.9998301733839883,0.0001616632029142473
1491.7747951791453,1491.7747951791453,1.0000862143531928,0.00016164012481092514
1491.7817397838637,1491.7817397838637,0.9998052001209965,0.0001615674471383651
1491.7886843886754,1491.7886843886754,1.0001849740082704,0.00016155239858042182
1491.7956289933943,1491.7956289933943,1.0001431027567627,0.0001614893326412166
1491.8025735979268,1491.8025735979268,1.000375428287272,0.00016146436633500335
1491.8095182020863,1491.8095182020863,1.0001344244655508,0.00016142277763806255
1491.8164628065256,1491.8164628065256,0.9999065707453505,0.00016136675245515382
1491.8234074106856,1491.8234074106856,0.9997080065032306,0.00016131163630453267
1491.8303520147522,1491.8303520147522,1.00004579371829,0.0001612155020277596
1491.8372966188188,1491.8372966188188,0.9998521110272705,0.00016116436173943186
1491.8442412226063,1491.8442412226063,1.0000406284767915,0.0001611113368408999
1491.8511858263932,1491.8511858263932,0.9999180864410373,0.00016108341348543818
1491.858130430088,1491.858130430088,1.0000258262711534,0.0001610065093170834
1491.865075033596,1491.865075033596,1.0000137651715586,0.00016096029387438834
1491.872019637104,1491.872019637104,1.0002097557128269,0.0001608988885367662
1491.8789642404256,1491.8789642404256,1.0001635858939006,0.00016088218324724433
1491.885908843561,1491.885908843561,1.0000139559212278,0.00016082643415016128
1491.8928534466963,1491.8928534466963,1.0001909824825344,0.00016078955607248395
1491.8997980496451,1491.8997980496451,0.999868220614186,0.0001607488836309919
1491.9067426525946,1491.9067426525946,0.9999732867712685,0.00016072546767020255
1491.9136872552647,1491.9136872552647,0.9998697768121498,0.00016069044464663785
1491.9206318579338,1491.9206318579338,0.9998310467374347,0.00016062284883476633
1491.9275764604176,1491.9275764604176,0.9999554076505051,0.00016062407758308048
1491.9345210628078,1491.9345210628078,0.99978488027604,0.00016056712872101258
1491.9414656652912,1491.9414656652912,1.000091366671869,0.00016059086533421287
1491.948410267402,1491.948410267402,1.0002705502329516,0.00016055256986597088
1491.9553548692338,1491.9553548692338,0.999856751860466,0.0001605180795923398
1491.9622994712513,1491.9622994712513,0.9999621196500275,0.0001605068192206234
1491.969244073083,1491.969244073083,1.0002619158819566,0.00016050380598670193
1491.9761886747283,1491.9761886747283,1.0000463538476903,0.00016050078597919587
1491.9831332763736,1491.9831332763736,1.0000009049456715,0.00016049418692501872
1491.9900778777394,1491.9900778777394,1.0000556258283437,0.00016046266527838714
1491.9970224791057,1491.9970224791057,0.9998833008989838,0.0001604532092114274
1492.0039670802853,1492.0039670802853,0.9999847439876239,0.00016045926668366238
1492.0109116813717,1492.0109116813717,0.9999457172054467,0.00016047656188663656
1492.0178562822719,1492.0178562822719,0.9998239532774018,0.00016045490736260647
1492.0248008831722,1492.0248008831722,1.0000689946738466,0.0001604679326532758
1492.031745483886,1492.031745483886,1.0001394913204669,0.00016046483528466484
1492.038690084414,1492.038690084414,0.9997069848939573,0.00016043632062812758
1492.0456346848487,1492.0456346848487,1.0002607426741945,0.00016045776636386028
1492.0525792851897,1492.0525792851897,1.000132515524489,0.00016046932980796384
1492.059523885438,1492.059523885438,0.9998368744262904,0.00016043157214048318
1492.066468485407,1492.066468485407,0.9998793925202701,0.00016045754731871883
1492.0734130852825,1492.0734130852825,0.999968054206942,0.0001604260672065255
1492.0803576851583,1492.0803576851583,1.0000565252020777,0.00016046812062385412
1492.0873022850342,1492.0873022850342,1.00019386128601,0.00016047020998259778
1492.0942468844441,1492.0942468844441,1.000098799299592,0.0001604727106021337
1492.1011914839476,1492.1011914839476,1.0000969254897325,0.00016044815413006477
1492.1081360831713,1492.1081360831713,0.9997705951985527,0.00016043932120850883
1492.1150806823948,1492.1150806823948,0.9996911815404145,0.00016045317404923435
1492.1220252814328,1492.1220252814328,0.9999816063658885,0.0001604583251781601
1492.1289698804703,1492.1289698804703,1.0000008950405905,0.00016043850010465162
1492.1359144791352,1492.1359144791352,0.999966932407322,0.00016045304827228495
1492.1428590778937,1492.1428590778937,0.9996939950160098,0.0001604363802139334
1492.1498036763728,1492.1498036763728,1.0002642405073032,0.00016050040075993332
1492.1567482747582,1492.1567482747582,1.0001030834243345,0.00016046545559635013
1492.1636928731439,1492.1636928731439,1.0000492833285937,0.00016044748190331733
1492.1706374712503,1492.1706374712503,1.000014352571727,0.00016045866193467015
1492.1775820692635,1492.1775820692635,1.0002234913545114,0.00016045703602830789
1492.1845266669968,1492.1845266669968,1.0000576758982875,0.00016045224638069094
1492.19147126501,1492.19147126501,0.9999029657229705,0.0001604543524901983
1492.1984158625576,1492.1984158625576,0.9999211576223208,0.00016046078107612957
1492.2053604601049,1492.2053604601049,0.9997240293983293,0.00016044477436610147
1492.21230505728,1492.21230505728,0.999969335929402,0.00016046442825704097
1492.219249654548,1492.219249654548,1.0000069760239143,0.000160467759435816
1492.2261942516293,1492.2261942516293,1.0000536886901341,0.00016045113106418878
1492.2331388486184,1492.2331388486184,1.0001201193178757,0.00016046418776663782
1492.240083445421,1492.240083445421,1.0001475340935697,0.00016048585740009583
1492.2470280421298,1492.2470280421298,0.9996223515397016,0.00016041678629355496
1492.253972638653,1492.253972638653,1.0000054465895882,0.00016045670820111186
1492.260917235176,1492.260917235176,1.000058442505888,0.00016045646836752663
1492.2678618314192,1492.2678618314192,0.9999638254072792,0.00016042271953883004
1492.2748064275697,1492.2748064275697,0.999936459334257,0.00016043892849146882
1492.2817510236275,1492.2817510236275,1.000069975842531,0.0001604490061520572
1492.2886956195916,1492.2886956195916,1.0002047517100598,0.00016043368459763474
1492.2956402152765,1492.2956402152765,1.0002935654542568,0.00016047621766457156
1492.3025848108684,1492.3025848108684,1.000032206621736,0.00016043127664740225
1492.3095294065536,1492.3095294065536,0.9997463544815457,0.00016042268605670902
1492.3164740017723,1492.3164740017723,0.9999417571853865,0.00016042802098494696
1492.3234185969916,1492.3234185969916,1.0000864132992955,0.00016047080760824643
1492.3303631922106,1492.3303631922106,0.9999849564529869,0.00016043415801923988
1492.3373077870572,1492.3373077870572,1.000084464530249,0.00016045088505671536
1492.3442523819037,1492.3442523819037,0.9997038259758769,0.00016043709413439316
1492.3511969766573,1492.3511969766573,0.9996980827153565,0.00016043279177562703
1492.3581415712245,1492.3581415712245,1.0001203489077746,0.0001604571595523753
1492.3650861656056,1492.3650861656056,1.000049508028343,0.00016046418235818972
1492.3720307598935,1492.3720307598935,0.9999384290450116,0.0001604333424981605
1492.3789753539945,1492.3789753539945,1.0002519358678381,0.00016045160748322473
1492.3859199480032,1492.3859199480032,1.00024620637915,0.0001604364709613985
1492.3928645420117,1492.3928645420117,1.0000755177952612,0.0001604400669690807
1492.3998091357403,1492.3998091357403,0.9998895743716778,0.00016042825615738453
1492.4067537293765,1492.4067537293765,0.999887844748075,0.00016044192995523762
1492.4136983228263,1492.4136983228263,1.000017049221852,0.00016044316990896363
1492.4206429161827,1492.4206429161827,1.0000927249993232,0.00016045961525017568
1492.427587509446,1492.427587509446,0.9999028125054027,0.00016044009274056908
1492.434532102337,1492.434532102337,0.9997813029805057,0.00016041214269527684
1492.441476695228,1492.441476695228,0.9998644354541945,0.00016042211977898444
1492.448421288119,1492.448421288119,1.0000887949829027,0.0001604486278094384
1492.4553658810098,1492.4553658810098,1.0000803919109478,0.00016043860886078826
1492.4623104734349,1492.4623104734349,1.0000525894367944,0.00016045083353091256
1492.4692550659531,1492.4692550659531,1.000290760893842,0.00016046762073542925
1492.4761996580992,1492.4761996580992,0.99990465864475,0.00016042430899922678
1492.483144250338,1492.483144250338,1.0000256565499681,0.00016045705720487018
1492.4900888422976,1492.4900888422976,0.9999763129548631,0.0001604284318742198
1492.497033434257,1492.497033434257,0.9999040445790689,0.00016041761588681477
1492.5039780260302,1492.5039780260302,0.9998919326114452,0.0001604167274682074
1492.5109226175239,1492.5109226175239,0.9997870019432809,0.00016041885739460015
1492.5178672089246,1492.5178672089246,0.9997223515135637,0.00016045166586827378
1492.5248118003256,1492.5248118003256,1.000438927047513,0.000160465550461925
1492.53175639154,1492.53175639154,1.000191514530745,0.00016044082019343208
1492.5387009825681,1492.5387009825681,1.0002521279804337,0.0001604402428717463
1492.5456455735034,1492.5456455735034,0.9998417515899904,0.00016040744016529345
1492.5525901642518,1492.5525901642518,0.9998553394104542,0.00016041084349049164
1492.5595347548146,1492.5595347548146,0.9998540307258024,0.00016043125051881223
1492.5664793453775,1492.5664793453775,1.0000898721149,0.0001604362600932757
1492.5734239359394,1492.5734239359394,1.000345966648705,0.00016043733140358335
1492.5803685260366,1492.5803685260366,0.9999649892541983,0.00016041320886787066
1492.5873131162266,1492.5873131162266,0.9999382721285024,0.00016041941618758312
1492.5942577062299,1492.5942577062299,0.9999645570096787,0.00016042371272388824
1492.601202296048,1492.601202296048,1.0000464685392163,0.00016044231961470594
1492.6081468857724,1492.6081468857724,0.9999304284353123,0.00016041345685458328
1492.6150914753105,1492.6150914753105,0.9999951725571741,0.00016037793889478414
1492.6220360648483,1492.6220360648483,1.000147030579728,0.00016042948378131388
1492.6289806541072,1492.6289806541072,0.9999486803702293,0.00016042378983532795
1492.6359252432726,1492.6359252432726,0.999875183243088,0.00016042305925585964
1492.642869832252,1492.642869832252,1.000229799548812,0.000160439244478257
1492.6498144212314,1492.6498144212314,0.9998503246323471,0.0001604137482566791
1492.6567590100242,1492.6567590100242,1.0000463271070845,0.00016038633481593357
1492.663703598631,1492.663703598631,1.0001527988484369,0.00016043828626819388
1492.6706481870515,1492.6706481870515,1.0001963653540744,0.00016045031342592643
1492.6775927752858,1492.6775927752858,0.9999359782641534,0.0001604257567429529
1492.68453736352,1492.68453736352,0.9999513221665038,0.00016041114229349706
1492.6914819517544,1492.6914819517544,0.9999007815187305,0.0001604165329326653
1492.6984265398023,1492.6984265398023,0.9999997384846561,0.000160440886989921
1492.7053711275705,1492.7053711275705,1.0000525519554095,0.00016046575487767997
1492.712315715246,1492.712315715246,1.0000151876229437,0.00016040902188282054
1492.7192603028284,1492.7192603028284,1.0000059356180309,0.0001604237346852357
1492.7262048902242,1492.7262048902242,1.0000247245695844,0.00016042331196107346
1492.7331494775274,1492.7331494775274,0.9999477499314052,0.0001604208897307613
1492.7400940646442,1492.7400940646442,1.0000918847353781,0.00016042584289264322
1492.7470386516673,1492.7470386516673,1.0000262724946247,0.00016042808170578377
1492.7539832385978,1492.7539832385978,1.0000320428234226,0.00016041980523982097
1492.7609278253424,1492.7609278253424,1.0000776979574968,0.00016040818418164743
1492.7678724119003,1492.7678724119003,0.9999337885798543,0.00016039476417779988
1492.7748169983647,1492.7748169983647,0.9999288176503551,0.00016041333867350508
1492.7817615848296,1492.7817615848296,0.9999924432073574,0.0001603992928045536
1492.7887061710148,1492.7887061710148,0.999889377525711,0.00016041208590653305
1492.7956507571068,1492.7956507571068,1.0000144616038686,0.00016041970928464357
1492.802595343013,1492.802595343013,1.0001529330016394,0.00016041789328091914
1492.809539928919,1492.809539928919,0.9999717440960373,0.00016042191005881778
1492.8164845144524,1492.8164845144524,1.0000214832417806,0.00016041903953057475
1492.8234290999858,1492.8234290999858,0.9998317708803054,0.00016042091648994986
1492.830373685426,1492.830373685426,0.9998978192246174,0.00016041766481949968
1492.8373182706796,1492.8373182706796,1.0001680192646059,0.00016041906734615236
1492.8442628558407,1492.8442628558407,0.9999991886457309,0.00016041959893478227
1492.8512074408154,1492.8512074408154,1.0001364908508614,0.00016047750578826404
1492.8581520256969,1492.8581520256969,1.0000962304019585,0.0001604264724825649
1492.8650966104851,1492.8650966104851,0.9999417621641571,0.00016039714924119067
1492.8720411950871,1492.8720411950871,0.9998969005272119,0.0001604068862540913
1492.8789857795027,1492.8789857795027,0.9998153805307503,0.00016039401476799982
1492.8859303638255,1492.8859303638255,1.0003349490537006,0.00016045927456035154
1492.8928749480551,1492.8928749480551,0.9998294372023068,0.00016040429984708933
1492.8998195320983,1492.8998195320983,1.0001498177024843,0.00016040859677286307
1492.9067641161416,1492.9067641161416,0.9996536724531044,0.00016038413183609587
1492.9137086998123,1492.9137086998123,0.9999854046070513,0.00016041914346782575
1492.9206532833898,1492.9206532833898,1.0000442369841867,0.0001604052965982172
1492.927597866968,1492.927597866968,1.0000167941237919,0.00016041145097193556
1492.934542450546,1492.934542450546,1.0000211694776329,0.00016041050335206626
1492.9414870336577,1492.9414870336577,1.0000818880274625,0.00016041512180956782
1492.9484316168625,1492.9484316168625,1.0000629481285963,0.00016041251704095304
1492.9553761998816,1492.9553761998816,1.0000612062244638,0.0001603759566202571
1492.962320782714,1492.962320782714,1.0000645423297647,0.0001604207362959876
1492.9692653654533,1492.9692653654533,0.9999578311403378,0.00016037045948549632
1492.9762099481,1492.9762099481,1.0001101104580876,0.00016043693168210727
1492.9831545305597,1492.9831545305597,0.9998238177202883,0.00016036683652845252
1492.9900991129266,1492.9900991129266,0.9996694086834834,0.00016037298525817874
1492.997043695107,1492.997043695107,1.0000576537615529,0.00016042259033081883
1493.0039882771948,1493.0039882771948,1.0001345300056461,0.00016043429017116643
1493.0109328590956,1493.0109328590956,1.0000951819891235,0.00016043220586562615
1493.017877440904,1493.017877440904,1.0001745134610598,0.0001604026091962335
1493.024822022619,1493.024822022619,0.9999367739064884,0.00016040812799011947
1493.0317666041476,1493.0317666041476,0.9999973427002089,0.0001604082006179511
1493.0387111855832,1493.0387111855832,0.9998089781200971,0.00016039680810687502
1493.0456557668326,1493.0456557668326,1.0000864951990776,0.000160421736760743
1493.0526003480816,1493.0526003480816,0.9998741086018038,0.0001604009664753695
1493.0595449288655,1493.0595449288655,1.0000565196667535,0.00016040368586613924
1493.0664895098357,1493.0664895098357,1.0002700173825843,0.00016042088550964116
1493.0734340906188,1493.0734340906188,0.9998850085774983,0.00016041124059127835
1493.0803786712163,1493.0803786712163,0.9999100428255522,0.0001604133804956314
1493.0873232517208,1493.0873232517208,1.0000430103620521,0.00016041298439556302
1493.0942678320384,1493.0942678320384,0.999905941051644,0.0001604168816474781
1493.101212412264,1493.101212412264,0.9999904158773585,0.00016041418223889932
1493.1081569923958,1493.1081569923958,0.9998756849278558,0.00016039320699158793
1493.1151015722478,1493.1151015722478,1.0000212459152102,0.00016041738069322512
1493.1220461521002,1493.1220461521002,1.0002091076642965,0.00016042816858842534
1493.1289907317664,1493.1289907317664,1.0002169072055325,0.00016041945264135912
1493.1359353113392,1493.1359353113392,0.999984717378617,0.00016041157967657265
1493.142879890819,1493.142879890819,0.9997698249067529,0.00016038859853131348
1493.1498244701127,1493.1498244701127,0.9997486923118736,0.00016043766410289007
1493.1567690491268,1493.1567690491268,1.0002446579648425,0.0001604485903129212
1493.1637136280474,1493.1637136280474,1.0000295085009228,0.00016043123328663642
1493.1706582069687,1493.1706582069687,0.9999669273801988,0.0001604315224280418
1493.1776027858898,1493.1776027858898,1.0000535564565227,0.00016041597183761468
1493.1845473645312,1493.1845473645312,1.0000103154122983,0.00016042296763119117
1493.1914919430797,1493.1914919430797,1.0001334327367122,0.00016043226419923325
1493.1984365214419,1493.1984365214419,0.999883449011371,0.0001604232174055156
1493.2053810997108,1493.2053810997108,0.9997690090409336,0.0001603924681966249
1493.2123256777936,1493.2123256777936,1.0000733244732367,0.00016041534747352458
1493.2192702557836,1493.2192702557836,0.9999815912730551,0.0001604399818960375
1493.2262148335867,1493.2262148335867,1.0001530029223276,0.0001604327788170633
1493.233159411297,1493.233159411297,0.9999578062733944,0.00016042997802681212
1493.2401039889141,1493.2401039889141,0.9997781999501176,0.00016036299652576902
1493.247048566438,1493.247048566438,1.0000935606025332,0.00016041705662238906
1493.2539931436827,1493.2539931436827,1.0001040715079703,0.0001604085694921872
1493.2609377209278,1493.2609377209278,0.9999659917101063,0.00016041969910346
1493.2678822979856,1493.2678822979856,0.9999734641270376,0.00016038903566195937
1493.2748268749508,1493.2748268749508,1.0000341519237692,0.00016040977119274473
1493.281771451544,1493.281771451544,0.9999906668876143,0.00016039667235987523
1493.2887160285095,1493.2887160285095,0.9999201607564705,0.000160406697557897
1493.2956606047294,1493.2956606047294,1.0000164374707041,0.00016041475127099786
1493.3026051813224,1493.3026051813224,0.9998977402092244,0.00016038941385802553
1493.3095497576355,1493.3095497576355,1.0001377578765676,0.00016041880374116098
1493.3164943337624,1493.3164943337624,1.0000743848532418,0.00016041465073126873
1493.3234389097963,1493.3234389097963,0.9997329831252066,0.00016040427502158028
1493.3303834856442,1493.3303834856442,0.9999703290070713,0.00016040372801839976
1493.3373280613982,1493.3373280613982,1.0001365821668706,0.00016043199502061088
1493.34427263706,1493.34427263706,1.0001743155433165,0.00016041353260726876
1493.351217212442,1493.351217212442,0.9998359471714513,0.0001604195781921422
1493.3581617879167,1493.3581617879167,0.9998811165597813,0.0001604169095615897
1493.3651063632058,1493.3651063632058,0.9998218906008806,0.00016044005568567306
1493.3720509382151,1493.3720509382151,0.9999685975377044,0.0001603933817050218
1493.3789955133175,1493.3789955133175,1.0000900315136747,0.0001604362887748801
1493.385940088141,1493.385940088141,1.0000672970199234,0.00016042951948583197
