time,time,flux,flux_err
1325.3032744522043,1325.3032744522043,1.000141020596444,0.00027315429296964535
1325.3116077413827,1325.3116077413827,1.000104508875322,0.00027326233968893705
1325.3199410304842,1325.3199410304842,0.9996880122098499,0.0002732397818997998
1325.327579878792,1325.327579878792,1.0000610371157943,0.00024952652861205286
1325.3345242862597,1325.3345242862597,0.9998436462117425,0.00024951655161748403
1325.3414686937278,1325.3414686937278,0.9998899631966396,0.00024957632526695275
1325.348413101196,1325.348413101196,1.0002126746983149,0.0002496513199898581
1325.355357508664,1325.355357508664,1.000124079925827,0.0002496651533717807
1325.3623019160386,1325.3623019160386,0.9999732291550701,0.00024974032137571166
1325.3692463233206,1325.3692463233206,0.9999096248526346,0.00024974934335322883
1325.3761907306948,1325.3761907306948,0.9998256848373211,0.0002497961968460099
1325.38313513807,1325.38313513807,1.0001411063957044,0.00024987483344256466
1325.3900795451652,1325.3900795451652,0.999974360353822,0.0002499021155431517
1325.3970239526332,1325.3970239526332,1.000059677081741,0.00024998549873482664
1325.4039683596354,1325.4039683596354,0.999629885208987,0.00024998343429543437
1325.4109127671036,1325.4109127671036,1.0003777230017725,0.0002501150660238464
1325.4178571741056,1325.4178571741056,1.000108096211785,0.00025011889277082295
1325.4248015812013,1325.4248015812013,1.000143992615262,0.0002501289526473991
1325.4317459885758,1325.4317459885758,0.9999991421905596,0.00025016473414759047
1325.438690395578,1325.438690395578,0.9997587736762839,0.00025016969127819095
1325.4456348025803,1325.4456348025803,1.0000133766904973,0.0002502271445082072
1325.4525792095824,1325.4525792095824,0.9997417500514342,0.00025019721961687684
1325.459523616585,1325.459523616585,0.999833195340012,0.00025024679247899164
1325.4664680237734,1325.4664680237734,1.0001868341859588,0.00025027746378619334
1325.473412431055,1325.473412431055,1.000154225104983,0.00025031281410522083
1325.4803568380576,1325.4803568380576,1.0000308418865562,0.00025032297085463836
1325.4873012450596,1325.4873012450596,0.9999732680174841,0.0002503184154620752
1325.4942456515964,1325.4942456515964,1.0001248913562302,0.0002503736990186792
1325.501190058599,1325.501190058599,0.9998554625440178,0.000250360515445827
1325.5081344656007,1325.5081344656007,0.9998208411875927,0.00025037511282595534
1325.5150788726035,1325.5150788726035,1.000132369977573,0.0002504187645884057
1325.5220232796055,1325.5220232796055,1.0002320501347282,0.000250455905648003
1325.5289676866075,1325.5289676866075,0.9997738988278801,0.0002504351722040836
1325.5359120934236,1325.5359120934236,1.0003083425375923,0.0002505098070634757
1325.5428565001464,1325.5428565001464,0.9996552941503252,0.00025046455651409413
1325.5498009071491,1325.5498009071491,1.0001646800632311,0.00025054793871000285
1325.556745314151,1325.556745314151,0.999876659387106,0.00025053186446868166
1325.5636897207812,1325.5636897207812,1.0001736544510549,0.00025056927194225357
1325.5706341276903,1325.5706341276903,0.9995907504430704,0.0002505204943277009
1325.5775785346923,1325.5775785346923,1.0000860617327896,0.00025059350460613196
1325.5845229412294,1325.5845229412294,1.000293139584478,0.00025065663156960746
1325.5914673482312,1325.5914673482312,1.0000470093718656,0.00025063268269316083
1325.5984117550474,1325.5984117550474,0.9999666390960821,0.0002506670593954981
1325.6053561617703,1325.6053561617703,1.000004612729482,0.00025068860497752803
1325.6123005687723,1325.6123005687723,0.9998774446189194,0.00025068001772284373
1325.6192449753094,1325.6192449753094,0.9999063854308297,0.00025068683604923155
1325.6261893823114,1325.6261893823114,1.000111732734152,0.00025069561952393915
1325.633133788848,1325.633133788848,1.0001184686910516,0.0002507175419188918
1325.6400781958503,1325.6400781958503,0.9997833694265674,0.0002506775640063807
1325.6470226024799,1325.6470226024799,0.9999874249121554,0.0002507285018002214
1325.6539670093891,1325.6539670093891,0.9999275657791704,0.0002507115336689657
1325.6609114159257,1325.6609114159257,1.0002975991124052,0.00025078096107176355
1325.667855822928,1325.667855822928,1.000264633795904,0.0002507845760023183
1325.6748002294644,1325.6748002294644,0.9999208021494137,0.0002507652937724416
1325.6817446363737,1325.6817446363737,0.9995770633432703,0.00025073980732587167
1325.6886890430037,1325.6886890430037,0.9999785792622419,0.000250787755234637
1325.6956334498195,1325.6956334498195,1.0000921449381222,0.0002508154209542339
1325.7025778565426,1325.7025778565426,0.9999862311244236,0.0002508387039912012
1325.7095222631724,1325.7095222631724,1.0000298488248593,0.0002508281155112206
1325.7164666700814,1325.7164666700814,0.9997454694419077,0.00025085690280303387
1325.723411076618,1325.723411076618,1.0000609908137006,0.0002509030482098525
1325.7303554834339,1325.7303554834339,1.0004454928694453,0.00025099207146315106
1325.7372998901567,1325.7372998901567,0.9999908069276302,0.0002509529865856807
1325.7442442967867,1325.7442442967867,0.9999413808960247,0.00025099039613217945
1325.7511887036023,1325.7511887036023,0.999738372642315,0.0002509834205470352
1325.7581331102324,1325.7581331102324,0.9998823868115597,0.0002510463566526918
1325.7650775169554,1325.7650775169554,1.000142670711321,0.00025109339380214045
1325.7720219237713,1325.7720219237713,1.0001639985026127,0.0002511389559441392
1325.7789663303079,1325.7789663303079,0.9999923477005532,0.00025117702097691996
1325.7859107370307,1325.7859107370307,1.000051461761513,0.00025121196416423553
1325.7928551438467,1325.7928551438467,1.0000485738579288,0.00025126326574367196
1325.7997995503833,1325.7997995503833,1.0000315887385625,0.0002512841959131875
1325.8067439571994,1325.8067439571994,0.9999124461430341,0.00025132534841433194
1325.8136883639224,1325.8136883639224,0.9997476563170246,0.0002513217061260685
1325.8206327704588,1325.8206327704588,0.9998612287382077,0.00025136859312942277
1325.827577177275,1325.827577177275,1.0002417454551793,0.0002514190852558134
1325.8345215839977,1325.8345215839977,1.0000953974628195,0.00025143230255250047
1325.8414659905345,1325.8414659905345,1.0003171824780355,0.0002514820863711366
1325.8484103972576,1325.8484103972576,0.9997716236129561,0.000251452400864645
1325.8553548040732,1325.8553548040732,1.0001227818856684,0.0002514976201336297
1325.86229921061,1325.86229921061,0.999533986518516,0.0002514317834409532
1325.8692436173328,1325.8692436173328,1.0003398545416622,0.0002514883457609514
1325.8761880240559,1325.8761880240559,0.9997889855672678,0.00025145069670298194
1325.8831324306855,1325.8831324306855,1.000110920929797,0.0002514507781491815
1325.8900768373155,1325.8900768373155,0.9998402367241861,0.00025138970714578613
1325.8970212440383,1325.8970212440383,0.9999142236519966,0.0002513959394096012
1325.9039656507612,1325.9039656507612,0.9999173077301367,0.0002514124267391941
1325.9109100572975,1325.9109100572975,1.0004036341790088,0.0002514458152464695
1325.9178544640204,1325.9178544640204,0.9999583673730967,0.0002513901337891524
1325.9247988707434,1325.9247988707434,1.0000323650598486,0.0002513898634956903
1325.9317432773735,1325.9317432773735,0.9998370623238408,0.0002513737321249125
1325.9386876840028,1325.9386876840028,1.0001419246814838,0.00025136868728841473
1325.945632090726,1325.945632090726,0.9996121917379848,0.00025133577417213503
1325.952576497449,1325.952576497449,1.0002201523215255,0.00025139614213766836
1325.9595209039853,1325.9595209039853,1.00003846659318,0.0002513959875905613
1325.9672986395487,1325.9672986395487,0.999731280488907,0.00025139306270796657
1325.9747985987385,1325.9747985987385,1.0005044601406243,0.00025145605107280056
1325.9817430053686,1325.9817430053686,1.0000582410200802,0.00025142767930607773
1325.988687411998,1325.988687411998,0.9997083748460935,0.00025138293459623463
1325.9956318186275,1325.9956318186275,0.9998981531937499,0.00025139370357043524
1326.0025762253506,1326.0025762253506,1.0001977092566285,0.0002514437916259173
1326.0095206319802,1326.0095206319802,0.9996311650507046,0.0002514164522906152
1326.01646503861,1326.01646503861,1.0003685398297468,0.0002515700811348796
1326.0234094452398,1326.0234094452398,0.9996437947140373,0.0002515190330104768
1326.0303538518697,1326.0303538518697,1.0002186418227819,0.0002515948314991289
1326.0372982585927,1326.0372982585927,1.0002711935292634,0.000251651442707436
1326.044242665222,1326.044242665222,0.9999510589452981,0.00025157492073561716
1326.051187071759,1326.051187071759,0.9999111996457322,0.0002515831422613984
1326.0581314784818,1326.0581314784818,0.9999271829573833,0.0002516174752434289
1326.0650758851114,1326.0650758851114,0.9999210562681121,0.00025160666250782397
1326.0720202917414,1326.0720202917414,0.9999720050118676,0.00025164325738385063
1326.0789646983708,1326.0789646983708,1.0002688817165002,0.00025169208861006625
1326.085909104908,1326.085909104908,0.9997754289738833,0.00025167745843425617
1326.0928535115374,1326.0928535115374,1.0001550057195396,0.0002517252205533779
1326.0997979182605,1326.0997979182605,1.0000497568389681,0.00025172103984960533
1326.1067423248903,1326.1067423248903,0.999954446203797,0.00025170322746116035
1326.11368673152,1326.11368673152,1.000010964342129,0.0002517267108459114
1326.1206311380568,1326.1206311380568,1.0001286134653111,0.0002517357688848043
1326.1275755445927,1326.1275755445927,0.999820937932048,0.0002517424658824548
1326.134519951223,1326.134519951223,0.9995153519445701,0.0002517171631710367
1326.1414643578523,1326.1414643578523,0.9998224166151294,0.00025176130655274085
1326.1484087644826,1326.1484087644826,1.000224314334305,0.00025179682107496777
1326.155353171112,1326.155353171112,1.0008243723336874,0.00025187003434615386
1326.1622975776486,1326.1622975776486,1.000214398729795,0.00025180390224290966
1326.1692419842789,1326.1692419842789,0.9996582054567753,0.0002517287255341239
1326.1761863908148,1326.1761863908148,0.9995492792430625,0.0002517497915511099
1326.1831307973519,1326.1831307973519,1.0000277260198325,0.00025175844791988893
1326.1900752039815,1326.1900752039815,1.0001332401764191,0.0002517829150059007
1326.1970196105178,1326.1970196105178,0.9998024052224561,0.0002517709942859308
1326.203964017055,1326.203964017055,0.9998595585467838,0.00025177109572920166
1326.2109084236843,1326.2109084236843,1.0000729724988744,0.0002518108915641565
1326.2178528302215,1326.2178528302215,1.0003411639146953,0.0002518338099188743
1326.2247972367577,1326.2247972367577,1.0001733317172252,0.0002517967261474889
1326.2317416432943,1326.2317416432943,0.9998291222984064,0.00025175560643063346
1326.2386860498311,1326.2386860498311,1.000271238758459,0.00025179382298364813
1326.245630456367,1326.245630456367,0.9998172728297131,0.0002517668432989029
1326.2525748629046,1326.2525748629046,0.9997911840354903,0.00025179446470275014
1326.2595192694407,1326.2595192694407,0.999816645206975,0.0002518079280289988
1326.2664636759778,1326.2664636759778,1.0000694454824999,0.0002518140262710051
1326.2734080825144,1326.2734080825144,1.000175717498826,0.0002518221110908448
1326.2803524890508,1326.2803524890508,1.0001051873021063,0.000251818224626268
1326.2872968954944,1326.2872968954944,0.9996902654391915,0.0002517528950414995
1326.2942413020307,1326.2942413020307,1.0000834244321395,0.00025177628194403084
1326.3011857085673,1326.3011857085673,0.9999635830449526,0.0002518032219250013
1326.308130115011,1326.308130115011,1.000115008020232,0.00025181403255246474
1326.3150745214546,1326.3150745214546,0.9998298597529741,0.00025177802954538385
1326.322018927898,1326.322018927898,0.9998766084851072,0.0002517992648463363
1326.3289633344343,1326.3289633344343,1.0005115348984095,0.0002518590296101798
1326.3359077408786,1326.3359077408786,1.000170311210245,0.00025183501418263933
1326.3428521473218,1326.3428521473218,0.9999478466385538,0.0002518394943348373
1326.3503521063253,1326.3503521063253,0.9998751091253247,0.0002518144416328001
1326.3595187228232,1326.3595187228232,0.999658514500625,0.0002518460943911243
1326.3664631292668,1326.3664631292668,0.9999038586553791,0.0002519018136445246
1326.3734075356172,1326.3734075356172,1.0000177067076466,0.00025189640565286334
1326.3803519420603,1326.3803519420603,0.9998756412853531,0.00025192570220074716
1326.3872963485042,1326.3872963485042,1.000513835643731,0.0002520087071226602
1326.3942407549475,1326.3942407549475,0.999916378099314,0.0002519713427927036
1326.4011851612981,1326.4011851612981,1.0000288770333199,0.0002519757981549023
1326.4081295677413,1326.4081295677413,0.9997497051697822,0.00025197476799737855
1326.4150739740921,1326.4150739740921,1.0003770350361338,0.00025207025498616236
1326.422018380442,1326.422018380442,0.999925357447817,0.00025203678605921134
1326.4289627867925,1326.4289627867925,0.9998554262812631,0.00025202168565451174
1326.4359071932358,1326.4359071932358,0.99975306046783,0.0002520517263289633
1326.4428515994932,1326.4428515994932,0.9999718960063795,0.0002520564570022769
1326.4497960059368,1326.4497960059368,0.9998902864420327,0.00025209812932987924
1326.456740412194,1326.456740412194,1.0004204747712344,0.0002521416770339507
1326.4636848185444,1326.4636848185444,1.000094749372343,0.0002521099956128561
1326.4706292248015,1326.4706292248015,0.9999506205107316,0.0002521203807085344
1326.477573631152,1326.477573631152,0.9998581022511397,0.0002520973941970676
1326.4845180374093,1326.4845180374093,0.9999950644844752,0.00025213127876686663
1326.4914624437595,1326.4914624437595,1.0002837826986792,0.0002521725522212013
1326.4984068499239,1326.4984068499239,0.9996867958883702,0.0002520988052683683
1326.505351256367,1326.505351256367,0.9999362987229619,0.00025217931953014437
1326.5122956625314,1326.5122956625314,1.000097028847189,0.0002522180008893133
1326.5192400687883,1326.5192400687883,1.0001160137511094,0.0002522309877829677
1326.526184475046,1326.526184475046,1.000019619204405,0.00025224773186565216
1326.53312888121,1326.53312888121,1.000204820615169,0.0002522957090458507
1326.540073287467,1326.540073287467,0.9998889518414386,0.00025225954311482987
1326.5470176937245,1326.5470176937245,0.9996999910452699,0.00025230332740238895
1326.5539620998884,1326.5539620998884,1.0001753463570646,0.0002523566993238081
1326.5609065060523,1326.5609065060523,1.0000586739684554,0.0002523577663650478
1326.5678509122167,1326.5678509122167,1.0001920383462344,0.00025240571253100916
1326.574795318474,1326.574795318474,0.9999033159116649,0.00025236310867481516
1326.581739724545,1326.581739724545,0.9998415095010497,0.00025242389598355237
1326.5886841307088,1326.5886841307088,0.9995542709057345,0.00025236698519059367
1326.5956285368732,1326.5956285368732,1.000141775865924,0.00025244560593583006
1326.602572942944,1326.602572942944,1.0000486012581633,0.00025243377222217763
1326.609517349108,1326.609517349108,1.0000982130252591,0.0002524396324856575
1326.6164617551792,1326.6164617551792,0.9999808157124861,0.00025246213619208307
1326.62340616125,1326.62340616125,0.9999660169852085,0.0002524511610605504
1326.630350567321,1326.630350567321,1.00018894582286,0.0002524869939756623
1326.6372949733918,1326.6372949733918,0.9998885905509324,0.0002524593429749366
1326.644239379463,1326.644239379463,1.0001418707066239,0.0002524966161686724
1326.6511837855337,1326.6511837855337,1.00001121777738,0.00025248547223351715
1326.6581281915119,1326.6581281915119,0.9998850337010406,0.00025247559951555064
1326.6650725975828,1326.6650725975828,1.000247212315411,0.00025249122167787216
1326.6720170036538,1326.6720170036538,1.0001885990185584,0.0002525030867539391
1326.6789614095387,1326.6789614095387,0.9998633799726291,0.00025245544941949045
1326.6859058155164,1326.6859058155164,0.999707290130879,0.0002524434554444611
1326.693961326521,1326.693961326521,0.9999273002217848,0.0002524459511556355
1326.7011835085927,1326.7011835085927,0.9998127230876068,0.00025239083907804366
1326.7081279146637,1326.7081279146637,1.0001695044827825,0.0002524225087521557
1326.7156278730158,1326.7156278730158,1.0001705914844767,0.00025243904633519184
1326.7234056076475,1326.7234056076475,1.0000539684186114,0.0002523854470950164
1326.7303500136254,1326.7303500136254,1.000222458807492,0.0002523857723477032
1326.737294419417,1326.737294419417,0.999790537893797,0.000252321475295831
1326.744238825302,1326.744238825302,0.9999794750005627,0.0002523012952989637
1326.7511832310934,1326.7511832310934,0.999635148661889,0.0002522671967393571
1326.7581276369779,1326.7581276369779,0.9999300866117314,0.0002522872140637403
1326.7650720427696,1326.7650720427696,1.0000071018600813,0.0002522684892011142
1326.772016448654,1326.772016448654,1.0003759972757122,0.00025233371973395135
1326.7789608544458,1326.7789608544458,0.9999567582507451,0.00025226898024226945
1326.7859052603305,1326.7859052603305,1.0000227990566868,0.00025230942235523004
1326.7928496659358,1326.7928496659358,1.0003534392231228,0.0002523358294900935
1326.7997940717273,1326.7997940717273,0.9999153727848601,0.0002522640171358704
1326.806738477519,1326.806738477519,0.999844666422596,0.00025227656751425354
1326.8136828832173,1326.8136828832173,0.9997641837906365,0.00025227261524656366
1326.8206272890086,1326.8206272890086,1.0000195449023228,0.00025233879040140715
1326.827571694614,1326.827571694614,0.9999837436980655,0.00025230958618548707
1326.8345161003126,1326.8345161003126,0.999785333477823,0.0002522917495683561
1326.8414605060111,1326.8414605060111,1.0001099753415736,0.0002523380691990887
1326.8484049117096,1326.8484049117096,1.0001969539038154,0.0002523567210975067
1326.855349317315,1326.855349317315,0.9998816182260459,0.0002523072175494176
1326.86229372292,1326.86229372292,0.999596972594067,0.00025225940931875647
1326.869238128526,1326.869238128526,0.999999391938565,0.0002522807481223084
1326.8761825341312,1326.8761825341312,1.000117472100063,0.00025228455005463945
1326.883126939736,1326.883126939736,0.999725416553915,0.00025222700832214977
1326.8900713452485,1326.8900713452485,1.0000505001093352,0.0002522535274433181
1326.8970157508534,1326.8970157508534,0.9998104780923092,0.00025220976233116747
1326.9039601563659,1326.9039601563659,0.9996428720369585,0.00025211697315335665
1326.910904561878,1326.910904561878,1.0002119043535855,0.0002521729857256566
1326.9178489673902,1326.9178489673902,1.0000372327480176,0.0002521018363628467
1326.9247933728093,1326.9247933728093,1.0003809659276481,0.0002520958775967347
1326.9317377783213,1326.9317377783213,0.9997357891921441,0.00025198713061781616
1326.9386821837409,1326.9386821837409,1.0003207236229752,0.0002520476142221387
1326.9456265891592,1326.9456265891592,0.9997637093176218,0.00025195130595918414
1326.9525709946715,1326.9525709946715,0.9999297912011317,0.000251936260454758
1326.9595153999041,1326.9595153999041,0.9999628628573498,0.0002518881546586556
1326.966459805417,1326.966459805417,0.9998237038000382,0.0002518370874778831
1326.9734042106497,1326.9734042106497,0.9998133415500001,0.0002518436767866717
1326.9803486160683,1326.9803486160683,1.0005260038639345,0.0002518878139176611
1326.9872930213946,1326.9872930213946,1.0000453372201477,0.0002517846803032135
1326.9942374267202,1326.9942374267202,0.9995349055320902,0.00025172671106025584
1327.0011818320468,1327.0011818320468,1.0001851845931733,0.00025173759305592856
1327.0081262372792,1327.0081262372792,1.0001823539853967,0.0002517600481067178
1327.015070642512,1327.015070642512,1.000137308284317,0.0002517377442483431
1327.0220150478376,1327.0220150478376,0.9996675523321331,0.0002516987982901423
1327.0289594529772,1327.0289594529772,0.9999274704907408,0.0002516799342155888
1327.0359038582105,1327.0359038582105,1.0000851848644055,0.0002517401128077376
1327.0428482633497,1327.0428482633497,0.9997688057375859,0.0002517102091625579
1327.0497926685828,1327.0497926685828,1.0006577010807542,0.0002518262796972855
1327.0567370737222,1327.0567370737222,0.9998497016611527,0.00025172336304708656
1327.0645148074232,1327.0645148074232,0.9999741902489803,0.00025175534961329685
