time,time,flux,flux_err
1517.3647176237366,1517.3647176237366,1.0005725889621673,0.001962509471908941
1517.3742086109037,1517.3742086109037,1.000003030059561,0.0017513168921933285
1517.3811532361365,1517.3811532361365,0.9997421365436964,0.0017232954572126602
1517.3880978617426,1517.3880978617426,1.0000716237741205,0.0016979048637524973
1517.3953202727857,1517.3953202727857,0.9967341996074192,0.001671760698470856
1517.4033760392576,1517.4033760392576,1.0003610890667993,0.0016455321392463602
1517.4103206660275,1517.4103206660275,1.002318068523962,0.0016256723871312534
1517.41726529317,1517.41726529317,1.0020074728716788,0.0016057674130101032
1517.4242099205449,1517.4242099205449,0.9990116288391551,0.001587255924375297
1517.4311545483397,1517.4311545483397,1.001816836654668,0.0015717324410012463
1517.4380991763198,1517.4380991763198,0.9999353897482672,0.0015560868700837038
1517.4450438047197,1517.4450438047197,0.9982935595431401,0.0015418226741038671
1517.451988433352,1517.451988433352,0.9988140566050292,0.0015288607341173155
1517.4589330623571,1517.4589330623571,1.0013564745627372,0.0015181728018937794
1517.465877691688,1517.465877691688,1.0000879561803773,0.0015055286182475835
1517.4728223212521,1517.4728223212521,0.9987862283761437,0.001495981657849019
1517.4797669510485,1517.4797669510485,0.9983034548095105,0.0014860647243983259
1517.486711581218,1517.486711581218,1.0012029321062887,0.0014757196525020757
1517.4936562116666,1517.4936562116666,1.0004902364271218,0.0014665565547521313
1517.500600842394,1517.500600842394,1.0015753093950912,0.0014576269869516268
1517.5075454733553,1517.5075454733553,0.9995433373654923,0.0014493383328465276
1517.514490104549,1517.514490104549,0.9978661416867312,0.001440197779267538
1517.5214347360684,1517.5214347360684,0.9999627684621833,0.0014322156672317216
1517.528379367774,1517.528379367774,0.9996293209194504,0.001423866089872241
1517.5353239997596,1517.5353239997596,1.0018570947524947,0.0014164280589470583
1517.5422686319307,1517.5422686319307,0.9990929114117334,0.001408678694179183
1517.549213264382,1517.549213264382,1.0014124201570191,0.0014013232530676301
1517.5561578971124,1517.5561578971124,0.9991994892757556,0.0013946499981524589
1517.5631025300288,1517.5631025300288,0.9989882948655454,0.0013897291919843862
1517.5700471631317,1517.5700471631317,1.0019918379735646,0.0013827276420527764
1517.5769917965138,1517.5769917965138,0.9996667863115059,0.0013768202224507128
1517.5839364301291,1517.5839364301291,1.0000677861336678,0.0013711357595536176
1517.5908810637907,1517.5908810637907,0.9998120892044249,0.0013653510120978222
1517.5978256977783,1517.5978256977783,1.000314190027095,0.001360758460899974
1517.604770331952,1517.604770331952,0.9994352428159357,0.0013566770108257623
1517.6117149663119,1517.6117149663119,0.9988844563930044,0.0013524284429031175
1517.6186596009052,1517.6186596009052,0.9990247083139716,0.0013490838011831418
1517.6256042355915,1517.6256042355915,0.9998624136725878,0.0013440716247687834
1517.632548870603,1517.632548870603,1.0004493328824862,0.001342579984202705
1517.6394935057083,1517.6394935057083,0.9999653688737109,0.0013371109481620364
1517.6464381409999,1517.6464381409999,1.0005784722346995,0.0013349241907984494
1517.653382776431,1517.653382776431,1.0010966315066874,0.0013299536559830826
1517.6603274120953,1517.6603274120953,0.9957143875183941,0.001326820037269214
1517.667272047945,1517.667272047945,1.0018248523595445,0.0013226420113519586
1517.6742166838887,1517.6742166838887,0.9987422103720981,0.0013193315983342287
1517.6811613200182,1517.6811613200182,0.9991945919418661,0.0013152637657117652
1517.6881059563343,1517.6881059563343,1.0004581047071965,0.0013111291415609278
1517.6950505926966,1517.6950505926966,0.9995761560682705,0.0013071738262354945
1517.7019952293388,1517.7019952293388,0.999894935214051,0.0013032233156058675
1517.7089398660733,1517.7089398660733,1.0003221751199145,0.0013012690886227004
1517.715884502948,1517.715884502948,1.0001206339200996,0.0012971102439815246
1517.7228291399158,1517.7228291399158,1.001508680912502,0.001291476931490699
1517.7297737771169,1517.7297737771169,0.9988976491940456,0.0012874251243737967
1517.7367184144107,1517.7367184144107,0.9996150958781284,0.0012842956183383573
1517.7436630518441,1517.7436630518441,0.998723223982331,0.0012802026395013519
1517.7506076894172,1517.7506076894172,0.9994183151978928,0.0012770741034023008
1517.7575523270834,1517.7575523270834,0.9999878971663193,0.0012730844005570884
1517.7644969648895,1517.7644969648895,1.0001781421095868,0.001269287406594218
1517.7714416028352,1517.7714416028352,1.0014096818668936,0.0012658214459931128
1517.7783862409208,1517.7783862409208,1.0005720461588044,0.0012643234739374114
1517.7853308790059,1517.7853308790059,0.9985792971899494,0.0012594908503011579
1517.7922755172776,1517.7922755172776,0.9995125680984167,0.001255842124557782
1517.7992201557358,1517.7992201557358,1.0017299246886977,0.001252967909114671
1517.80616479424,1517.80616479424,0.998150503728278,0.0012496963849353453
1517.8131094328844,1517.8131094328844,0.9995478868504574,0.0012474971559271002
1517.8200540715752,1517.8200540715752,1.0006442380889589,0.0012440924523615252
1517.8269987103126,1517.8269987103126,0.9993539881193323,0.0012408079779721666
1517.8339433492827,1517.8339433492827,1.0005982796062554,0.001238545763124293
1517.8408879882995,1517.8408879882995,1.0018045260476554,0.0012374903875229716
1517.8478326274555,1517.8478326274555,1.0001029875840721,0.0012346096119518935
1517.8547772666125,1517.8547772666125,1.0000723360776878,0.001232741397152503
1517.861721905862,1517.861721905862,1.0011012652542621,0.0012305266349969268
1517.868666545251,1517.868666545251,0.9992585056347897,0.0012283738868485424
1517.8756111847338,1517.8756111847338,1.000150203366658,0.0012269882156691727
1517.8825558243552,1517.8825558243552,1.0004174608591545,0.0012240614329803116
1517.8895004639776,1517.8895004639776,0.998277510465479,0.0012216307635138444
1517.8964451036932,1517.8964451036932,1.0008277828481773,0.001221257850753317
1517.9033897435013,1517.9033897435013,0.9988981515996933,0.0012188224841154164
1517.9103343834026,1517.9103343834026,1.0005564088838008,0.001217526659186625
1517.9172790233508,1517.9172790233508,1.0022630418148593,0.0012159648838233797
1517.9242236633452,1517.9242236633452,0.9990357832129309,0.0012144673068690064
1517.9311683034796,1517.9311683034796,0.9992515366589096,0.001213587438402333
1517.9381129436606,1517.9381129436606,1.001245010303305,0.0012117469809271452
1517.9464465119615,1517.9464465119615,0.9998536584617217,0.0012108245885508778
1517.953391152282,1517.953391152282,0.9990760531931299,0.0012085158973011766
1517.960335792696,1517.960335792696,0.9997648150435067,0.001208388430314906
1517.9672804331558,1517.9672804331558,1.0007579338922494,0.0012072757580111298
1517.9742250737563,1517.9742250737563,1.0006267153991713,0.001206310619429596
1517.981169714356,1517.981169714356,0.9999718131470058,0.0012060801073800044
1517.988114354956,1517.988114354956,0.999714968544582,0.0012039033450749945
1517.995058995603,1517.995058995603,1.0008077609112944,0.0012037871537159558
1518.0020036363887,1518.0020036363887,1.0012479641921517,0.0012059919906420224
1518.0089482771753,1518.0089482771753,1.0000924675413718,0.0012011450573451246
1518.0158929181011,1518.0158929181011,0.9981054122936011,0.001200019510919096
1518.0228375589802,1518.0228375589802,1.0004580964542018,0.0012003411668329224
1518.0297821999532,1518.0297821999532,1.0009242351718868,0.00119898074959957
1518.0367268409723,1518.0367268409723,0.9985601084723126,0.0011974772354244176
1518.0436714820376,1518.0436714820376,0.9986643463427767,0.0011966610628638375
1518.0506161231963,1518.0506161231963,1.0000904075280799,0.0011963945361700226
1518.0575607644018,1518.0575607644018,1.0010748784896752,0.0011952996708873439
1518.06450540556,1518.06450540556,1.0011303581696196,0.0011943891530890828
1518.0714500468125,1518.0714500468125,0.9994012300199436,0.001193375172718421
1518.0783946881108,1518.0783946881108,0.9999228470190908,0.0011923138046914504
1518.0853393295024,1518.0853393295024,1.0004841334486065,0.001190257953863043
1518.0922839708473,1518.0922839708473,1.0017520484059712,0.0011903979237350836
1518.0992286122857,1518.0992286122857,0.9987527126840223,0.0011892358363287377
1518.1061732537232,1518.1061732537232,0.9991076860515717,0.0011892975635462307
1518.1131178952087,1518.1131178952087,1.000106278525014,0.0011883204073936066
1518.1200625367862,1518.1200625367862,1.0005839901403035,0.0011870140637918393
1518.1270071783642,1518.1270071783642,0.9986737395463898,0.001186031498208024
1518.1339518198959,1518.1339518198959,0.999938669606877,0.001185214140093843
1518.140896461613,1518.140896461613,0.9992255619110288,0.0011832318424293273
1518.1478411031908,1518.1478411031908,1.0004537717495001,0.001183266578710491
1518.154785744955,1518.154785744955,1.0006292378187769,0.0011827994047228963
1518.1617303867192,1518.1617303867192,0.9999715207451499,0.0011811396749162747
1518.168675028483,1518.168675028483,1.0000450251210855,0.0011808387682133545
1518.1756196702477,1518.1756196702477,1.001434474954307,0.001180253627840226
1518.1825643120114,1518.1825643120114,0.9995869927889656,0.0011785683406257406
1518.1895089537757,1518.1895089537757,0.9996558691035305,0.0011771855925683185
1518.1964535957727,1518.1964535957727,0.9998752175275424,0.00117734144647584
1518.2033982375829,1518.2033982375829,0.9979997343184035,0.00117604086216349
1518.2103428795338,1518.2103428795338,0.9997897748604737,0.0011756362088518606
1518.2172875214376,1518.2172875214376,1.0001514345074405,0.0011756622380814025
1518.224232163388,1518.224232163388,1.0020009679244288,0.0011758658754214967
1518.2311768053853,1518.2311768053853,0.9994084715814946,0.0011750999996185175
1518.2381214473821,1518.2381214473821,0.9996381085346233,0.0011744760415131309
1518.2450660893787,1518.2450660893787,0.9982220116685788,0.0011733201848217456
1518.2520107314226,1518.2520107314226,1.000891012139568,0.0011728113642577019
1518.2589553734663,1518.2589553734663,0.9990390715969311,0.0011731909206758333
1518.2664555869435,1518.2664555869435,0.9997473597012284,0.0011723755775574628
1518.274233585999,1518.274233585999,1.0008797249582222,0.001173370558137361
1518.281178228182,1518.281178228182,1.0014799047036722,0.0011714059182813367
1518.2881228702256,1518.2881228702256,0.9998838554572155,0.0011710081411671462
1518.2950675124089,1518.2950675124089,0.9997608104834518,0.0011702461738822242
1518.3020121545455,1518.3020121545455,0.9987728981165649,0.0011697729616774607
1518.3092345823993,1518.3092345823993,1.0010508759982855,0.0011700781297435511
1518.3172903672646,1518.3172903672646,0.9998993167442591,0.0011700989690787895
1518.3242350094479,1518.3242350094479,0.998603570051443,0.0011683116445999802
1518.331179651678,1518.331179651678,1.000868178914154,0.0011683616186571647
1518.3381242938608,1518.3381242938608,1.00146513531882,0.0011683101068822226
1518.345068936044,1518.345068936044,0.9994168966214936,0.0011669569272167873
1518.3520135782742,1518.3520135782742,0.9997905492123081,0.0011680146102922557
1518.358958220504,1518.358958220504,0.9993345856098479,0.0011665416213971016
1518.3659028627335,1518.3659028627335,1.001174274855677,0.0011660015088719032
1518.3728475049634,1518.3728475049634,0.9994479503163338,0.0011656563707587472
1518.3797921472394,1518.3797921472394,0.9996067352053564,0.0011657788274527562
1518.3867367894695,1518.3867367894695,0.9987806832453806,0.0011649958627874784
1518.3936814316992,1518.3936814316992,0.9996990852280654,0.0011644000438505928
1518.4006260739752,1518.4006260739752,1.0004218661285802,0.0011647970123530066
1518.407570716252,1518.407570716252,1.0016957826491621,0.0011637406507431585
1518.415626501304,1518.415626501304,1.0002911087828852,0.0011638334171249734
1518.422848929204,1518.422848929204,1.0012316984198275,0.0011629321845199898
1518.4297935714808,1518.4297935714808,1.0008783324004211,0.0011631549954956954
1518.436738213757,1518.436738213757,0.9997235527946202,0.0011612843144616935
1518.443682856033,1518.443682856033,0.9992287575197938,0.0011618055240327258
1518.450627498263,1518.450627498263,0.9988268566473989,0.0011605054624919252
1518.4578499262566,1518.4578499262566,0.9990400942188135,0.0011604462311196242
1518.4659057113083,1518.4659057113083,0.9990140164353003,0.0011597144939549061
1518.4728503535378,1518.4728503535378,1.0008462285137287,0.0011622276219490281
1518.4797949958142,1518.4797949958142,1.0027751431356198,0.001162427206114479
1518.4867396380907,1518.4867396380907,1.001846952446359,0.001161412740662029
1518.4936842803206,1518.4936842803206,0.9990646946861299,0.0011604045970050778
1518.5006289225503,1518.5006289225503,0.997484193833525,0.001159210497612394
1518.5075735648268,1518.5075735648268,0.9994494711491827,0.001161680454080548
1518.5145182070562,1518.5145182070562,1.0001572594298251,0.001159731719804913
1518.5214628493327,1518.5214628493327,0.9993295129506979,0.001160947191775092
1518.5284074915628,1518.5284074915628,1.0004007385124003,0.0011597330791103023
1518.535352133792,1518.535352133792,1.0006031988629824,0.0011604474552634888
1518.5422967759755,1518.5422967759755,1.001605680408065,0.0011600164989866693
1518.5492414182056,1518.5492414182056,1.0003508247435142,0.0011598527060434354
1518.556186060435,1518.556186060435,0.9994056855690564,0.0011591831206484362
1518.5631307026183,1518.5631307026183,0.9992640320603503,0.0011589500273753931
1518.5700753448014,1518.5700753448014,0.9994599179926686,0.0011597406031030799
1518.5770199869846,1518.5770199869846,0.9999444422757489,0.0011615753284703596
1518.583964629168,1518.583964629168,0.9997379396919168,0.0011587345935912677
1518.5909092713514,1518.5909092713514,0.9980853690093887,0.0011587528003681837
1518.5978539134876,1518.5978539134876,0.999738261405706,0.00115977023414927
1518.6047985556247,1518.6047985556247,0.9998645796116111,0.0011590517732175316
1518.6117431978075,1518.6117431978075,1.0005988464141247,0.0011602854099563764
1518.6186878398978,1518.6186878398978,1.0005943311210355,0.001158712949605189
1518.625632482034,1518.625632482034,1.0009300680837658,0.0011588566391462207
1518.6325771240781,1518.6325771240781,1.0006951675225855,0.0011596044298830418
1518.6395217662146,1518.6395217662146,0.9982201449034005,0.0011585283377585735
1518.6464664083046,1518.6464664083046,1.0015026777616003,0.0011594436327750268
1518.6534110503483,1518.6534110503483,0.99861517844849,0.0011601806540230083
1518.660355692438,1518.660355692438,1.0004509221726574,0.0011593164259848924
1518.6673003344354,1518.6673003344354,1.0007198181411494,0.0011603327028015756
1518.6742449764786,1518.6742449764786,0.9997432199715985,0.0011602365515103964
1518.6811896184759,1518.6811896184759,0.998699914467494,0.0011589971279730256
1518.6881342604725,1518.6881342604725,0.9997694546655858,0.001160476630491375
1518.6950789024693,1518.6950789024693,1.0000575275280899,0.0011597437270468446
1518.7020235444202,1518.7020235444202,0.9999985386401559,0.001159977345687491
1518.7089681863702,1518.7089681863702,1.0009041441349769,0.0011610158135829261
1518.7159128283206,1518.7159128283206,0.999158203958914,0.0011591093056260034
1518.7228574702247,1518.7228574702247,1.0007319511268602,0.0011599735991660934
1518.7298021121283,1518.7298021121283,1.0000260121497644,0.0011585988519582484
1518.7367467540323,1518.7367467540323,0.9999383916702824,0.0011596863626624377
1518.7436913958895,1518.7436913958895,1.000797058113175,0.0011597054974702183
1518.7506360377,1518.7506360377,0.9988604843247328,0.001160086941749802
1518.7575806796503,1518.7575806796503,0.9999904229973675,0.0011599025576486321
1518.7645253214146,1518.7645253214146,0.9999458739215669,0.0011591406463303902
1518.7714699631783,1518.7714699631783,1.0009835163549683,0.0011588727574132688
1518.778414604943,1518.778414604943,1.001581067852815,0.0011591440706733465
1518.7853592467068,1518.7853592467068,1.0015400576125004,0.0011596226981870443
1518.7923038884708,1518.7923038884708,0.9996843074520532,0.0011593581858337144
1518.7992485302352,1518.7992485302352,1.000070289213293,0.0011585718950997746
1518.806193171999,1518.806193171999,1.0001997824100635,0.0011603292942668252
1518.8131378135306,1518.8131378135306,0.9997536067048133,0.0011595863278655706
1518.8200824552946,1518.8200824552946,0.9989648841283396,0.001159454356580743
1518.8270270968726,1518.8270270968726,1.0003677948598446,0.0011595581275023934
1518.8339717385434,1518.8339717385434,1.0012943695614094,0.0011597168260982188
1518.8409163801214,1518.8409163801214,1.0013325614683184,0.0011594087726573478
1518.8478610216991,1518.8478610216991,0.9992395317142387,0.0011598763990707083
1518.8548056632771,1518.8548056632771,0.9988524918506128,0.0011587694779731051
1518.861750304808,1518.861750304808,1.000671228637525,0.0011597578549221207
1518.8686949463395,1518.8686949463395,1.0002768335717702,0.0011606664755772688
1518.875639587824,1518.875639587824,1.0001647526809578,0.0011603369538829788
1518.8825842293088,1518.8825842293088,0.9988199907839317,0.0011601842428794922
1518.8895288707474,1518.8895288707474,1.000048576573508,0.0011609235405173862
1518.8964735122315,1518.8964735122315,1.0005841342960367,0.0011596155677219503
1518.903418153577,1518.903418153577,1.0001162517773907,0.001159941983228739
1518.9103627949685,1518.9103627949685,1.0010165073059345,0.0011592752639504687
1518.91730743636,1518.91730743636,0.9989571011066503,0.0011595326482635642
1518.9242520776584,1518.9242520776584,0.9994611657116291,0.0011599989105914692
1518.931196719003,1518.931196719003,0.998983007597481,0.0011619257872658197
1518.9381413602555,1518.9381413602555,1.0007337931911897,0.0011617826567826344
1518.945086001507,1518.945086001507,1.0003462346690168,0.001160451192260601
1518.9520306428058,1518.9520306428058,1.0001336405709194,0.0011595040207267766
1518.9589752840113,1518.9589752840113,1.00068238705325,0.0011603405163510753
1518.9659199251698,1518.9659199251698,1.0000709335510405,0.0011599866503945095
1518.972864566375,1518.972864566375,0.9995360399080809,0.00115984214763354
1518.9798092074875,1518.9798092074875,0.9998901885662738,0.001160619497882954
1518.9867538485996,1518.9867538485996,0.9994636395042502,0.0011600837363874336
1518.993698489665,1518.993698489665,1.0002823775365048,0.0011596245397754643
1519.0006431307309,1519.0006431307309,0.9993224011515627,0.0011592996453637081
1519.0075877717497,1519.0075877717497,1.0010585455180843,0.0011596374914731858
1519.0145324128155,1519.0145324128155,1.0006077103557445,0.001159602383910399
1519.0214770537877,1519.0214770537877,1.0000584583445247,0.0011596518030702481
1519.0284216947139,1519.0284216947139,0.9990288882977152,0.0011591541529663233
1519.03536633564,1519.03536633564,1.0012746680211062,0.00115946357115564
1519.0423109765657,1519.0423109765657,0.9993681852978217,0.0011599328610745695
1519.0492556173983,1519.0492556173983,0.9994769979715699,0.0011601471256170793
1519.0562002582778,1519.0562002582778,0.9995975720999111,0.0011589198408969816
1519.063144899111,1519.063144899111,0.9995402784042643,0.001161218009053649
1519.0700895398966,1519.0700895398966,1.0001374605682747,0.001161062210688332
1519.0770341806365,1519.0770341806365,0.9997485885498729,0.0011598751231513007
1519.0839788213761,1519.0839788213761,1.0004149770832798,0.001160235257412174
1519.0909234621154,1519.0909234621154,1.0000968808233224,0.001160118310711486
1519.0978681028087,1519.0978681028087,1.0000144557092971,0.001160758782395603
1519.1048127434087,1519.1048127434087,0.9997755566798311,0.0011606045882388582
1519.1117573840088,1519.1117573840088,0.9989452859815412,0.001159636258295393
1519.1187020246084,1519.1187020246084,1.0003420271420809,0.0011599093264444641
1519.1256466652085,1519.1256466652085,0.9983708984249869,0.0011609679836511713
1519.1325913058085,1519.1325913058085,0.9995161442482552,0.0011599149631170498
1519.1395359461756,1519.1395359461756,1.0020024765358202,0.0011602334437881925
