time,time,flux,flux_err
1385.9574095259866,1385.9574095259866,1.0008377444842385,0.0005094980331812358
1385.9657429425722,1385.9657429425722,0.9993827867306783,0.0005093010615018601
1385.9733819074474,1385.9733819074474,0.998959709430169,0.0004645551839325937
1385.9803264210632,1385.9803264210632,1.0002212242740867,0.0004646202940649838
1385.9872709345868,1385.9872709345868,1.0003407291498898,0.00046469592839783246
1385.9942154478308,1385.9942154478308,1.0000175181443993,0.0004645500735008107
1386.0011599611669,1386.0011599611669,1.0005960760904935,0.000464580308673043
1386.0081044743179,1386.0081044743179,0.999919700376932,0.0004645633594555688
1386.0150489873754,1386.0150489873754,1.0001303691192538,0.0004645006840935053
1386.021993500246,1386.021993500246,0.999776189306919,0.0004647909834203499
1386.0289380132108,1386.0289380132108,1.0000217405454397,0.00046424643883066573
1386.0358825258031,1386.0358825258031,0.9991861569004378,0.00046451807601350015
1386.0428270387667,1386.0428270387667,1.0002037545052556,0.00046449688394453894
1386.0497715512656,1386.0497715512656,1.0003249257392777,0.000464486820696772
1386.0567160635785,1386.0567160635785,1.0002760318925648,0.0004646646793431384
1386.06366057617,1386.06366057617,1.0001787720071151,0.00046443705582006255
1386.070605088296,1386.070605088296,0.9999918250616734,0.000464539937667512
1386.0775496006088,1386.0775496006088,0.9995285320379061,0.0004641470565084998
1386.0844941127348,1386.0844941127348,0.999947863170491,0.0004648139335684826
1386.0914386246743,1386.0914386246743,0.9993497385649915,0.0004645295025367057
1386.0983831366145,1386.0983831366145,0.9996635666959548,0.00046420300424796136
1386.1053276484613,1386.1053276484613,1.0007238091421513,0.00046463643022171984
1386.1122721601212,1386.1122721601212,1.0004651395450952,0.00046451369865312537
1386.1192166717824,1386.1192166717824,1.0000013060283215,0.0004646053811495055
1386.1261611833497,1386.1261611833497,0.9997596229194,0.0004644703709328758
1386.1331056947304,1386.1331056947304,0.9999902057583665,0.00046463846067138225
1386.1400502060183,1386.1400502060183,1.0001342637527357,0.00046474747014250745
1386.146994717307,1386.146994717307,1.0011820549964519,0.00046507316530295593
1386.153939228408,1386.153939228408,1.0003683873622264,0.0004646500103914315
1386.16088373951,1386.16088373951,0.9988059489412654,0.0004647843942066431
1386.1678282504258,1386.1678282504258,0.9991622069516962,0.0004647043084732277
1386.1747727612476,1386.1747727612476,0.9999120586517198,0.0004648431815306761
1386.1817172720698,1386.1817172720698,1.0000119855647138,0.00046469456572195293
1386.1886617827993,1386.1886617827993,0.999687434401394,0.00046458353988103183
1386.1956062933423,1386.1956062933423,1.0012391569908634,0.0004649876572343567
1386.2025508037916,1386.2025508037916,0.9988115428510659,0.0004648270935905249
1386.2094953140556,1386.2094953140556,0.9999381159421242,0.0004647470188342019
1386.2164398243192,1386.2164398243192,1.0005357349002983,0.00046474762098493627
1386.223384334582,1386.223384334582,1.001333566149724,0.0004645247067127579
1386.230328844846,1386.230328844846,0.9996689248191007,0.000464742115905107
1386.2372733547377,1386.2372733547377,0.9991742918527553,0.00046452362075888597
1386.2442178647207,1386.2442178647207,1.000334286339858,0.00046479349093212955
1386.251162374519,1386.251162374519,0.9997392378044558,0.0004647328246981039
1386.258106884224,1386.258106884224,1.000054299185194,0.0004646155742992739
1386.2650513938352,1386.2650513938352,1.0000342650181622,0.0004646428274658721
1386.2719959034469,1386.2719959034469,0.9990975269704384,0.0004646492307954075
1386.2789404128723,1386.2789404128723,1.0008777589941797,0.0004646364879089964
1386.2858849222046,1386.2858849222046,1.0004867019699004,0.0004648894188605896
1386.2928294315363,1386.2928294315363,1.0000977404821303,0.00046464103182871903
1386.2997739405896,1386.2997739405896,1.0000105753547575,0.0004649156914319173
1386.3067184497359,1386.3067184497359,0.9995384734141028,0.0004649313818696134
1386.3136629586945,1386.3136629586945,0.9999940742384972,0.0004646072525649892
1386.3206074675613,1386.3206074675613,1.000132317578098,0.00046466227497630645
1386.3275519762421,1386.3275519762421,0.9989154900642546,0.0004645930387055343
1386.3344964850144,1386.3344964850144,0.9999803308649783,0.00046455570771197107
1386.3414409936024,1386.3414409936024,1.0006200132609977,0.00046441091189728165
1386.34838550219,1386.34838550219,0.9996435278366722,0.00046449236522447577
1386.3553300104973,1386.3553300104973,0.999781334261345,0.0004644715679614046
1386.3622745188982,1386.3622745188982,1.000954611455813,0.0004645178334900282
1386.3697745877478,1386.3697745877478,1.0002421585091787,0.0004645972510149051
1386.3775524368214,1386.3775524368214,1.0009571271230786,0.0004644939278989276
1386.3844969447564,1386.3844969447564,0.9999957039116769,0.00046433347471442845
1386.3914414526919,1386.3914414526919,0.9990971129242903,0.00046434617882060955
1386.3983859606276,1386.3983859606276,0.9998629647991585,0.0004641874606521511
1386.4053304684687,1386.4053304684687,0.9999619210147174,0.0004646793021511169
1386.4122749760318,1386.4122749760318,0.9990335614191246,0.0004642560371335848
1386.4192194835948,1386.4192194835948,0.9994053214213683,0.00046422092161831085
1386.4261639910635,1386.4261639910635,0.9999138351442374,0.00046439845014798424
1386.4331084984403,1386.4331084984403,1.0010869113432688,0.00046434594412083643
1386.4400530057242,1386.4400530057242,1.0010453679386075,0.00046446501695469606
1386.4469975129139,1386.4469975129139,0.9996398035254319,0.00046427460200621954
1386.4539420200108,1386.4539420200108,0.9994586640364329,0.0004643945420937376
1386.460886527015,1386.460886527015,1.000665377092519,0.0004640581577364356
1386.4678310339254,1386.4678310339254,0.999887448303323,0.00046426180038099465
1386.4747755408362,1386.4747755408362,0.9997941580008863,0.0004641975802888449
1386.4817200474677,1386.4817200474677,0.9996754068102301,0.00046408402687340646
1386.4886645540996,1386.4886645540996,1.0002420276837043,0.00046422377503059124
1386.4956090606368,1386.4956090606368,0.9994793504056798,0.00046411395949960357
1386.5025535670823,1386.5025535670823,0.9995516381166759,0.00046432924974790615
1386.5094980734345,1386.5094980734345,1.000120736870593,0.00046423232790655686
1386.5164425797864,1386.5164425797864,1.0005196700009038,0.00046421361646643004
1386.5233870859515,1386.5233870859515,1.0001235708869838,0.00046405164028630287
1386.5303315920248,1386.5303315920248,1.000250351860337,0.0004640244649470633
1386.537276097911,1386.537276097911,0.9998066746252349,0.0004640911210060627
1386.5442206039831,1386.5442206039831,1.0000443374710328,0.0004638596825286425
1386.5511651095908,1386.5511651095908,0.9996404634832505,0.000464499253988686
1386.5581096153842,1386.5581096153842,0.9998834685148281,0.00046412141875251217
1386.565331901401,1386.565331901401,1.001058364901958,0.0004639596302317288
1386.5733875275328,1386.5733875275328,0.9997921372955295,0.0004641226115759925
1386.58033203314,1386.58033203314,0.9991182419143302,0.00046406926001965105
1386.587276538374,1386.587276538374,0.9993708048648973,0.0004641023553282572
1386.5942210437013,1386.5942210437013,1.0002182898160512,0.0004639589370523152
1386.601165548843,1386.601165548843,1.0001778710967582,0.0004645544712544784
1386.608110053891,1386.608110053891,0.999276369834296,0.0004644076492704913
1386.6150545588453,1386.6150545588453,1.000290406731209,0.0004641577920396764
1386.6219990637078,1386.6219990637078,0.9999059422583306,0.00046436030046561363
1386.6289435684769,1386.6289435684769,1.000049267625964,0.00046433797168089893
1386.6358880732446,1386.6358880732446,1.0007865428690386,0.00046424099203574016
1386.642832577921,1386.642832577921,0.9989909498773241,0.000464078476802692
1386.6497770823173,1386.6497770823173,1.000320812305856,0.0004645379674618806
1386.6567215868058,1386.6567215868058,0.9989884479097799,0.00046435169056274604
1386.6636660911095,1386.6636660911095,0.9999827072867011,0.00046393279693608187
1386.6706105953194,1386.6706105953194,1.0012997028132264,0.00046389791188213594
1386.6775550995294,1386.6775550995294,1.0005295949003896,0.0004641966411725399
1386.6844996035525,1386.6844996035525,0.9990394795314879,0.000464165769229138
1386.6914441075764,1386.6914441075764,0.999978562203591,0.00046394698065664846
1386.6983886114144,1386.6983886114144,0.9996440078271442,0.00046393897228875857
1386.7053331152506,1386.7053331152506,1.0004024409348693,0.0004640196252278809
1386.7122776189021,1386.7122776189021,1.0005363996916414,0.00046402830718103957
1386.719222122461,1386.719222122461,1.000146988218369,0.00046396833673134516
1386.7261666261115,1386.7261666261115,0.9995564878751473,0.0004639647164349608
1386.7331111294832,1386.7331111294832,0.9998368422936247,0.00046401024008826475
1386.7400556327618,1386.7400556327618,1.0002132370827206,0.0004641210142632214
1386.747000136041,1386.747000136041,1.000376289792126,0.0004638141804613828
1386.753944639319,1386.753944639319,1.0002313625263457,0.0004644371753023957
1386.7608891422253,1386.7608891422253,0.9990088938022819,0.0004638731376059653
1386.7678336453182,1386.7678336453182,0.9988492691162449,0.0004639187593008874
1386.7750559282617,1386.7750559282617,1.0006643657182759,0.0004636012167315832
1386.7831115515062,1386.7831115515062,1.000304554869745,0.0004640046689737305
1386.7900560542264,1386.7900560542264,1.000791892225297,0.0004639419299021269
1386.7970005568527,1386.7970005568527,0.9992700979009834,0.0004638730646833658
1386.8039450593858,1386.8039450593858,1.0000367761798548,0.000464094739123894
1386.8108895617336,1386.8108895617336,1.0003104301767718,0.0004639639584761871
1386.8178340640814,1386.8178340640814,0.9998446290515044,0.00046405133163114544
1386.8247785663345,1386.8247785663345,1.0000082598347029,0.00046370390056107037
1386.8317230684963,1386.8317230684963,1.0010498750394476,0.0004638235099598982
1386.8386675705644,1386.8386675705644,1.0000256087028412,0.00046386473454254384
1386.8456120725384,1386.8456120725384,0.9991924619462942,0.0004639678565064455
1386.8525565744205,1386.8525565744205,1.0000212168439453,0.0004639254744400161
1386.8595010763024,1386.8595010763024,0.9992792926323897,0.00046373575566075603
1386.866445577998,1386.866445577998,0.9988261315827319,0.0004638774753752143
1386.8733900795992,1386.8733900795992,1.0012109305950057,0.0004640677201409566
1386.8803345811089,1386.8803345811089,1.0005428468534352,0.0004640112139123557
1386.887279082525,1386.887279082525,1.000839189099721,0.0004638399271393341
1386.8942235839404,1386.8942235839404,0.9997322247218353,0.0004639312626576679
1386.901168085077,1386.901168085077,0.999825449917115,0.0004641385191769342
1386.9081125864936,1386.9081125864936,1.0004287513028287,0.00046391830073346023
1386.915057087444,1386.915057087444,1.0002630171055293,0.0004641483119565367
1386.9220015883936,1386.9220015883936,0.9991866942826491,0.0004640152641192479
1386.928946089344,1386.928946089344,0.9992937964090716,0.0004641813450971911
1386.935890590295,1386.935890590295,0.9992204316805701,0.0004638091779334594
1386.9428350908722,1386.9428350908722,0.9999562965752279,0.00046400391338557296
1386.9497795915431,1386.9497795915431,1.000372027636834,0.00046428670078153545
1386.9567240921215,1386.9567240921215,1.0003466581449556,0.0004638098892676086
1386.963668592606,1386.963668592606,0.9999695998522696,0.0004640116530138775
1386.9706130929967,1386.9706130929967,1.0006439795793578,0.0004640583907744359
1386.9775575932956,1386.9775575932956,1.0004469267828724,0.00046392195750942933
1386.985335433429,1386.985335433429,0.999922384062414,0.0004635596739132082
1386.9928354936167,1386.9928354936167,1.0001174952484426,0.00046417792507129514
1386.9997799935425,1386.9997799935425,0.9995716779627912,0.0004641400834085511
1387.0067244935622,1387.0067244935622,0.9991941690611357,0.00046410970960250424
1387.013668993394,1387.013668993394,1.0002941318384329,0.0004640312425807699
1387.0206134931336,1387.0206134931336,1.0006082006371424,0.00046411995533351063
1387.0275579926877,1387.0275579926877,0.9992863796873503,0.0004642568979681684
1387.0345024923342,1387.0345024923342,1.0001188055254906,0.00046405990107570234
1387.0414469918871,1387.0414469918871,0.9997419102791041,0.00046439452894462126
1387.0483914911613,1387.0483914911613,1.0003363560109766,0.00046412920245195676
1387.0553359905284,1387.0553359905284,1.000009673529099,0.00046425019735674275
1387.062280489709,1387.062280489709,1.0013838859349222,0.00046448527699077336
1387.0692249888896,1387.0692249888896,0.9990607526691525,0.0004640351127793483
1387.0761694878845,1387.0761694878845,1.000300682869058,0.00046407584275901014
1387.0831139867864,1387.0831139867864,0.9991906006110348,0.00046404837266907024
1387.0900584857798,1387.0900584857798,0.9998443402566742,0.0004644182668354876
1387.0970029844025,1387.0970029844025,0.9991943966562508,0.0004639838451217417
1387.1039474830245,1387.1039474830245,1.0008707145315188,0.00046413201583294744
1387.1108919816465,1387.1108919816465,1.0008199800791484,0.0004640249291728928
1387.117836480268,1387.117836480268,1.000083009627263,0.00046401096902313414
1387.1247809787972,1387.1247809787972,0.9963801393165058,0.00046361731759076363
1387.1317254770477,1387.1317254770477,1.0000076965426925,0.0004638970635480547
1387.1386699752961,1387.1386699752961,0.99973368479662,0.0004640224941584637
1387.1456144735455,1387.1456144735455,0.9994835234281828,0.0004636571856014485
1387.1525589716093,1387.1525589716093,1.0006169879903606,0.0004638793079805248
1387.1595034695795,1387.1595034695795,1.0001974570591592,0.00046404032358693165
1387.1664479675487,1387.1664479675487,1.0009361449952558,0.0004639282046707164
1387.173392465333,1387.173392465333,1.000734436140928,0.0004639011632981741
1387.180336963024,1387.180336963024,0.9987430506283699,0.00046388913988701125
1387.1872814607145,1387.1872814607145,0.9980847456391182,0.0004640939990513424
1387.1942259582188,1387.1942259582188,1.000658143263689,0.0004638164281532347
1387.2011704557235,1387.2011704557235,1.0001096315845182,0.0004638544214574749
1387.2081149531352,1387.2081149531352,1.0001058299525796,0.00046396634438071677
1387.2150594503591,1387.2150594503591,0.9992313427231847,0.000463966667296614
1387.2220039475847,1387.2220039475847,1.0018143144446165,0.00046368398064691035
1387.228948444717,1387.228948444717,0.9998922163279577,0.0004644407640127427
1387.2358929417555,1387.2358929417555,1.0004403318616732,0.0004639962636186428
1387.2428374387941,1387.2428374387941,1.000004781517425,0.00046390139016096854
1387.2497819356468,1387.2497819356468,0.9992402434803376,0.0004638103623967912
1387.2567264324066,1387.2567264324066,0.9989993261478031,0.00046370936703089214
1387.2636709289789,1387.2636709289789,1.0008207885860498,0.00046411582776824866
1387.2706154257385,1387.2706154257385,1.000231088496013,0.00046392696139532666
1387.2775599220327,1387.2775599220327,1.000139032667175,0.0004639655203471302
1387.2845044187918,1387.2845044187918,0.9991307570689305,0.0004639743415140376
1387.291448915085,1387.291448915085,1.0000268267909709,0.0004640959569793274
1387.2983934113793,1387.2983934113793,1.0002976083006812,0.0004639597274122702
1387.3053379073008,1387.3053379073008,1.000320250867609,0.0004637930399141317
1387.3131157430557,1387.3131157430557,0.9998701607561319,0.0004636942491634795
1387.3217269179945,1387.3217269179945,1.0007874427121464,0.00046381100503444276
1387.3289491937678,1387.3289491937678,1.0003274888989198,0.00046410116054995427
1387.336727029058,1387.336727029058,0.999659031927969,0.00046416619359523393
1387.344227084403,1387.344227084403,0.9990006653104277,0.0004637416272040172
1387.3514493598038,1387.3514493598038,0.999157235264148,0.00046412562977241463
1387.3595049745732,1387.3595049745732,1.0007412224178367,0.00046414027334322266
1387.3664494700283,1387.3664494700283,1.0000567991014429,0.0004640829813113002
1387.373393965391,1387.373393965391,0.9995743355682289,0.0004637248529448585
1387.3803384605676,1387.3803384605676,0.9997672475090734,0.0004643163787593564
1387.38728295565,1387.38728295565,1.0009335341721972,0.00046401101251625123
1387.3942274508258,1387.3942274508258,1.0011034656608158,0.00046363297885638566
1387.401171945816,1387.401171945816,0.9997809012779308,0.0004640924560524055
1387.4081164407132,1387.4081164407132,0.9985445312811985,0.000463829180239425
1387.4150609355158,1387.4150609355158,1.0001994628568696,0.0004637795625636591
1387.4220054302266,1387.4220054302266,1.000284187259676,0.0004640774376021151
1387.4289499248446,1387.4289499248446,0.9997811251163038,0.0004638158841284264
1387.4358944194614,1387.4358944194614,1.0005378753297234,0.0004641885845081945
1387.4428389138925,1387.4428389138925,0.9999374939076675,0.0004640209872117853
1387.4497834083238,1387.4497834083238,1.0005271371791367,0.0004640110828537454
1387.4567279026621,1387.4567279026621,0.999130599845165,0.0004639687408555377
1387.463672396813,1387.463672396813,1.000005416851415,0.000463931754280886
1387.4706168910582,1387.4706168910582,1.0005454321501308,0.0004639793249769686
1387.4775613850238,1387.4775613850238,0.9996849713965108,0.00046381972408636826
1387.4845058789895,1387.4845058789895,0.9995931924070189,0.0004637368533485616
1387.4914503729538,1387.4914503729538,1.0011466392363313,0.0004637867373970922
1387.4983948666404,1387.4983948666404,0.9985459505842005,0.0004636719766318483
1387.5053393604198,1387.5053393604198,0.9998794966859567,0.0004641016945217742
1387.5122838539194,1387.5122838539194,1.000984369612267,0.00046373981983507007
1387.5192283475121,1387.5192283475121,1.0006027640602573,0.00046384438465385156
1387.5261728410119,1387.5261728410119,0.9988327969981267,0.0004634782468450124
1387.533117334326,1387.533117334326,0.9998641275806219,0.00046408409216595534
1387.5400618276387,1387.5400618276387,1.0001073345118716,0.00046337311873146796
1387.5470063207663,1387.5470063207663,1.000261841974341,0.00046371200939247803
1387.553950813987,1387.553950813987,1.0006572534917546,0.00046384960879057596
1387.5608953069282,1387.5608953069282,0.9992841742034843,0.00046344172504528
1387.5678397999613,1387.5678397999613,1.0005789672484344,0.00046382719653893
1387.5747842927162,1387.5747842927162,0.9999381318356155,0.0004635622952031274
1387.5817287855643,1387.5817287855643,0.9995432535523268,0.0004638647353932544
1387.588673278226,1387.588673278226,1.000180973901368,0.0004638377705112189
1387.595617770794,1387.595617770794,0.9996097834365874,0.0004638899895637397
1387.6025622633626,1387.6025622633626,0.9999689750657129,0.00046373165885441926
1387.6095067557453,1387.6095067557453,1.0005042202356158,0.0004639288125593536
1387.61645124822,1387.61645124822,0.9999394767288182,0.00046376431445419535
1387.6233957404158,1387.6233957404158,0.9995014314787328,0.00046373249991488234
1387.6303402326123,1387.6303402326123,1.0007067879490479,0.00046440012106338985
1387.6372847247153,1387.6372847247153,1.000370487712056,0.0004640284006839139
1387.6442292167242,1387.6442292167242,1.000553837789297,0.00046390637786645073
1387.651173708548,1387.651173708548,1.0005148077193824,0.00046384116442065764
1387.6581182005575,1387.6581182005575,0.9987519799526681,0.0004639217656107573
1387.665062692288,1387.665062692288,1.0002824981395584,0.0004637402580095598
1387.6720071839245,1387.6720071839245,1.0004127035066017,0.0004640059123255034
1387.6789516755618,1387.6789516755618,1.000080251118146,0.00046414133651175124
1387.6858961671064,1387.6858961671064,0.9994367553008445,0.0004635729016013326
1387.6928406583706,1387.6928406583706,0.9998108334947382,0.00046412546272143725
1387.699785149821,1387.699785149821,1.0008322548360638,0.0004638203612350623
1387.706729641086,1387.706729641086,0.9994120968177572,0.0004640409465820475
1387.7136741321647,1387.7136741321647,1.0016335025466845,0.0004637295399406042
1387.7206186233357,1387.7206186233357,0.9997370416459688,0.0004637881319200138
