time,time,flux,flux_err
1354.109584585973,1354.109584585973,1087.9202,6.7004285
1354.1109734722334,1354.1109734722334,1089.2048,6.7178545
1354.1137512447633,1354.1137512447633,1072.2388,6.6939454
1354.115140131042,1354.115140131042,1086.9127,6.712337
1354.1165290173237,1354.1165290173237,1086.691,6.70669
1354.1179179036162,1354.1179179036162,1096.605,6.727158
1354.1193067899123,1354.1193067899123,1086.5804,6.7183375
1354.1206956762164,1354.1206956762164,1088.2662,6.7225385
1354.122084562528,1354.122084562528,1095.9988,6.726561
1354.123473448846,1354.123473448846,1089.0865,6.7243648
1354.1248623351678,1354.1248623351678,1101.9601,6.731272
1354.1262512215,1354.1262512215,1098.2559,6.732389
1354.1276401078364,1354.1276401078364,1101.6238,6.73088
1354.1290289941805,1354.1290289941805,1092.8015,6.724398
1354.1304178805315,1354.1304178805315,1087.1228,6.71775
1354.1318067668892,1354.1318067668892,1095.6288,6.724767
1354.1331956532517,1354.1331956532517,1093.4315,6.725613
1354.1345845396243,1354.1345845396243,1088.1049,6.7174582
1354.135973426001,1354.135973426001,1094.6205,6.7261367
1354.1373623123848,1354.1373623123848,1089.0339,6.7187877
1354.1387511987748,1354.1387511987748,1091.9098,6.7325006
1354.1401400851698,1354.1401400851698,1080.5404,6.707784
1354.1415289715758,1354.1415289715758,1093.2059,6.723356
1354.142917857985,1354.142917857985,1084.4061,6.7148314
1354.144306744401,1354.144306744401,1088.4183,6.715852
1354.1456956308245,1354.1456956308245,1097.2389,6.724768
1354.1470845172523,1354.1470845172523,1093.7833,6.721854
1354.1484734036912,1354.1484734036912,1087.2527,6.7224393
1354.1498622901324,1354.1498622901324,1084.8507,6.718987
1354.1512511765811,1354.1512511765811,1092.2004,6.7206526
1354.152640063038,1354.152640063038,1089.8932,6.7288356
1354.1540289494988,1354.1540289494988,1084.6744,6.7129116
1354.1554178359659,1354.1554178359659,1074.8445,6.708265
1354.1568067224432,1354.1568067224432,1088.4167,6.717163
1354.158195608922,1354.158195608922,1094.9376,6.7294946
1354.1595844954118,1354.1595844954118,1087.3641,6.71103
1354.1609733819043,1354.1609733819043,1097.8245,6.731718
1354.1623622684044,1354.1623622684044,1093.4723,6.725809
1354.1637511549113,1354.1637511549113,1091.432,6.725226
1354.1651400414266,1354.1651400414266,1084.5292,6.711819
1354.1665289279456,1354.1665289279456,1093.3264,6.7224355
1354.1679178144702,1354.1679178144702,1098.3234,6.7320495
1354.1693067010028,1354.1693067010028,1085.6963,6.7157636
1354.1706955875436,1354.1706955875436,1087.5328,6.7115355
1354.172084474087,1354.172084474087,1093.438,6.7241626
1354.1734733606384,1354.1734733606384,1097.819,6.729911
1354.1748622471966,1354.1748622471966,1084.8855,6.7211266
1354.1762511337586,1354.1762511337586,1088.284,6.7169213
1354.1776400203282,1354.1776400203282,1089.7087,6.7203445
1354.1790289069043,1354.1790289069043,1089.9568,6.7200313
1354.1804177934887,1354.1804177934887,1094.5051,6.730203
1354.1818066800759,1354.1818066800759,1095.5162,6.7243304
1354.1831955666696,1354.1831955666696,1096.1622,6.7306504
1354.1845844532722,1354.1845844532722,1087.4863,6.7199287
1354.1859733398821,1354.1859733398821,1087.4371,6.7225947
1354.1873622264945,1354.1873622264945,1096.0842,6.7255354
1354.1887511131147,1354.1887511131147,1083.6562,6.7168484
1354.1901399997382,1354.1901399997382,1086.1749,6.7174354
1354.19152888637,1354.19152888637,1085.9685,6.71314
1354.1929177730087,1354.1929177730087,1091.2083,6.7275996
1354.1943066596534,1354.1943066596534,1086.6963,6.715575
1354.1956955463024,1354.1956955463024,1082.4039,6.71458
1354.1970844329596,1354.1970844329596,1092.5647,6.723745
1354.1984733196239,1354.1984733196239,1093.1993,6.7223063
1354.1998622062908,1354.1998622062908,1096.2043,6.727246
1354.2012510929649,1354.2012510929649,1091.635,6.7180724
1354.2026399796475,1354.2026399796475,1094.8716,6.7241516
1354.2040288663336,1354.2040288663336,1097.7166,6.7289996
1354.205417753026,1354.205417753026,1079.243,6.707017
1354.2068066397262,1354.2068066397262,1086.6287,6.7237687
1354.20819552643,1354.20819552643,1086.1633,6.7127843
1354.2095844131416,1354.2095844131416,1098.7656,6.7298107
1354.2109732998567,1354.2109732998567,1076.1134,6.7056594
1354.2123621865815,1354.2123621865815,1090.9767,6.7200036
1354.213751073307,1354.213751073307,1095.1893,6.72223
1354.215139960044,1354.215139960044,1090.7865,6.7235556
1354.216528846784,1354.216528846784,1084.8556,6.720206
1354.2179177335322,1354.2179177335322,1086.0298,6.7210617
1354.2193066202829,1354.2193066202829,1088.0232,6.7158914
1354.2206955070412,1354.2206955070412,1086.5629,6.713351
1354.2220843938073,1354.2220843938073,1083.7427,6.7090197
1354.2234732805766,1354.2234732805766,1086.1841,6.7267885
1354.2248621673527,1354.2248621673527,1085.9673,6.7208424
1354.226251054133,1354.226251054133,1089.7468,6.7193856
1354.2276399409202,1354.2276399409202,1090.1338,6.7170444
1354.2290288277156,1354.2290288277156,1092.1517,6.723836
1354.2304177145145,1354.2304177145145,1086.9237,6.71801
1354.23180660132,1354.23180660132,1094.3424,6.7251415
1354.2331954881327,1354.2331954881327,1093.1753,6.7229543
1354.2345843749492,1354.2345843749492,1083.4509,6.7152567
1354.23597326177,1354.23597326177,1095.6727,6.7308784
1354.2373621486015,1354.2373621486015,1093.9537,6.724506
1354.2387510354354,1354.2387510354354,1089.71,6.7222223
1354.2401399222738,1354.2401399222738,1081.2872,6.7153707
1354.24152880912,1354.24152880912,1082.6368,6.71568
1354.2429176959697,1354.2429176959697,1092.2455,6.7202435
1354.24430658283,1354.24430658283,1091.762,6.73545
1354.2456954696893,1354.2456954696893,1095.4269,6.724511
1354.247084356561,1354.247084356561,1095.4825,6.721984
1354.2484732434325,1354.2484732434325,1084.5929,6.715276
1354.2498621303146,1354.2498621303146,1088.5615,6.7229185
1354.2512510171998,1354.2512510171998,1076.3943,6.701979
1354.2526399040892,1354.2526399040892,1086.1556,6.713426
1354.2540287909862,1354.2540287909862,1095.3385,6.726481
1354.2554176778906,1354.2554176778906,1090.5564,6.7206316
1354.2568065647972,1354.2568065647972,1083.8596,6.7105503
1354.258195451712,1354.258195451712,1091.6868,6.7227507
1354.259584338631,1354.259584338631,1095.0815,6.7254405
1354.2609732255567,1354.2609732255567,1083.079,6.7109284
1354.2623621124865,1354.2623621124865,1097.3833,6.730496
1354.2637509994229,1354.2637509994229,1101.0508,6.733692
1354.265139886363,1354.265139886363,1088.4752,6.7227035
1354.266528773311,1354.266528773311,1096.9154,6.7294173
1354.2679176602621,1354.2679176602621,1087.3481,6.7115083
1354.2693065472206,1354.2693065472206,1083.9528,6.711868
1354.2706954341859,1354.2706954341859,1101.2222,6.73312
1354.2720843211553,1354.2720843211553,1085.9016,6.720769
1354.2734732081287,1354.2734732081287,1091.4974,6.7228985
1354.2748620951095,1354.2748620951095,1087.909,6.7155213
1354.2762509820934,1354.2762509820934,1098.1616,6.7286835
1354.2776398690842,1354.2776398690842,1091.2914,6.7267003
1354.2790287560827,1354.2790287560827,1085.1326,6.710949
1354.2804176430852,1354.2804176430852,1083.5986,6.7126355
1354.281806530091,1354.281806530091,1094.6909,6.720522
1354.2831954171031,1354.2831954171031,1092.2078,6.719803
1354.2845843041239,1354.2845843041239,1089.0132,6.7144356
1354.2859731911446,1354.2859731911446,1076.7013,6.7071195
1354.2873620781763,1354.2873620781763,1087.7367,6.723548
1354.2887509652112,1354.2887509652112,1100.9668,6.7284636
1354.2901398522488,1354.2901398522488,1087.4785,6.7180862
1354.291528739295,1354.291528739295,1089.6156,6.7200336
1354.292917626345,1354.292917626345,1093.7285,6.7188654
1354.294306513401,1354.294306513401,1097.1215,6.7318964
1354.295695400461,1354.295695400461,1096.8921,6.7272186
1354.2970842875254,1354.2970842875254,1103.4854,6.726004
1354.2984731745971,1354.2984731745971,1095.2474,6.7283483
1354.2998620616763,1354.2998620616763,1084.9438,6.712278
1354.3012509487578,1354.3012509487578,1092.5974,6.7318835
1354.3026398358431,1354.3026398358431,1083.6638,6.7120175
1354.3040287229367,1354.3040287229367,1087.3748,6.719985
1354.305417610037,1354.305417610037,1103.7554,6.741328
1354.3068064971378,1354.3068064971378,1094.9581,6.7261424
1354.3081953842454,1354.3081953842454,1082.1279,6.7034626
1354.30958427136,1354.30958427136,1090.4479,6.7283335
1354.3109731584793,1354.3109731584793,1089.5867,6.715893
1354.3123620456047,1354.3123620456047,1089.7781,6.7205377
1354.3137509327305,1354.3137509327305,1090.7119,6.729327
1354.315139819867,1354.315139819867,1106.4001,6.73003
1354.3165287070035,1354.3165287070035,1092.6102,6.7238803
1354.3179175941516,1354.3179175941516,1092.4585,6.72316
1354.3193064812997,1354.3193064812997,1088.333,6.716363
1354.3206953684546,1354.3206953684546,1096.4482,6.7336726
1354.3220842556168,1354.3220842556168,1102.1273,6.731561
1354.3234731427785,1354.3234731427785,1089.486,6.713515
1354.3248620299485,1354.3248620299485,1089.0435,6.7176633
1354.3262509171252,1354.3262509171252,1096.4337,6.7242556
1354.3276398043047,1354.3276398043047,1097.4968,6.735193
1354.3290286914892,1354.3290286914892,1092.2988,6.716599
1354.3304175786811,1354.3304175786811,1102.4447,6.7323446
1354.3318064658768,1354.3318064658768,1087.4668,6.7200007
1354.3331953530785,1354.3331953530785,1080.9431,6.711334
1354.3345842402834,1354.3345842402834,1089.8279,6.727112
1354.3359731274936,1354.3359731274936,1095.9156,6.7252526
1354.3373620147074,1354.3373620147074,1075.0374,6.702114
1354.338750901927,1354.338750901927,1091.9719,6.7244663
1354.3401397891541,1354.3401397891541,1092.4595,6.7178817
1354.3415286763861,1354.3415286763861,1090.7858,6.7205744
1354.3429175636218,1354.3429175636218,1080.1555,6.7023892
1354.3443064508608,1354.3443064508608,1086.4253,6.7185006
1354.3456953381058,1354.3456953381058,1090.4559,6.7218027
1354.347084225355,1354.347084225355,1088.8281,6.714869
1354.3484731126125,1354.3484731126125,1091.5131,6.7277837
1354.3498619998725,1354.3498619998725,1090.1589,6.723437
1354.3512508871365,1354.3512508871365,1087.4647,6.721408
1354.352639774404,1354.352639774404,1101.2021,6.7435484
1354.3540286616796,1354.3540286616796,1078.1611,6.7026453
1354.3554175489587,1354.3554175489587,1093.9667,6.7250414
1354.3568064362444,1354.3568064362444,1095.3413,6.7227926
1354.3581953235337,1354.3581953235337,1096.1327,6.7283797
1354.3595842108268,1354.3595842108268,1083.662,6.710675
1354.3609730981268,1354.3609730981268,1103.3174,6.739346
1354.3623619854316,1354.3623619854316,1097.2184,6.7216043
1354.36375087274,1354.36375087274,1094.5491,6.7217116
1354.3651397600509,1354.3651397600509,1088.3826,6.7143345
1354.3665286473695,1354.3665286473695,1086.1552,6.722086
1354.3679175346952,1354.3679175346952,1090.0242,6.7202115
1354.3693064220217,1354.3693064220217,1092.0735,6.7253556
1354.3706953093545,1354.3706953093545,1089.7102,6.7235527
1354.3720841966904,1354.3720841966904,1087.1973,6.717104
1354.3734730840315,1354.3734730840315,1079.3423,6.713706
1354.37486197138,1354.37486197138,1092.0444,6.7229795
1354.3762508587317,1354.3762508587317,1098.415,6.7313595
1354.3776397460865,1354.3776397460865,1080.2885,6.7068486
1354.3790286334481,1354.3790286334481,1095.0039,6.719274
1354.3804175208145,1354.3804175208145,1093.6816,6.7169113
1354.3818064081845,1354.3818064081845,1088.2966,6.7227836
1354.3831952955568,1354.3831952955568,1089.8624,6.7247763
1354.3845841829373,1354.3845841829373,1075.8467,6.6966553
1354.3859730703218,1354.3859730703218,1081.9934,6.708641
1354.38736195771,1354.38736195771,1100.21,6.731777
1354.3887508451055,1354.3887508451055,1085.7396,6.7399607
1354.3901397324996,1354.3901397324996,1097.0918,6.7240386
1354.3915286199056,1354.3915286199056,1097.4153,6.722618
1354.392917507312,1354.392917507312,1090.6128,6.72138
1354.3943063947252,1354.3943063947252,1097.6199,6.7251573
1354.395695282138,1354.395695282138,1088.7415,6.7222433
1354.3970841695584,1354.3970841695584,1082.8706,6.701619
1354.3984730569866,1354.3984730569866,1099.612,6.72518
1354.3998619444149,1354.3998619444149,1099.1643,6.7342477
1354.40125083185,1354.40125083185,1096.714,6.7302537
1354.4026397192881,1354.4026397192881,1084.0708,6.7171936
1354.404028606734,1354.404028606734,1087.4768,6.7097583
1354.40541749418,1354.40541749418,1087.6444,6.720517
1354.4068063816337,1354.4068063816337,1079.807,6.704141
1354.408195269091,1354.408195269091,1089.8142,6.722343
1354.409584156555,1354.409584156555,1083.4083,6.713097
1354.4109730440189,1354.4109730440189,1093.6505,6.7209334
1354.4123619314903,1354.4123619314903,1094.0175,6.722002
1354.4137508189658,1354.4137508189658,1087.4662,6.723678
1354.4151397064445,1354.4151397064445,1094.1927,6.7263966
1354.416528593926,1354.416528593926,1095.8246,6.721798
1354.417917481416,1354.417917481416,1086.7483,6.7153444
1354.4193063689097,1354.4193063689097,1097.4261,6.729392
1354.420695256407,1354.420695256407,1088.57,6.71633
1354.4220841439076,1354.4220841439076,1084.6761,6.7116914
1354.4234730314145,1354.4234730314145,1086.9854,6.712932
1354.4248619189264,1354.4248619189264,1090.0743,6.7178836
1354.4262508064382,1354.4262508064382,1092.5856,6.7175784
1354.4276396939597,1354.4276396939597,1087.3003,6.7146506
1354.429028581482,1354.429028581482,1073.4597,6.6993413
1354.4304174690085,1354.4304174690085,1094.5891,6.7187185
1354.4318063565422,1354.4318063565422,1086.1296,6.7150483
1354.4331952440796,1354.4331952440796,1092.0988,6.7231636
1354.4345841316192,1354.4345841316192,1075.8572,6.695042
1354.4359730191634,1354.4359730191634,1085.3663,6.712204
1354.4373619067153,1354.4373619067153,1085.7839,6.7097077
1354.4387507942668,1354.4387507942668,1092.4564,6.722184
1354.4401396818253,1354.4401396818253,1090.8638,6.714771
1354.4415285693874,1354.4415285693874,1083.9872,6.707086
1354.4429174569539,1354.4429174569539,1080.2908,6.7085223
1354.444306344524,1354.444306344524,1095.7146,6.724324
1354.445695232101,1354.445695232101,1084.861,6.71164
1354.4470841196778,1354.4470841196778,1100.647,6.7385306
1354.4484730072616,1354.4484730072616,1096.9951,6.723833
1354.4498618948494,1354.4498618948494,1077.0408,6.702096
1354.4512507824413,1354.4512507824413,1091.9241,6.724589
1354.452639670037,1354.452639670037,1086.7513,6.7132397
1354.4540285576393,1354.4540285576393,1090.4888,6.7224245
1354.4554174452414,1354.4554174452414,1078.9363,6.7144566
1354.4568063328509,1354.4568063328509,1089.8339,6.7213016
1354.4581952204646,1354.4581952204646,1087.606,6.7153006
1354.4595841080816,1354.4595841080816,1082.7253,6.7073097
1354.4609729957012,1354.4609729957012,1091.2817,6.7196646
1354.462361883326,1354.462361883326,1096.784,6.7215896
1354.4637507709579,1354.4637507709579,1092.5981,6.7205853
1354.4651396585898,1354.4651396585898,1093.9829,6.734046
1354.4665285462286,1354.4665285462286,1092.1587,6.7244887
1354.46791743387,1354.46791743387,1089.8363,6.718286
1354.4693063215166,1354.4693063215166,1091.3877,6.724363
1354.4706952091667,1354.4706952091667,1093.3834,6.7203526
1354.4720840968193,1354.4720840968193,1093.006,6.713225
1354.473472984476,1354.473472984476,1101.937,6.731497
1354.4748618721371,1354.4748618721371,1090.4578,6.718286
1354.4762507598057,1354.4762507598057,1084.0798,6.709393
1354.4776396474742,1354.4776396474742,1091.957,6.7235527
1354.4790285351485,1354.4790285351485,1093.5195,6.718757
1354.4804174228268,1354.4804174228268,1080.4927,6.7060914
1354.48180631051,1354.48180631051,1080.0876,6.7112346
1354.4831951981957,1354.4831951981957,1090.1538,6.719195
1354.4845840858854,1354.4845840858854,1086.3958,6.7159076
1354.4859729735783,1354.4859729735783,1104.8842,6.7355494
1354.4873618612796,1354.4873618612796,1082.2073,6.709325
1354.488750748981,1354.488750748981,1086.647,6.7132573
1354.4901396366847,1354.4901396366847,1095.1289,6.7248836
1354.4915285243962,1354.4915285243962,1083.184,6.7188487
1354.4929174121112,1354.4929174121112,1090.2646,6.721752
1354.4943062998261,1354.4943062998261,1091.5719,6.7127447
1354.495695187549,1354.495695187549,1092.7212,6.730269
1354.4970840752758,1354.4970840752758,1089.5723,6.721608
1354.4984729630053,1354.4984729630053,1088.1355,6.720804
1354.4998618507386,1354.4998618507386,1095.6677,6.721361
1354.5012507384752,1354.5012507384752,1096.451,6.726578
1354.5026396262165,1354.5026396262165,1089.2036,6.725608
1354.5040285139642,1354.5040285139642,1092.007,6.71846
1354.5054174017112,1354.5054174017112,1094.1823,6.7248416
1354.5068062894632,1354.5068062894632,1100.5131,6.728617
1354.5081951772227,1354.5081951772227,1090.1101,6.7159166
1354.5095840649822,1354.5095840649822,1093.7124,6.727485
1354.5109729527478,1354.5109729527478,1077.3123,6.696842
1354.512361840513,1354.512361840513,1087.9253,6.7195897
1354.513750728287,1354.513750728287,1098.8904,6.7270336
1354.5151396160647,1354.5151396160647,1082.0063,6.7077727
1354.5165285038445,1354.5165285038445,1089.6113,6.718248
1354.517917391625,1354.517917391625,1092.9888,6.7195225
1354.5193062794135,1354.5193062794135,1091.1272,6.718139
1354.5206951672055,1354.5206951672055,1094.0305,6.7275405
1354.5220840550012,1354.5220840550012,1092.0911,6.7180266
1354.5234729427991,1354.5234729427991,1097.5557,6.725185
1354.5248618306016,1354.5248618306016,1087.2465,6.715894
1354.5262507184082,1354.5262507184082,1092.0342,6.7162733
1354.5276396062175,1354.5276396062175,1087.1444,6.727169
1354.5290284940309,1354.5290284940309,1091.6338,6.718046
1354.5304173818479,1354.5304173818479,1091.656,6.7215962
1354.531806269669,1354.531806269669,1095.146,6.7216797
1354.5331951574938,1354.5331951574938,1097.1642,6.7285256
1354.5345840453217,1354.5345840453217,1084.7627,6.712893
1354.5359729331528,1354.5359729331528,1098.5637,6.7273645
1354.537361820988,1354.537361820988,1094.7291,6.7252502
1354.5387507088303,1354.5387507088303,1098.071,6.726586
1354.5401395966735,1354.5401395966735,1085.3331,6.717407
1354.54152848452,1354.54152848452,1086.1146,6.712308
1354.5429173723694,1354.5429173723694,1084.1644,6.7070494
1354.5443062602228,1354.5443062602228,1084.8414,6.7158103
1354.5456951480799,1354.5456951480799,1096.0048,6.7180285
1354.547084035941,1354.547084035941,1085.9573,6.712603
1354.5484729238085,1354.5484729238085,1086.1573,6.711157
1354.5498618116758,1354.5498618116758,1096.9894,6.723312
1354.551250699548,1354.551250699548,1088.2222,6.71566
1354.5526395874238,1354.5526395874238,1094.4484,6.725546
1354.554028475303,1354.554028475303,1095.6852,6.7239685
1354.5554173631856,1354.5554173631856,1082.766,6.7094526
1354.5568062510708,1354.5568062510708,1092.835,6.726845
1354.558195138961,1354.558195138961,1087.0232,6.7084026
1354.559584026855,1354.559584026855,1089.5242,6.714538
1354.5609729147511,1354.5609729147511,1095.3593,6.732122
1354.5623618026518,1354.5623618026518,1096.1332,6.731622
1354.5637506905566,1354.5637506905566,1085.0592,6.7173944
1354.565139578465,1354.565139578465,1093.2251,6.72366
1354.5665284663771,1354.5665284663771,1095.0071,6.719795
1354.5679173542915,1354.5679173542915,1091.5974,6.721563
1354.5693062422104,1354.5693062422104,1085.9873,6.718746
1354.5706951301297,1354.5706951301297,1102.5101,6.73014
1354.5720840180559,1354.5720840180559,1084.8655,6.7123694
1354.5734729059852,1354.5734729059852,1088.8124,6.7130303
1354.574861793915,1354.574861793915,1091.3185,6.716799
1354.5762506818526,1354.5762506818526,1095.6552,6.7261477
1354.5776395697937,1354.5776395697937,1091.1957,6.7124324
1354.5790284577345,1354.5790284577345,1100.8126,6.7270203
1354.5804173456786,1354.5804173456786,1082.8408,6.713299
1354.58180623363,1354.58180623363,1078.1353,6.6992044
1354.5831951215816,1354.5831951215816,1092.8754,6.720606
1354.5845840095374,1354.5845840095374,1097.6901,6.725145
1354.5859728974967,1354.5859728974967,1090.9644,6.7116284
1354.587361785463,1354.587361785463,1094.3927,6.7267056
1354.5887506734286,1354.5887506734286,1086.9159,6.720084
1354.5901395613985,1354.5901395613985,1082.8927,6.7104464
1354.5915284493688,1354.5915284493688,1084.3168,6.7048874
1354.5929173373459,1354.5929173373459,1090.4304,6.715678
1354.5943062253257,1354.5943062253257,1083.9153,6.7086596
1354.5956951133105,1354.5956951133105,1090.1226,6.7177277
1354.5970840012953,1354.5970840012953,1103.0751,6.7264905
