time,time,flux,flux_err
1325.3028809405243,1325.3028809405243,0.999882107890777,0.00012872726616222456
1325.3112145101088,1325.3112145101088,1.0001400585099083,0.0001287698903442933
1325.3195480795773,1325.3195480795773,0.9999678033195947,0.00012876788334744842
1325.3278816487734,1325.3278816487734,1.0001948291025922,0.00012879821015796455
1325.3355207538702,1325.3355207538702,1.0000803589810445,0.00011758105092778892
1325.3424653948673,1325.3424653948673,0.9998036604108822,0.00011758885212007279
1325.3494100356784,1325.3494100356784,1.0001265156660561,0.00011762331693880488
1325.3563546763958,1325.3563546763958,1.0001048976608637,0.00011764335930121812
1325.363299317067,1325.363299317067,1.000028983390902,0.00011766531720006474
1325.3702439575986,1325.3702439575986,0.9999458935830429,0.00011768453295518685
1325.3771885980364,1325.3771885980364,1.0000691477490524,0.00011772051344927023
1325.384133238475,1325.384133238475,1.0000064363542056,0.00011775299873258868
1325.3910778787272,1325.3910778787272,0.9998835253234345,0.00011778098075898233
1325.398022518979,1325.398022518979,1.0000590768403177,0.00011781749515724787
1325.4049671590915,1325.4049671590915,1.0000481251834406,0.00011784577919927061
1325.411911799157,1325.411911799157,0.9999030948156273,0.0001178726339671388
1325.4188564390831,1325.4188564390831,0.9998134091250849,0.00011790782374756167
1325.4258010790556,1325.4258010790556,1.0000219287708842,0.00011795341124571163
1325.4327457187956,1325.4327457187956,1.0002174551036014,0.0001180021284500366
1325.4396903585819,1325.4396903585819,1.0001066414923163,0.00011805076496970062
1325.4466349982285,1325.4466349982285,0.9999714213383049,0.00011807594969486254
1325.4535796378284,1325.4535796378284,0.999976510589266,0.00011811705521625616
1325.460524277289,1325.460524277289,0.9997955816156192,0.0001181614995793939
1325.467468916749,1325.467468916749,1.0000445729752798,0.00011820028506213522
1325.4744135561166,1325.4744135561166,1.0001180726874346,0.00011823508383115562
1325.4813581954372,1325.4813581954372,0.9999813850415412,0.00011826096257035605
1325.4883028346183,1325.4883028346183,0.9998740677637559,0.00011826474629880337
1325.495247473753,1325.495247473753,1.0001515600267765,0.00011828952942096057
1325.502192112794,1325.502192112794,1.0000108701880346,0.00011829199687115588
1325.509136751789,1325.509136751789,1.0000500590886834,0.0001182992705239546
1325.5160813906905,1325.5160813906905,0.9998466038525731,0.00011828913124310129
1325.523026029592,1325.523026029592,1.0000492726794468,0.0001183128478604448
1325.5299706682606,1325.5299706682606,1.0000544928662454,0.0001183087082107319
1325.5369153069294,1325.5369153069294,0.9999458283973016,0.00011831546013658788
1325.5438599455981,1325.5438599455981,0.9998064890310868,0.00011831288041689988
1325.5508045842673,1325.5508045842673,1.0000549905839784,0.00011833457076846409
1325.5577492227028,1325.5577492227028,1.0000682298536285,0.00011834172412203523
1325.5646938611856,1325.5646938611856,0.9999487764243536,0.00011833804295761708
1325.5716384994819,1325.5716384994819,1.0001149964494007,0.00011835687113689541
1325.578583137778,1325.578583137778,1.00002949675108,0.00011836510985188309
1325.585527776028,1325.585527776028,0.9999320909453313,0.0001183581647789171
1325.5924724142303,1325.5924724142303,1.0000698872707539,0.00011837864496051307
1325.5994170523409,1325.5994170523409,1.0000445015631079,0.00011837727796122264
1325.606361690311,1325.606361690311,1.0000956779693295,0.00011838576880175693
1325.6133063282812,1325.6133063282812,0.9999769744697871,0.00011838759809969705
1325.6202509662048,1325.6202509662048,0.9998462784316281,0.00011838817801217375
1325.627195603989,1325.627195603989,0.9998818670776973,0.00011839013022211342
1325.6341402418198,1325.6341402418198,0.9998779231145797,0.00011838234211776373
1325.6410848795106,1325.6410848795106,1.0001429494479404,0.00011839778818621777
1325.6480295172012,1325.6480295172012,0.9999742079030958,0.00011839926848256817
1325.6549741547526,1325.6549741547526,1.0001089393580156,0.00011840272628381931
1325.661918792257,1325.661918792257,1.0000921453560976,0.00011841032384353199
1325.6688634297618,1325.6688634297618,1.0000094884963693,0.000118401320547897
1325.6758080671266,1325.6758080671266,1.0001430773855442,0.0001184152365778198
1325.6827527044916,1325.6827527044916,1.0000091776454791,0.00011842109336009424
1325.6896973417636,1325.6896973417636,0.9999272807588104,0.0001184210552098524
1325.6966419789885,1325.6966419789885,0.9997906752134373,0.00011841829734606818
1325.7035866161211,1325.7035866161211,0.9998577545804499,0.00011843072659008576
1325.7105312532528,1325.7105312532528,1.000102897607825,0.00011845297404394085
1325.7174758902918,1325.7174758902918,0.9998635616426542,0.00011846085464575831
1325.724420527284,1325.724420527284,1.0001324689427364,0.00011849512699403298
1325.73136516423,1325.73136516423,0.9998760564594347,0.00011850045781043386
1325.7383098010826,1325.7383098010826,1.0001963876921707,0.00011853480725729565
1325.7452544378887,1325.7452544378887,1.0000562210476414,0.00011854819295694353
1325.7521990746015,1325.7521990746015,1.0000956358567765,0.00011857065682904149
1325.7591437113613,1325.7591437113613,1.000022024471269,0.00011858342948731277
1325.7660883479812,1325.7660883479812,0.9999269163120029,0.00011860877253048458
1325.7730329845544,1325.7730329845544,1.0000630971925406,0.00011863875617680085
1325.779977621081,1325.779977621081,0.9999297138036045,0.00011865638429439626
1325.7869222575614,1325.7869222575614,0.9998165810839362,0.00011867837313966957
1325.7938668939018,1325.7938668939018,0.9999839452695592,0.00011871968162053977
1325.8008115302423,1325.8008115302423,0.9999624679694439,0.00011874187052276048
1325.807756166583,1325.807756166583,1.0001495921420518,0.00011877028117102287
1325.8147008029232,1325.8147008029232,0.9999942558375958,0.00011878509571529006
1325.8216454390774,1325.8216454390774,1.0000023725359117,0.00011880354868371444
1325.8285900752317,1325.8285900752317,0.9998576259626748,0.00011881354762569265
1325.8355347113393,1325.8355347113393,1.0000776569134497,0.00011884184677559769
1325.842479347354,1325.842479347354,1.000034228240463,0.00011885953468414345
1325.8494239833683,1325.8494239833683,1.0000095576254096,0.00011885932504518282
1325.8563686192895,1325.8563686192895,1.0000573488311972,0.00011888043044230563
1325.8633132551645,1325.8633132551645,1.0000428098378777,0.00011888619215917198
1325.870257890993,1325.870257890993,1.0000354674154792,0.00011888403705501854
1325.8772025267742,1325.8772025267742,1.0000941773161702,0.00011888792552368444
1325.884147162463,1325.884147162463,0.9998520515179399,0.0001188738290098195
1325.8910917981516,1325.8910917981516,0.9999636980204059,0.00011887607400932088
1325.898036433747,1325.898036433747,0.999860322362799,0.00011886926204955842
1325.9049810693423,1325.9049810693423,1.0000445603489105,0.00011887778046973901
1325.9119257048446,1325.9119257048446,0.9998964936601965,0.0001188715703512932
1325.9188703403001,1325.9188703403001,0.9999865083685784,0.00011888134617666793
1325.9258149757093,1325.9258149757093,1.0000928412982275,0.00011889468002061075
1325.9327596111186,1325.9327596111186,1.0001277360282477,0.00011889387093168414
1325.9397042463413,1325.9397042463413,1.0000007977322511,0.00011889140643303584
1325.9466488817038,1325.9466488817038,0.9999737332058235,0.00011889238452394224
1325.9535935169272,1325.9535935169272,0.99989048864191,0.00011889757374802833
1325.9605381521033,1325.9605381521033,1.0000219527495962,0.00011891606495217267
1325.9685939287215,1325.9685939287215,0.9999359641790377,0.0001189239923435718
1325.9758163492584,1325.9758163492584,0.9998870739858547,0.00011894011149855012
1325.9827609842018,1325.9827609842018,0.999969440813501,0.00011895308481575073
1325.9897056191917,1325.9897056191917,1.0000231936910149,0.0001189748633286458
1325.996650254042,1325.996650254042,1.0001605689567206,0.00011900264140346196
1326.0035948889392,1326.0035948889392,1.0000298799407106,0.0001190149882798938
1326.0105395237429,1326.0105395237429,0.999948868436948,0.00011902629435948328
1326.0174841585,1326.0174841585,0.9999103482002132,0.00011905567112569548
1326.024428793211,1326.024428793211,0.999936306254168,0.0001190897939490263
1326.0313734278748,1326.0313734278748,0.9998921834510865,0.00011911475224028799
1326.038318062539,1326.038318062539,1.0001904345937738,0.0001191417056267223
1326.045262697063,1326.045262697063,1.0000303572821183,0.00011914245035686345
1326.0522073315879,1326.0522073315879,1.0000453630022592,0.00011915958654253042
1326.0591519660652,1326.0591519660652,0.9999484138102399,0.00011916804801001585
1326.0660966004968,1326.0660966004968,1.000021358143934,0.00011918936142261258
1326.0730412348348,1326.0730412348348,1.000094688664565,0.00011921020867296413
1326.0799858691728,1326.0799858691728,0.9998102733832651,0.00011921075295807902
1326.0869305034646,1326.0869305034646,1.0001677476922732,0.00011924734819335149
1326.0938751377096,1326.0938751377096,1.0001704571470529,0.0001192662316153958
1326.1008197719082,1326.1008197719082,0.99977260833705,0.00011925825250678293
1326.1077644059671,1326.1077644059671,0.9999178937008006,0.00011928443611245254
1326.1147090402114,1326.1147090402114,0.9999767195564153,0.00011929148919668088
1326.1216536742238,1326.1216536742238,1.0000037787840252,0.00011931664479604149
1326.1285983082357,1326.1285983082357,0.9997272020822365,0.00011930753977807695
1326.1355429421553,1326.1355429421553,1.0000198810988037,0.00011933137330778783
1326.1424875760272,1326.1424875760272,1.0000404677238202,0.00011934841663639743
1326.1494322099002,1326.1494322099002,1.0000064838478717,0.00011936107103572397
1326.1563768437259,1326.1563768437259,1.00008594100103,0.00011937218998458044
1326.1633214775052,1326.1633214775052,1.0003798101511414,0.00011940522207984168
1326.170266111238,1326.170266111238,0.9999870550931954,0.0001194001239309898
1326.177210744924,1326.177210744924,0.999917445964676,0.00011939349062422616
1326.184155378564,1326.184155378564,0.9999726802798478,0.00011940879282086505
1326.1911000121568,1326.1911000121568,1.000001561679415,0.00011941563066679019
1326.1980446457032,1326.1980446457032,0.9999225827964642,0.00011942591085677044
1326.204989279157,1326.204989279157,1.0000332681837405,0.00011944008189896304
1326.2119339127034,1326.2119339127034,0.9997593905937222,0.00011943902268285788
1326.218878546017,1326.218878546017,0.9999871147922736,0.0001194615933916099
1326.2258231794704,1326.2258231794704,1.0001607949585003,0.0001194768417902379
1326.2327678127374,1326.2327678127374,1.0001167196512604,0.00011949371864888999
1326.2397124460508,1326.2397124460508,1.0000277138252525,0.00011948896231041891
1326.2466570793179,1326.2466570793179,1.0000315873856178,0.00011950418931683646
1326.253601712446,1326.253601712446,1.0000415284977464,0.00011951714423251135
1326.260546345573,1326.260546345573,0.9999873058659503,0.00011951654727307538
1326.2674909787006,1326.2674909787006,1.000036699618342,0.00011953281007150019
1326.2744356117814,1326.2744356117814,0.9999035501366567,0.00011952411196299549
1326.2813802448156,1326.2813802448156,0.9998233574566575,0.00011953409020069587
1326.2883248777102,1326.2883248777102,0.9997169624315247,0.00011953603757303224
1326.2952695106512,1326.2952695106512,1.0001842685354545,0.00011957213951891766
1326.302214143639,1326.302214143639,0.9999970212355581,0.00011957466895233816
1326.3091587764868,1326.3091587764868,1.000211418460255,0.00011959174462144316
1326.3161034091022,1326.3161034091022,1.0000383776468498,0.00011959532512081957
1326.3230480419502,1326.3230480419502,1.0001517993883096,0.0001196217940283863
1326.3299926746117,1326.3299926746117,0.9999784747322675,0.00011962687655757355
1326.3369373072737,1326.3369373072737,0.9998491667032143,0.00011963557472036085
1326.3438819399355,1326.3438819399355,0.9999534929423375,0.00011965995781701928
1326.3519377137134,1326.3519377137134,1.0000452925594776,0.00011969221062360777
1326.3605490580253,1326.3605490580253,1.0000316922121102,0.00011972462845346124
1326.3674936904547,1326.3674936904547,0.9998233132219573,0.00011974131580370876
1326.37443832293,1326.37443832293,1.000015747395145,0.00011976260036358709
1326.3813829553123,1326.3813829553123,1.0000639633905481,0.00011980235248005452
1326.388327587648,1326.388327587648,1.0001313162950765,0.00011981790053019979
1326.3952722198906,1326.3952722198906,1.0000381460225822,0.00011984077176626009
1326.4022168521801,1326.4022168521801,0.999973250036929,0.00011985092492846302
1326.4091614844224,1326.4091614844224,0.9999815826297432,0.00011987040907358616
1326.4161061165728,1326.4161061165728,0.9998018248898501,0.00011989251204637139
1326.423050748675,1326.423050748675,0.9999888439862769,0.0001199189079974648
1326.429995380778,1326.429995380778,0.9999364299587773,0.000119936809312091
1326.4369400128344,1326.4369400128344,0.99999818803665,0.0001199647613528253
1326.443884644798,1326.443884644798,1.0000519976981643,0.00011998989734299646
1326.450829276761,1326.450829276761,1.0000982125369466,0.00012001199912780279
1326.4577739087242,1326.4577739087242,1.0002294009924635,0.00012003621702570257
1326.4647185405945,1326.4647185405945,1.000187010465786,0.0001200606614690335
1326.4716631723713,1326.4716631723713,0.9997046530587687,0.00012006100609319995
1326.4786078042412,1326.4786078042412,0.999987436088662,0.00012009160025689973
1326.4855524359257,1326.4855524359257,0.9999803910789218,0.00012011369867369014
1326.492497067609,1326.492497067609,1.000032283311516,0.00012014240281235055
1326.4994416992934,1326.4994416992934,0.9998838078601342,0.00012014840216441377
1326.5063863309765,1326.5063863309765,0.9996923900064802,0.00012017196729250934
1326.5133309624282,1326.5133309624282,1.00014603415815,0.00012021763554612264
1326.5202755940186,1326.5202755940186,1.0001350549505381,0.00012024427548785999
1326.5272202255164,1326.5272202255164,1.000205341315032,0.00012026956286059923
1326.5341648569208,1326.5341648569208,0.9999808064658549,0.0001202874293091179
1326.5411094883716,1326.5411094883716,1.0000754711774922,0.00012032635195657003
1326.5480541197298,1326.5480541197298,0.9999610067416638,0.00012035944204444188
1326.554998751041,1326.554998751041,1.0000380992504347,0.00012039687707629177
1326.561943382306,1326.561943382306,0.9997350136564187,0.00012040122412511623
1326.5688880135706,1326.5688880135706,0.9998996011419654,0.00012043078584655298
1326.5758326447421,1326.5758326447421,1.000112153735845,0.00012045348636995448
1326.5827772759142,1326.5827772759142,1.0000055670648893,0.0001204797003828993
1326.589721907039,1326.589721907039,0.9999787083279459,0.00012049643629487626
1326.596666538071,1326.596666538071,1.000009203721779,0.00012051629489326495
1326.6036111691028,1326.6036111691028,1.0002348034384925,0.00012054689197624416
1326.6105558000882,1326.6105558000882,0.9999415855730092,0.00012054918435149505
1326.6175004310273,1326.6175004310273,1.0000274302878505,0.00012057036628147725
1326.624445061919,1326.624445061919,0.9998661154751856,0.00012059086292788462
1326.6313896928116,1326.6313896928116,0.9999540349651348,0.00012060562263623822
1326.6383343236103,1326.6383343236103,0.9998964674432408,0.00012061914660560539
1326.6452789544098,1326.6452789544098,1.0000704046676425,0.000120641146626056
1326.6522235851623,1326.6522235851623,0.999849070139474,0.00012062386408398499
1326.6591682158682,1326.6591682158682,1.0002520318672778,0.00012064777179124718
1326.6661128464345,1326.6661128464345,1.000155235586283,0.00012064336158644133
1326.6730574771868,1326.6730574771868,0.9999585031917594,0.00012063748959362553
1326.680002107707,1326.680002107707,0.9999017588832079,0.00012062815631977297
1326.6869467382262,1326.6869467382262,1.000077342961632,0.00012063058094167575
1326.6952802948501,1326.6952802948501,0.9999413244122032,0.00012061868503909742
1326.7022249251836,1326.7022249251836,1.0000281695471418,0.00012061456542443588
1326.7091695556567,1326.7091695556567,0.9998419185269103,0.00012060630356369247
1326.716947541606,1326.716947541606,0.999951554356383,0.0001205983054050955
1326.7244477423349,1326.7244477423349,1.0000935192575182,0.00012059922062214962
1326.7313923725746,1326.7313923725746,0.9998868363650345,0.00012058645475682038
1326.7383370028151,1326.7383370028151,0.9999350103799175,0.00012058501526940577
1326.7452816330556,1326.7452816330556,1.0001742268191152,0.00012059301244403705
1326.752226263156,1326.752226263156,1.0000430439663508,0.00012059610037208621
1326.7591708932564,1326.7591708932564,1.000143256176328,0.00012059319498498686
1326.7661155233104,1326.7661155233104,1.0001177118793623,0.00012058807424889783
1326.773060153318,1326.773060153318,0.9999165228972904,0.0001205863989137305
1326.7800047832789,1326.7800047832789,1.000012482073465,0.00012059455862727393
1326.7869494132399,1326.7869494132399,1.000099372041101,0.00012061342316758838
1326.793894043108,1326.793894043108,1.0000566239706168,0.00012062408387246249
1326.8008386729755,1326.8008386729755,0.9999639039686199,0.00012063198618749533
1326.8077833027505,1326.8077833027505,0.999811732175402,0.00012063560591608114
1326.8147279325713,1326.8147279325713,1.000075151009995,0.00012066968027526072
1326.8216725622528,1326.8216725622528,1.0000896830791948,0.00012068027293121494
1326.8286171919342,1326.8286171919342,0.9996298719027038,0.00012066193639691421
1326.835561821616,1326.835561821616,1.00002528431708,0.00012069671347717422
1326.8425064512044,1326.8425064512044,1.0000951785446124,0.0001207113822875343
1326.8494510807461,1326.8494510807461,1.000262585089222,0.00012071295595284147
1326.8563957103345,1326.8563957103345,0.9999471423191693,0.00012070525107427704
1326.8633403397366,1326.8633403397366,1.0000230448742657,0.00012069654300147542
1326.8702849692786,1326.8702849692786,1.0000293486842697,0.00012068785818482369
1326.8772295986341,1326.8772295986341,0.9997715567724136,0.00012066130070476627
1326.8841742279897,1326.8841742279897,0.9999233733798232,0.00012065680501751401
1326.8911188573452,1326.8911188573452,1.000126467050346,0.00012063624299825504
1326.8980634865143,1326.8980634865143,0.9999631279498956,0.00012061312464850562
1326.9050081158239,1326.9050081158239,1.0002761846882162,0.00012059210468874282
1326.9119527449461,1326.9119527449461,0.9999293207148284,0.00012054580215361314
1326.918897374162,1326.918897374162,0.9998269310919671,0.00012050304440809707
1326.9258420032384,1326.9258420032384,1.0000929216999768,0.0001204829288068145
1326.932786632361,1326.932786632361,0.9997649244129461,0.00012042069619552118
1326.9397312613441,1326.9397312613441,0.9997663802744796,0.00012039341522840045
1326.9466758903268,1326.9466758903268,1.0001243182254975,0.0001203757249845319
1326.9536205193103,1326.9536205193103,1.0001215394925533,0.00012034084643066575
1326.9605651481997,1326.9605651481997,1.0000056981550052,0.0001203088722525063
1326.9675097770437,1326.9675097770437,0.9999911898596727,0.00012027801005808634
1326.9744544058867,1326.9744544058867,0.9998973450555022,0.00012025111211652797
1326.9813990347297,1326.9813990347297,0.9998393944109853,0.00012023214895304499
1326.9883436633872,1326.9883436633872,1.000130985797722,0.00012022129331851303
1326.9952882921375,1326.9952882921375,1.0000096786708326,0.00012021105373012158
1327.0022329207477,1327.0022329207477,0.9999559451947236,0.00012019588884222406
1327.009177549405,1327.009177549405,1.0000720902076485,0.00012019810227666544
1327.0161221779686,1327.0161221779686,1.0000094637858754,0.00012020009040224605
1327.0230668065328,1327.0230668065328,0.9999077021789013,0.00012018681561338794
1327.0300114350034,1327.0300114350034,1.0000996154830424,0.00012020290633597155
1327.0369560634745,1327.0369560634745,0.9998732188624107,0.00012019714285105487
1327.0439006918982,1327.0439006918982,1.0000369888534175,0.00012021737470921918
1327.0508453202297,1327.0508453202297,0.9999161889047736,0.00012021641621385136
1327.0577899486073,1327.0577899486073,0.999976517112219,0.00012023577228973138
