time,time,flux,flux_err
1468.279358538287,1468.279358538287,0.9959240201101626,0.004396816706491743
1468.2869976484362,1468.2869976484362,0.9952933115994872,0.004010983700187682
1468.29394229393,1468.29394229393,0.996905584073285,0.004014887745345318
1468.3008869392845,1468.3008869392845,1.0003916620196271,0.004021454459808558
1468.3078315845928,1468.3078315845928,1.0036858410664835,0.004018805902583378
1468.3147762298076,1468.3147762298076,1.0042316656419348,0.004013949920146953
1468.3217208749288,1468.3217208749288,1.00239832515931,0.004015245652747754
1468.328665519911,1468.328665519911,1.008012568454466,0.004027554417832957
1468.3356101648465,1468.3356101648465,0.9998144282234964,0.00401287717443582
1468.3425548096889,1468.3425548096889,0.9973607913789075,0.00401122070059466
1468.3494994543912,1468.3494994543912,1.0035104331994034,0.0040193202254265965
1468.3564440990936,1468.3564440990936,1.0014228519953672,0.0040192617566426675
1468.3633887436567,1468.3633887436567,1.0009314692747284,0.004011094306605902
1468.37033338808,1468.37033338808,0.9985489202186729,0.004018369910501791
1468.3772780325028,1468.3772780325028,1.0011911792041408,0.004016107660739346
1468.393945178494,1468.393945178494,1.0084479012678254,0.004007255657022079
1468.4008898226384,1468.4008898226384,1.0014878500562043,0.004010616310791974
1468.4078344665963,1468.4078344665963,0.9924795130171548,0.004014332147877956
1468.4147791105065,1468.4147791105065,0.9959354340352637,0.004009467469347166
1468.4217237542775,1468.4217237542775,1.0014598659335803,0.004022034269238607
1468.428668397956,1468.428668397956,1.0036686758241367,0.004014152344680884
1468.4356130415413,1468.4356130415413,0.9931280745192824,0.004016534978705829
1468.4425576850795,1468.4425576850795,0.9948169706279485,0.004016083572624321
1468.449502328478,1468.449502328478,0.9960977142757486,0.004015727262502105
1468.4564469717834,1468.4564469717834,0.9988033581271427,0.004023029552895489
1468.4633916150426,1468.4633916150426,1.006218511692838,0.0040239738597890665
1468.4703362581622,1468.4703362581622,0.9965448443220437,0.004008361292304107
1468.4772809012347,1468.4772809012347,1.0060239527825374,0.004011167513103656
1468.484225544214,1468.484225544214,1.0015847551143529,0.0040159642643763285
1468.4911701869612,1468.4911701869612,1.0044781519651567,0.004010199489787482
1468.4981148298016,1468.4981148298016,0.9980359538737907,0.004004355947055712
1468.5050594724548,1468.5050594724548,1.003440105914115,0.004007073507394917
1468.5120041150617,1468.5120041150617,0.993686175244674,0.004000540560385067
1468.5189487575292,1468.5189487575292,0.9969911810593791,0.0040028744450122025
1468.5258933999498,1468.5258933999498,0.9990000975921806,0.004003736150294421
1468.532838042231,1468.532838042231,0.998909016391657,0.004004199253318762
1468.5397826844658,1468.5397826844658,1.0007769468344563,0.0040059103123058866
1468.5467273265604,1468.5467273265604,1.0017914739759242,0.004008117442152658
1468.5536719686086,1468.5536719686086,1.0028283882893283,0.004008728000481729
1468.5606166104706,1468.5606166104706,0.9977152951233965,0.004005203524684918
1468.5675612522864,1468.5675612522864,1.0031958019783886,0.004007801518827373
1468.5745058941015,1468.5745058941015,0.9982872784194351,0.004006392845642191
1468.5814505357773,1468.5814505357773,0.996497218463454,0.004004920179701273
1468.58839517736,1468.58839517736,1.0002037466188867,0.004007665641924786
1468.5953398188494,1468.5953398188494,0.9953790241789153,0.004000210122013993
1468.6022844602462,1468.6022844602462,1.0019728936115544,0.004007325864662621
1468.6092291015025,1468.6092291015025,0.9995644288530127,0.0040048912412640626
1468.6161737427124,1468.6161737427124,0.999070598526037,0.004005420315701787
1468.6231183838765,1468.6231183838765,0.9968987793042166,0.004003143241674822
1468.6300630248538,1468.6300630248538,1.0033534412933487,0.004003735860806084
1468.6370076657845,1468.6370076657845,1.0004189881406145,0.004007287606544311
1468.643952306668,1468.643952306668,1.0030068070133837,0.004010310341959534
1468.6508969473196,1468.6508969473196,0.9988310693051352,0.004005084171057419
1468.657841587971,1468.657841587971,1.0021744463324789,0.004009207516953041
1468.6647862286222,1468.6647862286222,1.000281632502744,0.004013622184033331
1468.6717308690409,1468.6717308690409,0.9991452618764649,0.004016056630292882
1468.6786755094126,1468.6786755094126,0.9997968647661235,0.00401076571049609
1468.6856201497376,1468.6856201497376,0.9963317220096135,0.004011829085848403
1468.692564789877,1468.692564789877,0.9962878432484175,0.004017314819568615
1468.6995094299696,1468.6995094299696,1.003703233486776,0.004019164139618508
1468.7064540700153,1468.7064540700153,1.0013452157124494,0.004018437498341363
1468.7133987099216,1468.7133987099216,0.9995043024395072,0.004017453054915482
1468.7203433497348,1468.7203433497348,0.9992439978319899,0.004016311788870243
1468.7272879895013,1468.7272879895013,1.001576792173428,0.004015298821046247
1468.7342326290818,1468.7342326290818,1.0002760962823163,0.0040113989837103625
1468.741177268569,1468.741177268569,0.9971552591706313,0.004008303317227305
1468.7481219080557,1468.7481219080557,0.9994353610563026,0.004006411220762845
1468.7550665475428,1468.7550665475428,1.0026780718975747,0.004009719178033508
1468.762011186751,1468.762011186751,0.9983395523225653,0.004011467904416406
1468.7689558259588,1468.7689558259588,1.0047332421870585,0.004015063431276762
1468.7759004650732,1468.7759004650732,0.9957965105036355,0.004003468775543065
1468.7828451040477,1468.7828451040477,0.9994570442772321,0.004005471595213719
1468.78978974293,1468.78978974293,1.0059602967056118,0.00400943813706365
1468.796734381812,1468.796734381812,0.9979837524130651,0.004010938419151196
1468.803679020554,1468.803679020554,0.9983108076097531,0.004006493438426699
1468.8106236591561,1468.8106236591561,0.9971370740232233,0.004007838945111414
1468.817568297712,1468.817568297712,0.9987067832630642,0.004009219126747008
1468.8245129361283,1468.8245129361283,1.0010628423385373,0.0040087017129161965
1468.8314575744512,1468.8314575744512,1.0048186570556468,0.0040134281364924956
1468.8384022127743,1468.8384022127743,0.9990569573279332,0.0040184536502606595
1468.8453468509574,1468.8453468509574,1.001869477325535,0.004012075340504429
1468.8522914890475,1468.8522914890475,0.9981173696960426,0.004014043662058361
1468.8592361270448,1468.8592361270448,0.9937583383849882,0.004010538488326094
1468.8661807649491,1468.8661807649491,1.0046205444125682,0.004014493847611213
1468.8731254027593,1468.8731254027593,0.9983606506005556,0.00402137962145644
1468.8800700404768,1468.8800700404768,1.0025335372813808,0.0040170074813246325
1468.8870146781017,1468.8870146781017,0.9990600063041775,0.004017975831971127
1468.893959315633,1468.893959315633,1.0035577795327189,0.004020592834406533
1468.900903953118,1468.900903953118,0.9987537188346319,0.004018516677600624
1468.907848590416,1468.907848590416,1.0000608672479048,0.004027115679607
1468.9147932277613,1468.9147932277613,0.9974002052813334,0.004016682789050343
1468.9217378649669,1468.9217378649669,0.9970993515180793,0.00401839992210277
1468.9286825019394,1468.9286825019394,0.9991264576495172,0.004019763673873545
1468.9356271389588,1468.9356271389588,1.0009440902431144,0.0040158496203892375
1468.9425717758847,1468.9425717758847,1.006488470065633,0.004019259494869423
1468.9495164126704,1468.9495164126704,0.9999325380222317,0.00401079802654018
1468.9564610494108,1468.9564610494108,0.9958667897365402,0.004008765107194348
1468.9647946133027,1468.9647946133027,0.9979532090580262,0.0040118077152283375
1468.9717392498562,1468.9717392498562,0.9968440554770869,0.004017414818813203
1468.9786838862701,1468.9786838862701,1.003595945402273,0.004016118421570996
1468.9856285225906,1468.9856285225906,1.0011908391593303,0.004018155156955836
1468.992573158865,1468.992573158865,1.0023275249188042,0.004025549473693977
1468.9995177949993,1468.9995177949993,1.0054508886350724,0.0040330418318782115
1469.0064624310871,1469.0064624310871,1.000156205480631,0.004031253447224371
1469.0134070670817,1469.0134070670817,0.9996069510742366,0.004033716152996089
1469.0203517028435,1469.0203517028435,0.9974033059958701,0.004044027572944797
1469.0272963386988,1469.0272963386988,0.995289116374711,0.004045263163400473
1469.0342409743673,1469.0342409743673,0.9975675110998761,0.004054156419676655
1469.0411856099895,1469.0411856099895,0.9957076773348522,0.004059324235288205
1469.0481302454716,1469.0481302454716,0.9933880333644967,0.004053424012782905
1469.0550748809078,1469.0550748809078,1.0044372733094948,0.004063109582971192
1469.0620195162508,1469.0620195162508,0.9953535267182516,0.004062218452516726
1469.0689641514539,1469.0689641514539,1.0012037510428633,0.00405653656489987
1469.0759087866568,1469.0759087866568,0.9956811215023167,0.0040514273275801945
1469.0828534216737,1469.0828534216737,0.99227150186565,0.0040462330851463845
1469.089798056737,1469.089798056737,1.001869959505959,0.0040450421114872825
1469.0967426915674,1469.0967426915674,1.0028100967780866,0.004039358777388825
1469.103687326398,1469.103687326398,0.9951579829399624,0.00403893069382942
1469.110631960996,1469.110631960996,0.9985635713521038,0.004033321730738918
1469.11757659564,1469.11757659564,1.0027520077783532,0.004026491902075058
1469.1245212300983,1469.1245212300983,0.9967851816457708,0.004020395743550496
1469.1314658645563,1469.1314658645563,1.0041377098634043,0.004018381107769236
1469.1384104988745,1469.1384104988745,0.9960531782980819,0.004009535788917029
1469.1453551331,1469.1453551331,0.9978059133106283,0.004005566217741819
1469.1522997672782,1469.1522997672782,0.9983100537913723,0.004005665368185107
1469.1592444013172,1469.1592444013172,1.0001355896598807,0.004006453700344426
1469.1661890353096,1469.1661890353096,1.0042248703849537,0.004006517972859
1469.1731336691155,1469.1731336691155,1.0045483694017017,0.004010930128134346
1469.1800783030153,1469.1800783030153,1.0013116907442465,0.004011071923326072
1469.1870229366814,1469.1870229366814,0.995914015987539,0.004009405639724106
1469.1939675702545,1469.1939675702545,0.9943590652860527,0.004006715348839179
1469.200912203781,1469.200912203781,1.004058558858108,0.004016297764839615
1469.2078568371683,1469.2078568371683,0.9974108135877856,0.004013958722728797
1469.2148014705085,1469.2148014705085,0.9991507021616272,0.004021958339826465
1469.2217461037558,1469.2217461037558,1.0000197906767458,0.004019067784063116
1469.2286907368634,1469.2286907368634,1.0038395631656047,0.004018927068051164
1469.235635369971,1469.235635369971,0.9976887699553098,0.004016302777173125
1469.2425800028925,1469.2425800028925,1.0000424505663992,0.004010416111096262
1469.249524635814,1469.249524635814,1.0029103385242513,0.004014936762789843
1469.2564692685955,1469.2564692685955,0.9908128820806634,0.004008253332581737
1469.263413901237,1469.263413901237,0.997640273608581,0.004012021410100458
1469.270358533926,1469.270358533926,1.006879663575182,0.004011318429320126
1469.277303166428,1469.277303166428,1.0021602164313397,0.004010306739479693
1469.284247798791,1469.284247798791,1.0067996166629423,0.0040133983312063
1469.2911924311534,1469.2911924311534,1.000059573177089,0.004010834570769717
1469.2981370633759,1469.2981370633759,0.9963862787716632,0.004009910395058677
1469.3050816955056,1469.3050816955056,0.9904450888280809,0.004010340114524221
1469.3120263275891,1469.3120263275891,1.0072173879374007,0.00401184320253495
1469.3189709595326,1469.3189709595326,0.999885894909902,0.004009481968291738
1469.3259155914293,1469.3259155914293,0.9964510987720729,0.004014324263228135
1469.3328602231863,1469.3328602231863,1.0015127419523817,0.0040187366734144355
1469.339804854897,1469.339804854897,1.0036785742682295,0.00401243939315858
1469.3467494865145,1469.3467494865145,0.9998779926662833,0.004009549836617141
1469.353694118039,1469.353694118039,0.9977513250516363,0.004009477134123458
1469.3606387494701,1469.3606387494701,0.9942533465018464,0.004006191733184131
1469.3675833808084,1469.3675833808084,1.0009272764861499,0.004008805702678675
1469.3745280120065,1469.3745280120065,1.0073368998486243,0.004014232940732796
1469.3814726431585,1469.3814726431585,0.995283522447188,0.0040128874431932925
1469.3884172742173,1469.3884172742173,1.0003325838981378,0.004011488351671292
1469.3953619051827,1469.3953619051827,1.0030413211038067,0.004012826412736916
1469.4023065360554,1469.4023065360554,1.0010333024200953,0.004013533732825205
1469.4092511667877,1469.4092511667877,1.0039518048081015,0.004019900496483189
1469.416195797567,1469.416195797567,0.996794810006967,0.004015199900290772
1469.4231404281602,1469.4231404281602,0.9927561997771696,0.004016757661721098
1469.4300850587067,1469.4300850587067,0.9993376203794778,0.004021144719079045
1469.437029689067,1469.437029689067,1.0009873908394886,0.00402495285112822
1469.4439743194737,1469.4439743194737,1.0064250769034095,0.004025085087969154
1469.4509189496475,1469.4509189496475,0.9995510664066336,0.00402259029684208
1469.4578635798214,1469.4578635798214,0.9980562478607702,0.004024859499167881
1469.4648082099025,1469.4648082099025,0.9976980434335481,0.004023020079382253
1469.4717528398437,1469.4717528398437,1.0019443732989783,0.004021719373325015
1469.4786974697377,1469.4786974697377,0.9996056322294977,0.00402032770906853
1469.4856420994925,1469.4856420994925,0.9999936874268686,0.004021195479409147
1469.4925867292475,1469.4925867292475,0.9972023404572887,0.0040190187107128125
1469.4995313588165,1469.4995313588165,1.0018260876971419,0.004019353160434116
1469.5064759883849,1469.5064759883849,0.995341754348205,0.00401713308149865
1469.513420617814,1469.513420617814,1.0087220208539522,0.004027828410368013
1469.5203652471027,1469.5203652471027,1.0003347824550244,0.004015364681841749
1469.5273098763919,1469.5273098763919,1.0016404527480849,0.004017827154696748
1469.5342545054486,1469.5342545054486,0.9979884797532366,0.004018177633692002
1469.5411991346912,1469.5411991346912,0.9958634707226949,0.004019616587921592
1469.5481437635613,1469.5481437635613,1.010128632133759,0.004017552532443543
1469.5550883924775,1469.5550883924775,0.9961989284996313,0.004017099618966645
1469.562033021208,1469.562033021208,1.000407272612968,0.004013955439847793
1469.568977649939,1469.568977649939,0.9955024294531476,0.004006083511911089
1469.5759222785757,1469.5759222785757,0.9952954358075885,0.004012996590533844
1469.5828669070731,1469.5828669070731,0.9995457909040282,0.004016104666203708
1469.589811535478,1469.589811535478,1.0029637280949453,0.004014208475446759
1469.5967561638354,1469.5967561638354,1.0008646290103063,0.004016690627307281
1469.603700792147,1469.603700792147,1.001346704767602,0.004017791530518938
1469.6106454202718,1469.6106454202718,1.002287573446479,0.004016817118349196
1469.6175900483504,1469.6175900483504,1.001267578835819,0.0040203341665226485
1469.6245346762894,1469.6245346762894,1.0024500677313604,0.00401583809562263
1469.6314793041347,1469.6314793041347,0.9925876234797577,0.004017255848191278
1469.6384239319802,1469.6384239319802,0.9961402548888445,0.004013886409027137
1469.645368559733,1469.645368559733,1.0014311726561254,0.0040164539842109746
1469.652313187346,1469.652313187346,1.0011122169584095,0.00401370686158027
1469.6592578148193,1469.6592578148193,0.9983994776653956,0.004017835659062933
1469.666202442292,1469.666202442292,0.9998758000191078,0.0040137448042358945
1469.673147069625,1469.673147069625,0.9987234588241719,0.004009724589474223
1469.680091696912,1469.680091696912,1.002897119365476,0.004011383940079492
1469.6870363240128,1469.6870363240128,0.9989452947404945,0.004006303906877666
1469.6939809511136,1469.6939809511136,1.0024336866290793,0.004011352256849714
1469.7009255781209,1469.7009255781209,1.0034048842640315,0.004009622538823785
1469.7078702050349,1469.7078702050349,1.0007839562629244,0.004004850766567274
1469.7148148317629,1469.7148148317629,0.9965855466993165,0.004006061622503386
1469.7217594584447,1469.7217594584447,0.9963821102209401,0.004011056283329637
1469.728704085126,1469.728704085126,1.004087065875541,0.004006540565786459
1469.735648711668,1469.735648711668,0.9973754851491707,0.004006533833771391
1469.7425933381164,1469.7425933381164,0.999950189052129,0.0040099014135889675
1469.7495379644718,1469.7495379644718,1.0005327339482653,0.004010194914435184
1469.7564825907345,1469.7564825907345,0.997978924300854,0.0040116897442442805
1469.7634272168573,1469.7634272168573,1.005055947477213,0.004017835866755861
1469.7703718429334,1469.7703718429334,0.9990850841594725,0.004013028279734535
1469.777316468963,1469.777316468963,1.0033131416579426,0.004015113411758537
1469.7842610948526,1469.7842610948526,0.9921263292630753,0.00401008099883298
1469.7912057206497,1469.7912057206497,1.000196012539447,0.004014038043487407
1469.798150346353,1469.798150346353,1.0024020337616713,0.00401859200058889
1469.8050949720098,1469.8050949720098,0.9993735509203807,0.004014524094556635
1469.8120395976207,1469.8120395976207,1.0029969146879736,0.004019633056092044
1469.8189842229517,1469.8189842229517,1.0002014675838253,0.004017609617902713
1469.8259288483289,1469.8259288483289,0.9978623849740949,0.004020847696551241
1469.8328734736137,1469.8328734736137,1.0000461845108153,0.004019570215698984
1469.839818098758,1469.839818098758,0.996645894383302,0.004014299480491743
1469.846762723857,1469.846762723857,1.0004411608865087,0.004018967745373722
1469.8537073488155,1469.8537073488155,1.0039753433615075,0.004024464402805273
1469.860651973727,1469.860651973727,0.9936440904187054,0.004022508481602504
1469.8675965985926,1469.8675965985926,1.0032163768096416,0.004024171236871163
1469.8745412232715,1469.8745412232715,1.0035493320986553,0.004021197872774334
1469.881485847904,1469.881485847904,1.0064477897347133,0.004024653911122398
1469.8884304724902,1469.8884304724902,1.0029583405666254,0.004020165579542082
1469.8953750968435,1469.8953750968435,0.9940911257265664,0.004018601204644457
1469.9023197211966,1469.9023197211966,0.9967040978783178,0.004026502314680432
1469.90926434555,1469.90926434555,1.001632531949392,0.004018030275800985
1469.916208969717,1469.916208969717,1.0036605722575895,0.004019580930394974
1469.9231535938372,1469.9231535938372,0.9969366897097846,0.004019655084572536
1469.9300982178179,1469.9300982178179,0.9980252875780524,0.0040145484088519095
1469.9370428417055,1469.9370428417055,1.0032566142655033,0.0040239836478398894
1469.9439874654995,1469.9439874654995,0.9962816259584735,0.004013376262448181
1469.9509320892473,1469.9509320892473,1.002792214242111,0.004013989575268976
1469.9578767129024,1469.9578767129024,0.9994869031310463,0.004019112694519169
1469.9648213364635,1469.9648213364635,1.0023640442234467,0.00401448461242391
1469.9717659598857,1469.9717659598857,1.001186328136059,0.004016947600322797
1469.9787105832606,1469.9787105832606,0.9984278777802608,0.00401333247385681
1469.9856552064498,1469.9856552064498,1.0006996722544619,0.004018924976716445
1469.992599829639,1469.992599829639,1.0009120081491434,0.004013937324980101
1469.999544452828,1469.999544452828,0.9943428840211922,0.004022541559533129
1470.0064890758308,1470.0064890758308,1.000445418045937,0.0040205119717487015
1470.0134336987405,1470.0134336987405,1.003122987224765,0.0040193322921112315
1470.0203783215566,1470.0203783215566,1.0002846614378433,0.004016319784656914
1470.0273229442803,1470.0273229442803,1.0011214817830656,0.004027533356422868
1470.034267566957,1470.034267566957,0.9998220157121616,0.004019347973076994
1470.041212189494,1470.041212189494,0.9991458712036018,0.004021778899661698
1470.0481568119847,1470.0481568119847,1.0001490455397903,0.004015508155318376
1470.055101434289,1470.055101434289,1.0018828230722647,0.00401960333187927
1470.062046056593,1470.062046056593,0.9989121536628065,0.0040148213311712476
1470.0689906788043,1470.0689906788043,0.9958246115732315,0.004019729840590681
1470.0759353009223,1470.0759353009223,1.0002355892779935,0.004018371611052117
