time,time,flux,flux_err
1517.363896568715,1517.363896568715,1.000373836027505,0.001230606692383712
1517.3740819780517,1517.3740819780517,1.000219770585354,0.0012035373549492668
1517.3824154953354,1517.3824154953354,0.9996248126277418,0.0011827708209738118
1517.3907490131041,1517.3907490131041,1.0000064762095549,0.001164397612245498
1517.3994992072796,1517.3994992072796,1.0009481753847216,0.001045565313424922
1517.4067215901741,1517.4067215901741,0.9994820923529796,0.001032867345169597
1517.4136661894463,1517.4136661894463,0.9997831634523738,0.0010216658673220717
1517.4206107889752,1517.4206107889752,1.000630732383887,0.0010119965899349646
1517.427555388853,1517.427555388853,1.001665881715621,0.001002533129375934
1517.4344999890334,1517.4344999890334,1.0007214721974191,0.0009942953583019522
1517.4414445895168,1517.4414445895168,0.9987912139624452,0.0009859321891349155
1517.4483891902796,1517.4483891902796,0.9995966379189486,0.0009791509729937431
1517.4553337913446,1517.4553337913446,0.9996976561675828,0.0009727653200681432
1517.4622783926661,1517.4622783926661,0.9993266095762138,0.0009677296356492822
1517.469222994267,1517.469222994267,0.9999633639518919,0.0009619222088537953
1517.4761675961709,1517.4761675961709,0.999655743083931,0.0009552938324522509
1517.4831121983073,1517.4831121983073,1.000529289404543,0.0009508420054665427
1517.4900568006992,1517.4900568006992,1.0012576272443685,0.0009462830089474181
1517.4970014033947,1517.4970014033947,1.0016176006205995,0.0009415041431620096
1517.503946006253,1517.503946006253,0.997799652585204,0.0009363665744551578
1517.5108906094135,1517.5108906094135,1.0001840598713259,0.0009324016504051871
1517.5178352128307,1517.5178352128307,0.99974991937895,0.0009278635824042085
1517.5247798164805,1517.5247798164805,1.0009229293333088,0.0009243422463036664
1517.5317244203627,1517.5317244203627,1.0010176127052834,0.0009207036390263452
1517.5386690244318,1517.5386690244318,0.999530931417822,0.0009168074305554669
1517.5456136288035,1517.5456136288035,0.9988438763278846,0.0009131433850277976
1517.552558233338,1517.552558233338,1.0006338371688615,0.000910452476560098
1517.5595028380587,1517.5595028380587,1.0011266518845858,0.0009072302343575018
1517.5664474430355,1517.5664474430355,0.9984182205109983,0.0009032327354055739
1517.573392048222,1517.573392048222,1.0002892202530809,0.0009006078506787312
1517.580336653618,1517.580336653618,0.9993966819159787,0.0008976781495131505
1517.5872812592468,1517.5872812592468,0.9998894434375772,0.000895130917166306
1517.5942258649688,1517.5942258649688,0.9993887725123006,0.0008923591131363362
1517.6011704709704,1517.6011704709704,1.0019651913823127,0.0008906323498637684
1517.6081150770876,1517.6081150770876,1.0009223929362707,0.0008883996928958342
1517.6150596834855,1517.6150596834855,0.9994885624954687,0.0008860337189708514
1517.6220042899988,1517.6220042899988,1.0008708541848506,0.0008845687503501891
1517.6289488966984,1517.6289488966984,1.0000752033331701,0.0008820604696352475
1517.6358935036078,1517.6358935036078,0.9994976972874359,0.0008802776815319133
1517.6428381106803,1517.6428381106803,1.0011194534671375,0.0008794401951606049
1517.6497827178925,1517.6497827178925,0.9986120591300602,0.0008763736861471096
1517.6567273253138,1517.6567273253138,0.999853778471758,0.0008752792242357419
1517.6636719328521,1517.6636719328521,1.000286409684176,0.0008737205166687778
1517.670616540553,1517.670616540553,1.0000370568125692,0.0008716475501571857
1517.677561148417,1517.677561148417,0.999906099558267,0.0008698091810622176
1517.684505756467,1517.684505756467,0.9991465834020345,0.0008676943158861429
1517.6914503646342,1517.6914503646342,0.9999392668680895,0.0008656584872747374
1517.698394972987,1517.698394972987,1.0009296944673376,0.0008641756555153769
1517.705339581456,1517.705339581456,0.9996798687605593,0.0008618046516522088
1517.7122841900423,1517.7122841900423,1.0001642988387693,0.0008602464264692488
1517.7192287988141,1517.7192287988141,1.0005605499240602,0.0008582685776262712
1517.7261734076794,1517.7261734076794,0.9990964144887396,0.0008558907897038313
1517.7331180167307,1517.7331180167307,1.00025856630181,0.0008541919484417994
1517.7400626258986,1517.7400626258986,1.0005991933565128,0.000852436042023841
1517.7470072351593,1517.7470072351593,0.9998333269311053,0.0008504030134968896
1517.75395184456,1517.75395184456,0.9993203257688748,0.0008488412670902319
1517.7608964541237,1517.7608964541237,0.9994909655341371,0.0008468413859968572
1517.7678410637343,1517.7678410637343,1.0002534417060436,0.0008452323929946801
1517.7747856735537,1517.7747856735537,1.0009308624439197,0.0008434120029074231
1517.7817302834435,1517.7817302834435,1.0003177397350107,0.0008430535056896168
1517.7886748934498,1517.7886748934498,0.9997451515913603,0.0008404413111129253
1517.7956195035952,1517.7956195035952,0.999049667197154,0.0008387564006412622
1517.8025641137874,1517.8025641137874,1.0005106700748616,0.0008376843685108356
1517.809508724166,1517.809508724166,0.9999856558741309,0.0008369925988134968
1517.8164533346148,1517.8164533346148,1.0010985286188967,0.0008350769785623999
1517.823397945156,1517.823397945156,1.0001263839981789,0.0008334380856300212
1517.8303425558374,1517.8303425558374,0.9990896113192964,0.0008326574589402203
1517.8372871665883,1517.8372871665883,0.9998057710211684,0.0008311832521114227
1517.8442317774093,1517.8442317774093,0.9996262712666819,0.0008305570647367611
1517.8511763884164,1517.8511763884164,0.9995787167503357,0.000829354367281096
1517.858120999447,1517.858120999447,1.0003263875992725,0.0008280985642328033
1517.8650656105708,1517.8650656105708,1.00027977509341,0.000827738056843969
1517.8720102218106,1517.8720102218106,1.0001909289327908,0.0008266673469565931
1517.8789548331438,1517.8789548331438,0.9995094554549235,0.00082526696753564
1517.8858994445234,1517.8858994445234,1.0003746436885186,0.0008244967279169774
1517.8928440560198,1517.8928440560198,0.9996416708525707,0.0008236059564091407
1517.8997886676323,1517.8997886676323,1.000868891460651,0.0008231408122710444
1517.9067332792915,1517.9067332792915,1.0000214772684148,0.0008221053795717734
1517.9136778910438,1517.9136778910438,1.0001883017812219,0.0008217178892444734
1517.9206225028659,1517.9206225028659,0.9995064883569811,0.0008210749008542628
1517.9275671147811,1517.9275671147811,1.000143555758338,0.0008206569593640287
1517.9345117267194,1517.9345117267194,0.9994281784254124,0.0008203125752284671
1517.9422896922472,1517.9422896922472,1.0000824953029332,0.0008190054376474385
1517.9497898733616,1517.9497898733616,0.9994906183107922,0.0008181876542310191
1517.956734485556,1517.956734485556,1.0006609267416953,0.0008181137654918326
1517.9636790978439,1517.9636790978439,0.9998198972416386,0.0008173495544806739
1517.9706237102018,1517.9706237102018,0.9999515373990846,0.0008166254064888628
1517.977568322629,1517.977568322629,1.0001873517793893,0.0008167170842005737
1517.9845129351265,1517.9845129351265,1.0001906778227492,0.0008160480413899598
1517.9914575476703,1517.9914575476703,0.9993150646654506,0.0008157695374515865
1517.9984021602838,1517.9984021602838,1.0009923870588402,0.0008151730261975399
1518.0053467729442,1518.0053467729442,1.000146151816961,0.0008145802043096083
1518.0122913856978,1518.0122913856978,0.9998805531605554,0.0008141724019681048
1518.0192359984976,1518.0192359984976,1.0003292886683657,0.0008136518392942637
1518.0261806113444,1518.0261806113444,0.9990034413129137,0.000812850290604491
1518.0331252242606,1518.0331252242606,0.999158707897523,0.0008125244808466657
1518.040069837247,1518.040069837247,0.9994767453550113,0.0008122801982841527
1518.0470144502565,1518.0470144502565,1.0002005363417668,0.0008120936373839932
1518.053959063336,1518.053959063336,0.9991124809702476,0.0008110955739041735
1518.060903676462,1518.060903676462,1.0014535786154368,0.0008111187687759652
1518.0678482896808,1518.0678482896808,1.0002475418810761,0.000810784761735387
1518.0747929029233,1518.0747929029233,0.9996150152195107,0.0008107741578451295
1518.0817375161657,1518.0817375161657,1.0002101401010899,0.0008094922746289564
1518.0886821295012,1518.0886821295012,1.0003305454238036,0.0008088464647031353
1518.0956267428833,1518.0956267428833,0.9992068334852876,0.000808956548127414
1518.1025713563117,1518.1025713563117,0.9999299303770787,0.0008091829024761852
1518.109515969787,1518.109515969787,1.000588051590439,0.0008083476219923743
1518.1164605832855,1518.1164605832855,0.9995543700683962,0.0008072333852530806
1518.123405196854,1518.123405196854,1.000154489094895,0.0008069264604814049
1518.1303498104455,1518.1303498104455,0.999635079386082,0.0008066291862021891
1518.137294424107,1518.137294424107,0.9997626322035661,0.0008065260044000007
1518.1442390377683,1518.1442390377683,0.9996086824068346,0.0008053033802999613
1518.1511836514997,1518.1511836514997,1.0006365633370833,0.0008061528249986535
1518.1581282652544,1518.1581282652544,1.0011114403633037,0.0008057424143883618
1518.1650728790323,1518.1650728790323,1.0001501203183376,0.0008055957406748129
1518.1720174928569,1518.1720174928569,0.9986322638239578,0.0008040847004862793
1518.1789621067978,1518.1789621067978,1.0001704854523088,0.0008036509338695888
1518.1859067206685,1518.1859067206685,0.9994109882162423,0.0008034713754762387
1518.1928513346097,1518.1928513346097,0.9991840139385003,0.000803204573453352
1518.1997959485968,1518.1997959485968,1.0007293327129478,0.000802979731874308
1518.2067405626076,1518.2067405626076,1.0010054688141272,0.0008029101473138013
1518.213685176642,1518.213685176642,0.9993066056555051,0.0008017551440175836
1518.2206297906987,1518.2206297906987,1.001135482955212,0.0008024268088009703
1518.227574404826,1518.227574404826,1.0003485789069966,0.0008017685693162037
1518.2345190189533,1518.2345190189533,1.0000525929809931,0.0008019877850724922
1518.2414636331268,1518.2414636331268,0.9991689436106667,0.000801703488013927
1518.2484082473006,1518.2484082473006,0.9998360121785688,0.0008011978639680572
1518.2553528615208,1518.2553528615208,1.0007614677662091,0.0008009856230598121
1518.2622974757642,1518.2622974757642,0.9994650253210974,0.0008007842423052681
1518.2706310128895,1518.2706310128895,1.0000892242800294,0.0008006785190721227
1518.2775756271794,1518.2775756271794,0.9994964014107437,0.0008008124397843279
1518.2845202415156,1518.2845202415156,1.0001973430978737,0.0008003608236581826
1518.2914648558763,1518.2914648558763,1.0000190012079653,0.0007999339782969803
1518.2984094702824,1518.2984094702824,1.0003474209677665,0.0007994038529306457
1518.305354084689,1518.305354084689,1.0002928865794884,0.0007990208565207206
1518.3134098374005,1518.3134098374005,1.0000044478513155,0.0007992086489133256
1518.3206322363833,1518.3206322363833,1.000559500313377,0.0007984224565469268
1518.32757685086,1518.32757685086,0.9995069342278515,0.0007992430834605014
1518.3345214653361,1518.3345214653361,0.9995681673232493,0.0007990279534826883
1518.3414660798358,1518.3414660798358,0.9995195396976417,0.0007983018463106955
1518.348410694359,1518.348410694359,1.000599009755502,0.0007991562021145825
1518.355355308905,1518.355355308905,0.9991508196063907,0.0007977012116370013
1518.362299923451,1518.362299923451,1.000249995881227,0.0007985980157985209
1518.369244538044,1518.369244538044,1.0002308290167705,0.000798165757760209
1518.3761891526367,1518.3761891526367,1.001072456480071,0.0007973895819809954
1518.3831337672527,1518.3831337672527,0.9995645126128784,0.0007975738824061499
1518.3900783818688,1518.3900783818688,0.9994684991496143,0.0007971538787169006
1518.397022996508,1518.397022996508,1.0018652360198335,0.00079787856140814
1518.4039676111474,1518.4039676111474,0.9994426742704567,0.0007962639434346686
1518.4114677950097,1518.4114677950097,0.9998394249993929,0.0007966785494011034
1518.419245763424,1518.419245763424,0.999162250484518,0.0007968049153848508
1518.4261903781335,1518.4261903781335,0.9999598698620693,0.0007968158514888475
1518.4331349928423,1518.4331349928423,1.0004704174614356,0.0007962486416511098
1518.4400796075747,1518.4400796075747,1.0012500754633709,0.0007965142419641107
1518.4470242223074,1518.4470242223074,0.9999064983141887,0.0007962794064304016
1518.4539688370398,1518.4539688370398,0.9998952906291892,0.0007966121846846518
1518.4620245901706,1518.4620245901706,1.0006441948537108,0.0007960588275926659
1518.4692469895258,1518.4692469895258,0.9991171753161068,0.0007955635373666598
1518.4761916042817,1518.4761916042817,0.9999086747030379,0.0007953374904730576
1518.4831362190844,1518.4831362190844,0.9990930889590108,0.0007956637708725651
1518.4900808338862,1518.4900808338862,0.9995842499457275,0.0007957274944629073
1518.4970254486652,1518.4970254486652,1.0010965459978611,0.0007958348791771375
1518.5039700634677,1518.5039700634677,1.0000663820834652,0.0007954582625776634
1518.5109146782931,1518.5109146782931,1.0003184506212823,0.0007950711591271425
1518.5178592931188,1518.5178592931188,1.0006200933737168,0.0007947399097075517
1518.5248039079447,1518.5248039079447,0.9994611338159862,0.0007947736962316447
1518.5317485227702,1518.5317485227702,1.0000616291529796,0.0007953690871408236
1518.5386931376188,1518.5386931376188,1.0000036696584702,0.0007945811856887865
1518.5456377524679,1518.5456377524679,1.0002884245105759,0.0007948694219508461
1518.552582367317,1518.552582367317,1.0005372421769514,0.0007954755361205676
1518.559526982166,1518.559526982166,0.9998495306959754,0.0007946461888752945
1518.566471597038,1518.566471597038,0.9992062434757261,0.0007950785306505033
1518.573416211887,1518.573416211887,1.0007945207722304,0.0007950236657717693
1518.5803608267593,1518.5803608267593,1.0007566278072892,0.0007947513651623897
1518.587305441631,1518.587305441631,0.9990885270132823,0.0007950216743870585
1518.5942500565034,1518.5942500565034,0.9993437600575825,0.0007947626340202735
1518.6011946713757,1518.6011946713757,1.0006012053720905,0.0007940966138132713
1518.6081392862477,1518.6081392862477,0.9989395156706337,0.0007948822925205122
1518.6150839011195,1518.6150839011195,1.0005815553134518,0.0007946010904750555
1518.622028515992,1518.622028515992,0.9998637655974365,0.0007943597563899587
1518.6289731308875,1518.6289731308875,1.0004100529407505,0.0007951832436757674
1518.6359177457598,1518.6359177457598,1.0005024550837236,0.0007951688397328556
1518.642862360632,1518.642862360632,1.0002748258773964,0.0007945472715716245
1518.6498069755276,1518.6498069755276,0.9994436738883239,0.0007943932347522628
1518.6567515903996,1518.6567515903996,1.0004696560951696,0.0007945788886259284
1518.6636962052717,1518.6636962052717,0.9991026375938669,0.0007947015104995417
1518.670640820144,1518.670640820144,1.0001169647159016,0.0007942198924459132
1518.6775854350162,1518.6775854350162,1.0007008596844211,0.0007955808243149412
1518.684530049888,1518.684530049888,0.9996991449587167,0.0007943883180059575
1518.6914746647606,1518.6914746647606,0.9999418255962693,0.000794798213254696
1518.6984192796326,1518.6984192796326,1.0000004076861249,0.0007949627486804172
1518.7053638945047,1518.7053638945047,0.9998740333824669,0.0007950079675231534
1518.7123085093535,1518.7123085093535,0.9992234907732765,0.0007942359657314041
1518.7192531242258,1518.7192531242258,1.0016026576311021,0.0007943723310830977
1518.726197739075,1518.726197739075,0.9995622034006229,0.0007946722322534194
1518.733142353947,1518.733142353947,1.0003475173183034,0.000795221065656785
1518.7400869687958,1518.7400869687958,0.9999392208447764,0.000794562002750835
1518.7470315836215,1518.7470315836215,1.0012993460016069,0.000795012877843281
1518.7539761984704,1518.7539761984704,0.9990773473261806,0.0007946666232831282
1518.760920813296,1518.760920813296,1.0003803521231762,0.0007945491229045225
1518.7678654281217,1518.7678654281217,0.9996870310751316,0.0007954850317102189
1518.7748100429471,1518.7748100429471,0.9999296777049789,0.0007944781440882107
1518.7817546577728,1518.7817546577728,1.000371198621751,0.0007951044916922215
1518.7886992725748,1518.7886992725748,0.9994789971871318,0.0007946219275053671
1518.7956438873775,1518.7956438873775,1.0008383208745604,0.0007952941947458582
1518.802588502203,1518.802588502203,0.9992065022459384,0.0007950036714051377
1518.809533116982,1518.809533116982,0.9996281009928685,0.0007958543702647961
1518.816477731761,1518.816477731761,1.0003905327457125,0.0007950117807177621
1518.8234223465402,1518.8234223465402,1.0007297308992156,0.000794400006710023
1518.8303669612958,1518.8303669612958,1.0004473476475302,0.0007948902583671084
1518.837311576075,1518.837311576075,0.9999933781475946,0.0007943602199190272
1518.844256190831,1518.844256190831,0.9992359394214467,0.0007943770482139697
1518.8512008055864,1518.8512008055864,0.9998445640067837,0.0007951152525804113
1518.8581454202958,1518.8581454202958,1.0008342310829954,0.0007957644174339848
1518.8650900350517,1518.8650900350517,1.0005769639768807,0.0007955838150469095
1518.872034649737,1518.872034649737,0.9989610154559475,0.0007947369900442629
1518.8789792644932,1518.8789792644932,0.999273847375482,0.0007942754817227546
1518.8859238792022,1518.8859238792022,1.00062972908568,0.0007949169390964979
1518.892868493888,1518.892868493888,1.000440319724479,0.0007947254201245337
1518.8998131085275,1518.8998131085275,1.0011318135732783,0.0007942101634313246
1518.9067577232368,1518.9067577232368,0.9991530538778142,0.0007946095877760151
1518.913702337876,1518.913702337876,1.0000897546571603,0.0007944121258482149
1518.9206469525386,1518.9206469525386,0.9998450943577382,0.0007959418936646279
1518.9275915671778,1518.9275915671778,1.0008196442284554,0.0007950720483260124
1518.9345361818173,1518.9345361818173,0.9993519243513053,0.0007950104355505651
1518.9414807964336,1518.9414807964336,0.9992648333404093,0.000793843665258799
1518.9484254110494,1518.9484254110494,0.9998973510136423,0.0007939489573465422
1518.9553700256427,1518.9553700256427,1.0000695374481914,0.0007945338637152015
1518.9623146402118,1518.9623146402118,0.9991916959088858,0.0007943689949526855
1518.9692592548047,1518.9692592548047,1.0006933499392292,0.0007946150240067424
1518.9762038693511,1518.9762038693511,1.0011935364488447,0.0007945347561688056
1518.983148483897,1518.983148483897,0.9994966842500153,0.0007941387523588367
1518.9900930984431,1518.9900930984431,1.0003364755177462,0.0007943812953837661
1518.9970377129662,1518.9970377129662,1.001216920810039,0.0007948924378525706
1519.0039823274892,1519.0039823274892,0.9993609464207195,0.0007958612342537986
1519.0109269419886,1519.0109269419886,0.9995378606827208,0.0007951637527391446
1519.017871556465,1519.017871556465,1.0004919358319992,0.0007948042821896272
1519.0248161709646,1519.0248161709646,1.0001995328413997,0.0007942210226126962
1519.031760785371,1519.031760785371,0.9997053967135756,0.0007948736027360391
1519.0387053998943,1519.0387053998943,0.9995574569145829,0.0007952806965575698
1519.0456500143007,1519.0456500143007,0.9997585907305513,0.0007949190566198148
1519.0525946287073,1519.0525946287073,0.9996855210909278,0.0007946469567335997
1519.0595392431135,1519.0595392431135,1.0007800723990734,0.0007950449083723363
1519.06648385752,1519.06648385752,1.0007403195990858,0.000794839588621233
1519.0734284719035,1519.0734284719035,1.0001498605878099,0.0007955674858620742
1519.0803730862167,1519.0803730862167,0.9990936040029584,0.0007943262745976221
1519.0873177006001,1519.0873177006001,0.9996415743780078,0.0007945978002994614
1519.0942623149133,1519.0942623149133,1.000962441059414,0.0007950636905617977
1519.1012069292267,1519.1012069292267,0.9994861147785915,0.0007949423822787948
1519.1081515435399,1519.1081515435399,1.000062710367715,0.0007941550197602551
1519.11509615783,1519.11509615783,0.9990237797226206,0.0007945146404864571
1519.122040772097,1519.122040772097,1.0005088330917744,0.0007946510917647448
1519.1289853863402,1519.1289853863402,0.9994687586811721,0.0007951396527531074
1519.1359300006072,1519.1359300006072,1.0014100685385556,0.0007953858422529521
1519.1428746148276,1519.1428746148276,1.0000490019150672,0.000795001416226653
