time,time,flux,flux_err
1468.280643759883,1468.280643759883,1.0003036397329577,0.0005731817132201844
1468.2889770933507,1468.2889770933507,0.9985284654447448,0.0005728177245873954
1468.2966159823416,1468.2966159823416,0.9990741602130054,0.000523102566600536
1468.303560426577,1468.303560426577,1.0003979419845552,0.0005231736474248986
1468.3105048707196,1468.3105048707196,0.9995184383165474,0.0005230916565211613
1468.3174493146753,1468.3174493146753,0.9998294091351687,0.0005231490313300747
1468.3243937586308,1468.3243937586308,1.0004155342047625,0.0005230773071538934
1468.331338202494,1468.331338202494,1.000499452076884,0.0005232541425726122
1468.338282646264,1468.338282646264,1.000337400893184,0.000523106181002128
1468.3452270897542,1468.3452270897542,1.0004321841975823,0.0005230243017951182
1468.3521715332442,1468.3521715332442,1.0007122761971416,0.0005230889907196901
1468.359115976548,1468.359115976548,1.0009127201651449,0.0005232057717927272
1468.3660604197598,1468.3660604197598,1.0006345126203606,0.0005232316390175108
1468.3730048628772,1468.3730048628772,1.0001028697622296,0.0005230874518153232
1468.381893749777,1468.381893749777,1.0003371490103636,0.0005231932706264656
1468.3966159683969,1468.3966159683969,0.9996423873102576,0.0005231399034713151
1468.4035604110495,1468.4035604110495,0.9995320275339928,0.0005231206187062573
1468.4105048534225,1468.4105048534225,1.0003157625099024,0.0005231588761330623
1468.4174492957945,1468.4174492957945,1.0002372957098284,0.0005232687151254388
1468.4243937378876,1468.4243937378876,1.0007502102818955,0.0005233099296858516
1468.4313381799816,1468.4313381799816,0.9998485689969178,0.0005231359040865052
1468.4382826219814,1468.4382826219814,1.000238153759171,0.0005233870477318762
1468.4452270637953,1468.4452270637953,1.000291908980712,0.0005233727252877031
1468.4521715056094,1468.4521715056094,0.9998856298732466,0.0005232294396073423
1468.459115947144,1468.459115947144,0.9993271082837201,0.0005232287241280219
1468.4660603885854,1468.4660603885854,0.9998119125531881,0.0005233825079076722
1468.4730048299339,1468.4730048299339,1.0004431719212792,0.0005233503868398383
1468.4799492711888,1468.4799492711888,0.9999479516937939,0.00052341883607714
1468.4868937122574,1468.4868937122574,1.0001174736787586,0.000523237332899207
1468.4938381532338,1468.4938381532338,0.999950447329342,0.0005234230129529837
1468.5007825942096,1468.5007825942096,1.0000111652736199,0.0005234117384076643
1468.5077270349059,1468.5077270349059,0.999549286021824,0.0005232574300465334
1468.5146714755087,1468.5146714755087,0.9991974243193782,0.0005232333380054785
1468.5216159159258,1468.5216159159258,1.0008763489448465,0.000523359179345955
1468.5285603563425,1468.5285603563425,0.9996069993198473,0.0005230449815808394
1468.5355047967598,1468.5355047967598,0.9998006159136276,0.0005230920851257636
1468.5424492368043,1468.5424492368043,1.0010505521909567,0.0005233921418087097
1468.5493936769415,1468.5493936769415,0.999280634915231,0.0005230442050819283
1468.5563381168,1468.5563381168,1.000472352042356,0.0005232570456859824
1468.5632825566584,1468.5632825566584,1.0001266398752664,0.0005233233431812007
1468.57022699633,1468.57022699633,0.9999455652457339,0.0005231749562914816
1468.5771714358154,1468.5771714358154,1.0001612420075798,0.0005231521352873911
1468.584115875301,1468.584115875301,1.000687447762885,0.0005232150534804882
1468.5910603146003,1468.5910603146003,0.9983909813160237,0.000523093585488963
1468.5980047538999,1468.5980047538999,0.9998661683791388,0.0005231237538241692
1468.60494919292,1468.60494919292,1.000402591331057,0.0005233645317434269
1468.6118936318467,1468.6118936318467,0.9998546843932015,0.0005232114853375151
1468.618838070773,1468.618838070773,0.9995629991728274,0.00052299398755229
1468.625782509421,1468.625782509421,1.00120478761436,0.0005233141125784413
1468.6327269480687,1468.6327269480687,0.9998092281559583,0.0005232723172833297
1468.6396713865295,1468.6396713865295,1.0003870181351229,0.0005231742918728518
1468.6466158248043,1468.6466158248043,0.999094691901257,0.000522851059008822
1468.6535602631725,1468.6535602631725,1.0000659486736572,0.0005231062712182071
1468.6605047014473,1468.6605047014473,1.0004317514590166,0.0005229735506398112
1468.6674491391636,1468.6674491391636,1.000253956293189,0.0005231544506850421
1468.6743935771588,1468.6743935771588,0.9993221772100837,0.0005231768819509044
1468.6813380148749,1468.6813380148749,1.0001785940949328,0.000523286200767468
1468.688282452591,1468.688282452591,1.000588498337004,0.0005232462943639438
1468.695226890121,1468.695226890121,0.9999744753034726,0.0005231868994208373
1468.7021713274648,1468.7021713274648,0.9995779416177573,0.0005228817711671165
1468.7091157648078,1468.7091157648078,0.9991824992128979,0.0005231875563632273
1468.7160602020585,1468.7160602020585,0.9998193010677259,0.0005231366741890538
1468.7230046390296,1468.7230046390296,1.0010129624820199,0.0005231472881945176
1468.7299490759076,1468.7299490759076,0.999842752625003,0.0005231864712445241
1468.736893512879,1468.736893512879,1.0006409786673272,0.0005231554567694553
1468.7438379495702,1468.7438379495702,0.9993422323484922,0.0005230718872259052
1468.7507823861688,1468.7507823861688,0.999440993838201,0.0005232817319928219
1468.7577268226742,1468.7577268226742,1.0007467144827227,0.0005232848510785038
1468.7646712589935,1468.7646712589935,1.0009951422570462,0.0005233591265795426
1468.7716156952195,1468.7716156952195,0.9996298864123118,0.0005233565108046311
1468.778560131259,1468.778560131259,0.9993181601705929,0.0005233831371147036
1468.7855045674848,1468.7855045674848,1.0001270467529806,0.0005235616105123967
1468.7924490032456,1468.7924490032456,1.0000937089638549,0.0005235924351588632
1468.7993934390058,1468.7993934390058,0.9995585077774066,0.0005232982837859615
1468.806337874766,1468.806337874766,1.0002782240392636,0.000523552095702596
1468.8132823100607,1468.8132823100607,1.000002745042058,0.0005233186020131163
1468.8202267455417,1468.8202267455417,0.9999468303523434,0.0005234704795747662
1468.8271711808363,1468.8271711808363,1.000117325756371,0.0005235870237125189
1468.8341156161314,1468.8341156161314,0.9993965820406082,0.0005232635393200992
1468.841060051053,1468.841060051053,1.0001116120189848,0.0005232926749404829
1468.8480044860685,1468.8480044860685,1.0003842280538613,0.0005232631747238087
1468.8549489208976,1468.8549489208976,0.9998113165402165,0.0005231140079840184
1468.8618933556334,1468.8618933556334,1.000035864227167,0.0005230517579505676
1468.8688377901833,1468.8688377901833,0.999156397333941,0.0005231047107376932
1468.8757822246396,1468.8757822246396,1.0001329528067715,0.0005232462444819967
1468.8827266590029,1468.8827266590029,1.0007254932220606,0.0005231745811352574
1468.88967109318,1468.88967109318,1.0008080391210934,0.0005232873816707138
1468.8966155273574,1468.8966155273574,1.0000344008523407,0.0005231874840746452
1468.903559961348,1468.903559961348,1.0002024088105286,0.0005231654144049454
1468.9105043952454,1468.9105043952454,1.0002722712572822,0.0005233277399402319
1468.9174488290498,1468.9174488290498,0.9992811367784331,0.0005232169822239936
1468.9243932626687,1468.9243932626687,0.9999726145223843,0.0005231924394119074
1468.9313376961006,1468.9313376961006,0.9989362790010488,0.0005230192862938109
1468.9382821295326,1468.9382821295326,0.9999888304189637,0.0005231984521961296
1468.9452265629648,1468.9452265629648,0.999618167862379,0.0005231448507417053
1468.9521709960238,1468.9521709960238,1.000449703225804,0.0005232127592430181
1468.959393206514,1468.959393206514,1.0002541555185904,0.000523280990456216
1468.9674487487366,1468.9674487487366,1.0002933687368523,0.00052331313095058
1468.9743931815162,1468.9743931815162,0.9998944561857759,0.0005232514888885129
1468.9813376142035,1468.9813376142035,1.0004630340916847,0.0005233582143298578
1468.9882820467972,1468.9882820467972,0.9994572626621598,0.0005231714314252644
1468.995226479205,1468.995226479205,1.0003794429408441,0.0005230746847726255
1469.002170911613,1469.002170911613,1.000551122786074,0.0005230935396731642
1469.0091153438339,1469.0091153438339,1.0006375971841281,0.0005232898606858857
1469.0160597758688,1469.0160597758688,0.9999238901905935,0.0005231852083944891
1469.0230042079038,1469.0230042079038,0.999704961383823,0.000523277787313389
1469.029948639846,1469.029948639846,0.9994479526217848,0.0005233298370511777
1469.0368930715085,1469.0368930715085,1.0001534557790257,0.0005234572063006289
1469.0438375031708,1469.0438375031708,1.0005204280822895,0.0005234299959701561
1469.05078193474,1469.05078193474,1.0000777682404354,0.0005234687820746032
1469.0577263661235,1469.0577263661235,0.9996161180828584,0.0005234880408585441
1469.0646707975068,1469.0646707975068,0.9997371261477939,0.0005234577005783938
1469.0716152286107,1469.0716152286107,1.0001796476106213,0.0005235552186750026
1469.0785596597143,1469.0785596597143,1.0004920768781294,0.0005237075138357401
1469.0855040906317,1469.0855040906317,0.9992802078594106,0.0005234400094996784
1469.0924485214557,1469.0924485214557,0.9998128062428568,0.0005235119183248165
1469.099392952187,1469.099392952187,1.0006958002239406,0.0005234898816356836
1469.1063373828251,1469.1063373828251,1.000012109968346,0.0005235213367078477
1469.1132818131841,1469.1132818131841,1.0001234704680806,0.0005234786351225741
1469.1202262435424,1469.1202262435424,0.9995746531602754,0.000523334343925984
1469.1271706739012,1469.1271706739012,1.000005351538272,0.0005234542536440868
1469.1341151039805,1469.1341151039805,0.9999902103580508,0.000523553498698376
1469.1410595339664,1469.1410595339664,0.99958409378699,0.00052345658149471
1469.1480039638602,1469.1480039638602,1.000049473452942,0.000523449087301288
1469.1549483936592,1469.1549483936592,1.0005344181655043,0.0005234629338426813
1469.161892823366,1469.161892823366,1.0003489211587735,0.0005233882828108889
1469.1688372528865,1469.1688372528865,0.9995338945740813,0.0005232964368092696
1469.1757816824072,1469.1757816824072,1.0007150541039345,0.0005233035602411628
1469.1827261116484,1469.1827261116484,0.998787246772028,0.000523183196830293
1469.1896705408894,1469.1896705408894,0.9998490417726453,0.0005231925951520231
1469.1966149699442,1469.1966149699442,1.0002269758262055,0.0005231253869785199
1469.203559399092,1469.203559399092,0.9996285629050222,0.0005230122421157212
1469.2105038278676,1469.2105038278676,1.0011622641919224,0.0005232801532059984
1469.2174482566431,1469.2174482566431,1.0001564587732006,0.0005231791014893044
1469.224392685232,1469.224392685232,0.9993608353091037,0.0005231212073533112
1469.2313371137282,1469.2313371137282,1.0003969832789363,0.0005232339628228525
1469.238281542131,1469.238281542131,1.0003248059324246,0.0005232941068489589
1469.245225970441,1469.245225970441,1.0003664009170583,0.0005233531958467698
1469.2521703985644,1469.2521703985644,0.9996636460394205,0.0005232645461053324
1469.259114826688,1469.259114826688,0.998880061184947,0.0005231521065429232
1469.266059254532,1469.266059254532,1.0000884131682306,0.000523228712425879
1469.273003682376,1469.273003682376,1.000242279686082,0.0005231488447982995
1469.2799481101274,1469.2799481101274,0.9993524508015794,0.0005232612769613093
1469.286892537785,1469.286892537785,1.0009773554339203,0.000523379274496258
1469.2938369651633,1469.2938369651633,1.000234198292492,0.0005231538513070907
1469.3007813925417,1469.3007813925417,0.9993558744820394,0.0005231162960295935
1469.3077258198268,1469.3077258198268,0.999960722585892,0.0005232244071986973
1469.3146702469264,1469.3146702469264,1.000239689255175,0.0005229659385061964
1469.3216146739323,1469.3216146739323,1.0000283785732962,0.0005229815853138944
1469.3285591008448,1469.3285591008448,1.0000292996329796,0.0005226809681589375
1469.3355035276643,1469.3355035276643,0.9994912537267183,0.0005229346399901236
1469.3424479542045,1469.3424479542045,0.9999249414636473,0.0005228307014132599
1469.3493923810245,1469.3493923810245,1.0007129860062096,0.0005229147669367775
1469.3563368074715,1469.3563368074715,0.9998247738963982,0.0005227800151063552
1469.363281233546,1469.363281233546,0.9997675751519445,0.000522631339413977
1469.3702256599004,1469.3702256599004,1.0008204969692636,0.0005227017298829163
1469.3771700858815,1469.3771700858815,0.9994036086889061,0.0005223177893850042
1469.3841145119563,1469.3841145119563,0.999655472095772,0.0005224007683970772
1469.3910589377515,1469.3910589377515,0.9990630045078666,0.0005224433016651874
1469.3980033635466,1469.3980033635466,1.0013204874479926,0.0005227038117956685
1469.4049477891556,1469.4049477891556,1.0003917748440287,0.0005224304217820873
1469.411892214764,1469.411892214764,0.9997816390581609,0.0005224041154007969
1469.418836640187,1469.418836640187,0.9996402890945678,0.0005224281214155484
1469.4257810655167,1469.4257810655167,1.000339886262859,0.0005223317745534835
1469.432725490567,1469.432725490567,1.0003950801737236,0.0005226471630971307
1469.43966991571,1469.43966991571,0.9999910389524395,0.0005223731549494638
1469.446614340574,1469.446614340574,1.0003965270140998,0.0005227179891429672
1469.4535587654377,1469.4535587654377,0.9995822918416636,0.0005226929402463508
1469.4605031902083,1469.4605031902083,1.0011493828976725,0.0005229098339180644
1469.4674476147932,1469.4674476147932,0.9995433290442026,0.0005225456304278318
1469.4743920393778,1469.4743920393778,1.0001885145648501,0.0005228482689461158
1469.4813364636825,1469.4813364636825,1.0006219978000197,0.0005228961401959405
1469.4882808880807,1469.4882808880807,0.9997235793220043,0.0005228752301384653
1469.4952253121994,1469.4952253121994,1.0000506333216852,0.000523001997713283
1469.5021697363186,1469.5021697363186,1.0001515566759684,0.0005232038186768428
1469.509114159972,1469.509114159972,0.9998690208844518,0.0005232168393041574
1469.5160585839042,1469.5160585839042,0.9999026203547755,0.000523540627087784
1469.523003007557,1469.523003007557,0.9999010891206878,0.0005234195514343613
1469.5299474312105,1469.5299474312105,0.9991565590460244,0.0005234651175101124
1469.5368918546778,1469.5368918546778,1.00030039698523,0.0005234834099672055
1469.5438362780515,1469.5438362780515,1.0004377213835753,0.0005236713695849594
1469.5507807012386,1469.5507807012386,1.000381403696872,0.0005235793733110301
1469.5577251243328,1469.5577251243328,0.9997883104439669,0.0005234119083750838
1469.5646695474272,1469.5646695474272,0.9994737514937222,0.000523358962059049
1469.5716139702424,1469.5716139702424,0.999797229583077,0.0005234645528934661
1469.5785583930574,1469.5785583930574,1.0003231622526543,0.0005236576506067256
1469.585502815779,1469.585502815779,0.9997376580078058,0.0005237251110125279
1469.5924472383151,1469.5924472383151,1.0007903934785884,0.0005237891826483952
1469.5993916607567,1469.5993916607567,0.9996249638050685,0.0005237216433954418
1469.6063360831063,1469.6063360831063,1.0005457259903658,0.0005239605412973478
1469.6132805052696,1469.6132805052696,0.9998567465143025,0.0005236292236631996
1469.6202249273395,1469.6202249273395,1.0004538326069963,0.0005238791321393431
1469.6271693495023,1469.6271693495023,0.9998336357896112,0.0005237090040950356
1469.634113771293,1469.634113771293,0.9993763634463869,0.0005235457663204188
1469.6410581930834,1469.6410581930834,0.998810604534988,0.0005234388045792917
1469.6480026146878,1469.6480026146878,1.000189351827013,0.0005237251176727129
1469.654947036199,1469.654947036199,1.0002369770870618,0.0005236961576382405
1469.661891457617,1469.661891457617,1.0009167962511618,0.0005237117190513719
1469.6688358789415,1469.6688358789415,0.999813897196615,0.0005235728881022927
1469.67578030008,1469.67578030008,0.9996891613617545,0.0005237100347445483
1469.6827247212188,1469.6827247212188,1.000338313962578,0.0005236389127245082
1469.6896691421712,1469.6896691421712,1.0009471547369908,0.0005237829416494914
1469.6966135630305,1469.6966135630305,0.999306933988294,0.0005233462014156346
1469.7035579837034,1469.7035579837034,1.000177323689098,0.0005235376209779913
1469.7105024043763,1469.7105024043763,0.999808057627375,0.000523666043995252
1469.7174468249555,1469.7174468249555,0.9998185276734022,0.0005237169603296443
1469.7243912452566,1469.7243912452566,0.9999983137016375,0.0005236441333507974
1469.73133566565,1469.73133566565,1.0008928504430272,0.0005240016890519378
1469.7382800857642,1469.7382800857642,0.9994925392618621,0.0005237117330977592
1469.7452245057848,1469.7452245057848,0.9994214548567453,0.0005238285386114638
1469.752168925806,1469.752168925806,0.9995315966515411,0.0005237229805512248
1469.759113345641,1469.759113345641,1.000189001735317,0.0005238116153925951
1469.7660577652891,1469.7660577652891,0.9993643991616447,0.0005236585796614594
1469.7730021847517,1469.7730021847517,1.000413158189759,0.0005236193913634359
1469.7799466042138,1469.7799466042138,1.0004975687198383,0.0005236922923773227
1469.786891023676,1469.786891023676,1.000577504062019,0.0005238298669254084
1469.7938354431383,1469.7938354431383,0.9999220422042823,0.0005236468434591712
1469.8007798621345,1469.8007798621345,1.0001542171265245,0.0005238329452613252
1469.8077242812244,1469.8077242812244,1.0001559692316813,0.0005235756386704361
1469.8146687002213,1469.8146687002213,1.000384807353028,0.0005236360447739423
1469.8216131189379,1469.8216131189379,0.9988749884306369,0.0005234400808603989
1469.8285575376551,1469.8285575376551,0.9996469234680483,0.000523751219620056
1469.8355019562791,1469.8355019562791,1.000109442117235,0.0005238392591892762
1469.84244637481,1469.84244637481,0.9998134555511029,0.0005238004217959634
1469.8493907931547,1469.8493907931547,1.0002318791155616,0.000523979197388672
1469.8563352114065,1469.8563352114065,1.0009307424569074,0.0005240414684738761
1469.8632796295642,1469.8632796295642,0.9999052936149472,0.0005240948219786448
1469.8702240476298,1469.8702240476298,1.0002315753165003,0.0005238148893861055
1469.8771684655087,1469.8771684655087,0.9996998828855908,0.000523877844501711
1469.8841128832944,1469.8841128832944,0.9990587796329475,0.000523877634543662
1469.8910573009875,1469.8910573009875,1.0002478111401794,0.0005237347175699879
1469.8980017184938,1469.8980017184938,0.9997541206010553,0.0005238667442673483
1469.9049461359068,1469.9049461359068,0.9999709843348359,0.000523954243032348
1469.9118905534135,1469.9118905534135,1.000605008516096,0.0005240236654457295
1469.9188349706405,1469.9188349706405,0.9998247371413778,0.0005239522227243451
1469.9257793877746,1469.9257793877746,1.000329968855886,0.0005241011729650121
1469.9327238048154,1469.9327238048154,1.0000195026562113,0.0005239649632674534
1469.9396682215765,1469.9396682215765,0.9996314685296349,0.0005239504410249864
1469.9466126383381,1469.9466126383381,1.00007350574838,0.0005240227178927575
1469.9535570550993,1469.9535570550993,1.000460616934671,0.0005238542149328253
1469.9605014716744,1469.9605014716744,0.9999839629950863,0.0005240992187196446
1469.9674458880636,1469.9674458880636,0.999924480803364,0.0005239943129775502
1469.974390304452,1469.974390304452,1.0005096518305874,0.0005240419594889277
1469.9813347206546,1469.9813347206546,0.9992388040315312,0.0005240959140617487
1469.988279136764,1469.988279136764,0.9999096451614188,0.0005239611908103507
1469.995223552687,1469.995223552687,0.9990637069375907,0.0005238635436040936
1470.0021679687038,1470.0021679687038,0.9999031217925867,0.0005238645608086843
1470.0091123843474,1470.0091123843474,1.0000557387283646,0.0005237219787857464
1470.0160568000845,1470.0160568000845,1.00042438938484,0.000523899330816226
1470.0230012156348,1470.0230012156348,1.0003865068212705,0.0005240392785106766
1470.0299456310925,1470.0299456310925,1.0005790593667476,0.0005240652404516623
1470.036890046364,1470.036890046364,0.999835083029757,0.0005239966627142939
1470.0438344615418,1470.0438344615418,1.0010651477941366,0.0005242233427798201
1470.0507788766267,1470.0507788766267,0.9995415033331939,0.0005239606808267742
1470.0577232917124,1470.0577232917124,1.000051816247765,0.0005241552058522322
