time,time,flux,flux_err
1325.299632116401,1325.299632116401,1.0000386761465443,0.0003974809354084688
1325.307965484223,1325.307965484223,1.0003487923403536,0.0003977070798038492
1325.3162988522542,1325.3162988522542,0.9995283982593244,0.0003975915791211626
1325.3246322205127,1325.3246322205127,1.0002723937624076,0.0003978408472008514
1325.3322711415967,1325.3322711415967,1.0000430426590856,0.00036319173946813236
1325.3392156154737,1325.3392156154737,1.0001836434733304,0.0003633399576591472
1325.346160089502,1325.346160089502,0.9991883915476425,0.0003633146592210516
1325.3531045636762,1325.3531045636762,1.0001436884790127,0.0003636021328966201
1325.3600490379781,1325.3600490379781,0.9995311694738443,0.00036363724651861063
1325.3669935124315,1325.3669935124315,1.0004788335089958,0.0003638669988441178
1325.373937987036,1325.373937987036,0.9996921251348919,0.00036389304766591305
1325.3808824617688,1325.3808824617688,0.9999583547522629,0.00036405990385656405
1325.3878269366412,1325.3878269366412,0.9998084133841667,0.00036418614272538176
1325.394771411659,1325.394771411659,1.0001944811960775,0.00036440744845119016
1325.401715886805,1325.401715886805,1.0010661485739525,0.00036469509411073413
1325.408660362085,1325.408660362085,1.0000776009895147,0.00036465802688889266
1325.4156048374987,1325.4156048374987,1.0001794211766646,0.00036484794346978414
1325.4225493130464,1325.4225493130464,0.999741104532321,0.00036495158302112966
1325.4294937887219,1325.4294937887219,1.0000797581822822,0.0003651616888108577
1325.4364382645374,1325.4364382645374,0.9997979022158745,0.00036533372509273165
1325.4433827404573,1325.4433827404573,0.9994057936363697,0.0003654119545477443
1325.4503272165173,1325.4503272165173,1.0000800637127227,0.00036566470601831724
1325.4572716927053,1325.4572716927053,0.9997641675209156,0.0003657854020307519
1325.4642161690094,1325.4642161690094,1.0003931534943322,0.00036597987821081847
1325.471160645436,1325.471160645436,1.0001068980457477,0.00036615532593645123
1325.4781051219848,1325.4781051219848,0.9999609877653366,0.00036627190057472926
1325.4850495986557,1325.4850495986557,0.9998831345676467,0.00036642338514089877
1325.4919940754435,1325.4919940754435,0.999681363603132,0.00036658660206729355
1325.498938552359,1325.498938552359,0.9997324854315506,0.0003667805658407547
1325.5058830293733,1325.5058830293733,1.0006615025862053,0.0003670901639041301
1325.5128275065042,1325.5128275065042,0.9996754103089129,0.00036708702723723026
1325.5197719837513,1325.5197719837513,0.9996960208360776,0.00036727746465658193
1325.5267164611032,1325.5267164611032,0.9999291273942703,0.0003675235154164205
1325.5336609385718,1325.5336609385718,1.000202700836646,0.00036776576902423344
1325.5406054161508,1325.5406054161508,1.0002767592165953,0.0003679728025665325
1325.5475498938408,1325.5475498938408,0.9998379267539492,0.00036806726737406736
1325.554494371629,1325.554494371629,1.000280983530821,0.0003682931057540693
1325.5614388495287,1325.5614388495287,1.0001810418611252,0.0003684940500598444
1325.5683833275384,1325.5683833275384,0.9995750822416294,0.0003685743359425926
1325.5753278056354,1325.5753278056354,1.000030981854802,0.00036881216126555467
1325.5822722838377,1325.5822722838377,0.9999807167095284,0.00036892320728522154
1325.5892167621553,1325.5892167621553,1.000228903321031,0.0003691140795027646
1325.5961612405556,1325.5961612405556,0.9993402916008096,0.0003691341495497692
1325.6031057190714,1325.6031057190714,1.0005836734773834,0.0003694022385863013
1325.6100501976694,1325.6100501976694,0.9998345254237868,0.0003693748311288713
1325.6169946763778,1325.6169946763778,1.0001920023693,0.0003694899954718588
1325.6239391551617,1325.6239391551617,1.000033186291224,0.0003695368218981475
1325.6308836340504,1325.6308836340504,0.9997958143915568,0.0003695439758928147
1325.6378281130324,1325.6378281130324,0.999751784925887,0.0003695856700096096
1325.6447725921012,1325.6447725921012,0.9998347126957284,0.00036956458118269996
1325.6517170712636,1325.6517170712636,1.0004348397976581,0.0003696544978112145
1325.658661550525,1325.658661550525,1.0001624334205388,0.0003696034723145986
1325.665606029862,1325.665606029862,0.9997639870884442,0.0003695865902825713
1325.6725505092918,1325.6725505092918,1.0001606944086145,0.00036960506203545247
1325.6794949888038,1325.6794949888038,0.9993649979580297,0.0003695593192425941
1325.6864394684142,1325.6864394684142,1.0005982840508434,0.00036972095390878636
1325.6933839480942,1325.6933839480942,0.9997421460454508,0.0003696842638679993
1325.7003284278567,1325.7003284278567,1.0003725093482916,0.00036979839716087836
1325.7072729077172,1325.7072729077172,1.000431799240107,0.00036983275281717476
1325.7142173876478,1325.7142173876478,0.9996000642525755,0.0003697903652021599
1325.721161867654,1325.721161867654,0.9998314351940241,0.0003699138350172734
1325.7281063477478,1325.7281063477478,0.9997655841020088,0.0003699605096721768
1325.7350508279171,1325.7350508279171,1.0000963991953988,0.00037005129679415694
1325.7419953081735,1325.7419953081735,0.9996211962768484,0.00037010420297359903
1325.7489397884883,1325.7489397884883,1.000322155879379,0.00037028304088140894
1325.755884268891,1325.755884268891,1.0001809565537378,0.0003703278618937617
1325.7628287493685,1325.7628287493685,1.0000670372568101,0.00037039593308490094
1325.7697732299162,1325.7697732299162,1.0001427328559358,0.0003704735001489508
1325.7767177105336,1325.7767177105336,0.9997309190158857,0.0003705200370964368
1325.7836621912268,1325.7836621912268,0.999284918933467,0.0003705621911328674
1325.7906066719956,1325.7906066719956,0.9999825035896915,0.00037067086594274733
1325.7975511528284,1325.7975511528284,1.0007943142219253,0.00037087925728415325
1325.8044956337314,1325.8044956337314,0.999743701475824,0.00037078532749696487
1325.8114401147097,1325.8114401147097,1.0008899457286407,0.0003710087403836529
1325.818384595758,1325.818384595758,0.9997374880180377,0.0003709323749146444
1325.8253290768528,1325.8253290768528,1.0000146336837301,0.00037102518591142534
1325.8322735580234,1325.8322735580234,1.0000269514773825,0.00037099322823189987
1325.8392180392752,1325.8392180392752,0.9995454728681225,0.0003709685142308885
1325.8461625205737,1325.8461625205737,0.9993314610595345,0.00037089572002334167
1325.8531070019417,1325.8531070019417,0.9999153663261066,0.00037099636573031426
1325.8600514833686,1325.8600514833686,1.000166355488822,0.0003709724180423572
1325.8669959648591,1325.8669959648591,1.001018978762864,0.00037103242576357195
1325.87394044642,1325.87394044642,0.9997044442503201,0.00037077060933018107
1325.880884928027,1325.880884928027,0.999607039732598,0.0003706004286030064
1325.8878294097037,1325.8878294097037,1.000835080643045,0.00037069054375685743
1325.8947738914328,1325.8947738914328,0.9997686289900608,0.00037047175622808366
1325.9017183732262,1325.9017183732262,0.9993071416729317,0.0003703518405601419
1325.908662855078,1325.908662855078,0.9999340262877142,0.0003703437412923928
1325.9156073369873,1325.9156073369873,1.0003788872715447,0.0003703360751972705
1325.9225518189437,1325.9225518189437,0.9997674683194951,0.0003702475203661001
1325.929496300964,1325.929496300964,1.000355239932388,0.0003702467274332474
1325.936440783031,1325.936440783031,1.0001483268290206,0.00037018438808826017
1325.9433852651678,1325.9433852651678,0.9999103571482978,0.00037009703165010946
1325.9503297473395,1325.9503297473395,0.9996056079699995,0.0003700209169581416
1325.9572742295693,1325.9572742295693,0.9999017174302919,0.00037005028679613005
1325.9653298290268,1325.9653298290268,1.0000428542643593,0.00037005936246457973
1325.9725520906684,1325.9725520906684,1.0004288104250583,0.00037006528164471606
1325.9794965730666,1325.9794965730666,1.0001317654464825,0.00037005868057392484
1325.9864410555122,1325.9864410555122,1.0000352486382382,0.00037002198881974115
1325.993385537998,1325.993385537998,0.9999039058261865,0.0003700132218782282
1326.0003300205542,1326.0003300205542,0.9995402938370221,0.00036998431481274484
1326.0072745031443,1326.0072745031443,0.9996664490460354,0.0003700739571474858
1326.014218985782,1326.014218985782,1.0003723973503906,0.0003702076154243817
1326.0211634684717,1326.0211634684717,0.9999059853006456,0.0003702271317508847
1326.0281079512083,1326.0281079512083,1.0001349049544812,0.00037039505663569476
1326.0350524339792,1326.0350524339792,1.0002173342393352,0.00037039359129446283
1326.0419969168083,1326.0419969168083,1.000522275562671,0.0003704061738861764
1326.0489413996731,1326.0489413996731,0.9997297365322038,0.0003702458178812578
1326.0558858825893,1326.0558858825893,0.9994151007551368,0.000370203540452063
1326.0628303655412,1326.0628303655412,0.9998739860199976,0.000370272948368071
1326.0697748485395,1326.0697748485395,0.999969396123966,0.0003703383002531202
1326.0767193315899,1326.0767193315899,1.0002234945152482,0.00037037256354744054
1326.0836638146582,1326.0836638146582,1.000014664831618,0.0003703436953284609
1326.0906082977904,1326.0906082977904,1.0006054229047927,0.00037046476226170843
1326.0975527809574,1326.0975527809574,0.9997597870596259,0.000370316476185056
1326.1044972641653,1326.1044972641653,1.000073096636964,0.0003704319087531208
1326.1114417474132,1326.1114417474132,1.0000277528744257,0.00037034880340738006
1326.1183862306855,1326.1183862306855,0.9995181344984342,0.00037032749725848763
1326.1253307140091,1326.1253307140091,0.9998427414123476,0.00037032776461058453
1326.1322751973687,1326.1322751973687,1.0001354652871686,0.0003703648716994918
1326.1392196807683,1326.1392196807683,1.000058773354969,0.0003703149806931341
1326.1461641642034,1326.1461641642034,0.9999100100411924,0.00037033194478286197
1326.153108647673,1326.153108647673,0.9997759250168123,0.0003702881814323882
1326.1600531311833,1326.1600531311833,1.000690745334637,0.00037040253051149827
1326.1669976147289,1326.1669976147289,1.0004696981790293,0.00037042193348717564
1326.1739420983026,1326.1739420983026,0.999692865759003,0.0003702404762562418
1326.1808865819125,1326.1808865819125,0.9993981510480902,0.000370226413188767
1326.1878310655568,1326.1878310655568,1.0002224646044129,0.0003702688905634393
1326.19477554923,1326.19477554923,1.0007165292823548,0.00037037139317491893
1326.201720032956,1326.201720032956,0.999535017547057,0.00037018655533545004
1326.2086645166994,1326.2086645166994,0.9993232084817553,0.0003701621526033218
1326.2156090004833,1326.2156090004833,0.9996515797590846,0.000370182251337293
1326.2225534842848,1326.2225534842848,0.9999487882806113,0.0003702026738697227
1326.229497968127,1326.229497968127,1.0006406023848147,0.0003703221169537218
1326.2364424520042,1326.2364424520042,0.9998986228630068,0.00037018069507414907
1326.24338693591,1326.24338693591,1.0004009535187095,0.00037020510575373316
1326.2503314198461,1326.2503314198461,1.0003187248037972,0.00037019318823017136
1326.2572759038162,1326.2572759038162,1.0004132092665758,0.00037023382356593456
1326.2642203878038,1326.2642203878038,0.9995671866752662,0.0003700149964060316
1326.2711648718207,1326.2711648718207,0.9994775943240922,0.0003700194357008083
1326.2781093558722,1326.2781093558722,1.0002159310589331,0.000370072691875142
1326.2850538399534,1326.2850538399534,0.9996792971247495,0.00037000165393772505
1326.2919983240747,1326.2919983240747,0.9995673405581377,0.0003699463599472289
1326.2989428082024,1326.2989428082024,0.9998277966573041,0.0003699704040245878
1326.3058872923586,1326.3058872923586,1.000053931520581,0.00037000669205782655
1326.3128317765506,1326.3128317765506,1.0002878137595255,0.0003700724968271508
1326.3197762607651,1326.3197762607651,0.9999204271154427,0.0003700178153312938
1326.326720745003,1326.326720745003,0.9997687290102089,0.000369985957687241
1326.333665229276,1326.333665229276,1.000506886736951,0.0003700553153550511
1326.3406097135608,1326.3406097135608,1.0003302784063357,0.0003700417586069695
1326.3486653153755,1326.3486653153755,0.9998753577060109,0.000370039127753295
1326.357276475961,1326.357276475961,0.999657343478157,0.00037001613210104714
1326.364220960339,1326.364220960339,0.9994027344676434,0.0003700499867561962
1326.3711654447284,1326.3711654447284,1.0002983767113123,0.0003701764809525558
1326.3781099291525,1326.3781099291525,0.999918141283058,0.00037016864084357204
1326.3850544135998,1326.3850544135998,1.0001601658383432,0.0003701933181249381
1326.3919988980651,1326.3919988980651,1.000447139507091,0.00037023330861599005
1326.3989433825595,1326.3989433825595,0.9998941221612416,0.00037027061432733105
1326.4058878670708,1326.4058878670708,1.00008065425247,0.0003702386758053785
1326.4128323516006,1326.4128323516006,0.9995212970876558,0.000370156025580482
1326.4197768361526,1326.4197768361526,0.9997003044663556,0.0003701936619857748
1326.4267213207338,1326.4267213207338,1.0001147299934137,0.0003702989584683041
1326.4336658053269,1326.4336658053269,0.9998922363540714,0.00037031955321339873
1326.4406102899434,1326.4406102899434,1.0003153639744216,0.0003703720200036614
1326.447554774583,1326.447554774583,1.000548705640536,0.00037040917901924006
1326.45449925924,1326.45449925924,0.9997273160404608,0.00037032411634478526
1326.4614437439147,1326.4614437439147,1.000542400694441,0.000370490891619635
1326.4683882286242,1326.4683882286242,0.9997663230859644,0.00037035992899679833
1326.4753327133337,1326.4753327133337,0.9994478511124723,0.000370361736140114
1326.482277198055,1326.482277198055,0.9998368391263245,0.00037039757181579205
1326.489221682811,1326.489221682811,0.9999077366929342,0.00037049498962542926
1326.496166167579,1326.496166167579,0.9998668585222912,0.00037045848193466096
1326.5031106523697,1326.5031106523697,1.0000636669224845,0.0003704605276221264
1326.5100551371727,1326.5100551371727,0.999808800105311,0.00037053239917958015
1326.5169996219925,1326.5169996219925,1.000974597194992,0.0003706508899984571
1326.5239441068245,1326.5239441068245,1.000442783344147,0.0003706933099290257
1326.5308885916795,1326.5308885916795,0.9995732467600373,0.00037063400131989857
1326.5378330765575,1326.5378330765575,0.9998655275454988,0.0003706670856277471
1326.5447775614477,1326.5447775614477,0.9999893771220718,0.0003707618314381724
1326.5517220463494,1326.5517220463494,0.9999708794196931,0.00037084944644703085
1326.5586665312683,1326.5586665312683,0.999678030095852,0.0003707766617655715
1326.565611016199,1326.565611016199,1.0001279405126693,0.0003708662274022331
1326.5725555011472,1326.5725555011472,0.9993297939647972,0.000370786567707952
1326.5794999861187,1326.5794999861187,1.000199117045277,0.00037091060428398164
1326.5864444711017,1326.5864444711017,1.0001147078172712,0.0003709655819306264
1326.5933889561024,1326.5933889561024,1.0002442709252448,0.000370894966688028
1326.600333441103,1326.600333441103,1.0004418196906602,0.0003709316761404002
1326.607277926115,1326.607277926115,0.9998379501452506,0.0003709119291702439
1326.6142224111506,1326.6142224111506,0.9996317716908794,0.0003709255212674508
1326.6211668962032,1326.6211668962032,1.0003324349265024,0.000370967288637823
1326.6281113812624,1326.6281113812624,0.9998418167333629,0.0003708945488489014
1326.6350558663385,1326.6350558663385,1.0003119755738803,0.0003709799786833252
1326.6420003514263,1326.6420003514263,0.9996390800627768,0.00037089074066328653
1326.648944836526,1326.648944836526,1.000005443684743,0.00037097176211526163
1326.655889321637,1326.655889321637,1.00049392596071,0.0003709977858378611
1326.6628338067599,1326.6628338067599,0.999821019825015,0.0003709043661544831
1326.669778291894,1326.669778291894,0.9999588245187292,0.0003708719166984414
1326.6767227770404,1326.6767227770404,1.000001294356809,0.0003707953691790338
1326.683667262198,1326.683667262198,0.9995798212922791,0.0003706599676396567
1326.6920006444084,1326.6920006444084,0.9997121101189379,0.00037067831762954863
1326.6989451295835,1326.6989451295835,1.0001316761636319,0.00037064219087774066
1326.7058896147819,1326.7058896147819,1.0003397480325058,0.0003705753765442982
1326.7136674382155,1326.7136674382155,0.9999316542912119,0.0003704992468392704
1326.7211674822433,1326.7211674822433,0.9998651135752548,0.0003704456008540458
1326.7281119674706,1326.7281119674706,1.0002417948045061,0.0003704407371802103
1326.735056452704,1326.735056452704,1.0001537463450954,0.0003703477977648109
1326.7420009379553,1326.7420009379553,1.0001481012945634,0.00037032061825686784
1326.7489454232114,1326.7489454232114,0.9999996217121154,0.0003703141378052602
1326.7558899084738,1326.7558899084738,0.9997005097206303,0.0003701741396810003
1326.762834393754,1326.762834393754,1.000008105568935,0.0003701989488379456
1326.7697788790165,1326.7697788790165,0.9997080316654255,0.00037018109078685457
1326.7767233643078,1326.7767233643078,0.9998147174941071,0.00037015464032496745
1326.7836678496285,1326.7836678496285,0.9996946974314985,0.0003700557018764759
1326.7906123349264,1326.7906123349264,1.0000765661033688,0.0003701403153751531
1326.7975568202407,1326.7975568202407,0.9999738002338979,0.0003701199353036057
1326.8045013055682,1326.8045013055682,1.0001609632046988,0.00037021400721020536
1326.8114457908998,1326.8114457908998,0.9998386058123778,0.0003701312831091213
1326.818390276238,1326.818390276238,1.0001787817096222,0.00037017271846811247
1326.825334761582,1326.825334761582,1.0000426131046176,0.0003702010800065458
1326.8322792469378,1326.8322792469378,1.0001479714047492,0.0003701061433360738
1326.8392237323048,1326.8392237323048,1.0003376813366442,0.00037018604934750335
1326.8461682176662,1326.8461682176662,0.9992781164514885,0.00037002793529845835
1326.8531127030394,1326.8531127030394,1.000228455338338,0.00037018000259398775
1326.8600571884185,1326.8600571884185,1.0000111755193288,0.00037011101032401883
1326.8670016738092,1326.8670016738092,1.0000265346864639,0.00037008853193629354
1326.8739461591997,1326.8739461591997,0.9998842698625492,0.0003700395730245524
1326.8808906446015,1326.8808906446015,1.0000390739613072,0.0003699631206499634
1326.887835130004,1326.887835130004,1.0006134303884424,0.00036995062856854787
1326.8947796154175,1326.8947796154175,1.0003086765058646,0.0003698838979044158
1326.9017241008376,1326.9017241008376,0.9995455415547522,0.00036960710846452413
1326.9086685862453,1326.9086685862453,0.9998872387659123,0.0003695531511381126
1326.9156130716824,1326.9156130716824,0.9994663486593616,0.00036942678274368504
1326.9225575571195,1326.9225575571195,1.0001853828790541,0.00036939242005986717
1326.9295020425568,1326.9295020425568,1.000265052689723,0.0003693060218723436
1326.936446527994,1326.936446527994,1.0002016163453575,0.00036920823026207324
1326.9433910134308,1326.9433910134308,1.0001220437192695,0.0003690787317407126
1326.9503354988974,1326.9503354988974,1.0000665059730267,0.00036901350725870744
1326.9572799843459,1326.9572799843459,1.0001847248520557,0.0003689075831878893
1326.9642244698066,1326.9642244698066,1.0001003800852888,0.0003688392226231083
1326.9711689552669,1326.9711689552669,1.0000205400011724,0.0003687606359798174
1326.9781134407388,1326.9781134407388,0.9994638256460915,0.00036860666547763237
1326.985057926211,1326.985057926211,0.9999717271006677,0.00036862666427315156
1326.9920024116832,1326.9920024116832,1.0001834145216062,0.0003686235549284641
1326.998946897161,1326.998946897161,0.9997898869260521,0.00036853013893913564
1327.0058913826447,1327.0058913826447,0.9999625960950175,0.0003684987184241911
1327.0128358681225,1327.0128358681225,1.0001525092092673,0.00036853286033123304
1327.0197803536175,1327.0197803536175,1.0001748954771177,0.0003685111396095375
1327.0267248391015,1327.0267248391015,0.9996306518546174,0.00036842156972396024
1327.0336693245968,1327.0336693245968,1.0001325002752155,0.0003684966408448021
1327.0406138100975,1327.0406138100975,1.00027590814231,0.00036851272062445224
1327.0475582955933,1327.0475582955933,0.9999954474324703,0.00036844733196665414
1327.0545027810942,1327.0545027810942,0.999923398033532,0.0003684186752182129
1327.0625583842773,1327.0625583842773,0.999679209830117,0.0003684183602088449
