time,time,flux,flux_err
1438.0003594497136,1438.0003594497136,1.0001462845835267,0.00010888597715572747
1438.008692881279,1438.008692881279,1.000116412376476,0.0001087748070280869
1438.0163318600332,1438.0163318600332,0.999935130721275,9.921463960880027e-05
1438.0232763862246,1438.0232763862246,0.999798333063308,9.91379900573291e-05
1438.0302209123224,1438.0302209123224,0.9998848575460982,9.907880830921812e-05
1438.0371654382338,1438.0371654382338,0.9997843148196619,9.901797059981573e-05
1438.0441099641455,1438.0441099641455,1.0001681096645687,9.897946155778441e-05
1438.0510544898711,1438.0510544898711,0.9998229300138138,9.891745267134652e-05
1438.0579990156893,1438.0579990156893,1.0000777673906618,9.887443095333288e-05
1438.064943541322,1438.064943541322,1.0000564196058208,9.881940357529759e-05
1438.071888066861,1438.071888066861,1.0000381913122798,9.877157511325939e-05
1438.0788325922138,1438.0788325922138,1.0000634226661644,9.873648473137094e-05
1438.08577711766,1438.08577711766,0.9999659788107482,9.868857849234204e-05
1438.0927216429195,1438.0927216429195,1.0002349837329274,9.866704933459051e-05
1438.0996661680863,1438.0996661680863,0.9998315820801096,9.86220700442575e-05
1438.1066106930666,1438.1066106930666,0.9998553850770706,9.861104316425624e-05
1438.1135552178607,1438.1135552178607,0.9999599501089851,9.859391244628279e-05
1438.120499742748,1438.120499742748,1.0001579131115856,9.857860447959097e-05
1438.1274442673557,1438.1274442673557,1.0000175115063867,9.855939704800953e-05
1438.1343887919636,1438.1343887919636,0.9999076525577134,9.853622396868364e-05
1438.141333316292,1438.141333316292,0.9999350271854336,9.85298452322867e-05
1438.1482778405273,1438.1482778405273,1.0000706436494269,9.852347895130808e-05
1438.1552223647627,1438.1552223647627,0.9998866132101594,9.850038438492864e-05
1438.1621668887183,1438.1621668887183,1.0002449041424692,9.850535785369708e-05
1438.169111412581,1438.169111412581,0.9998991937552916,9.8470430571379e-05
1438.1760559363508,1438.1760559363508,1.000075600505425,9.846852768218585e-05
1438.183000459841,1438.183000459841,1.0000274960370574,9.845685911764835e-05
1438.1899449833313,1438.1899449833313,0.9998572114872522,9.843418048896152e-05
1438.1968895065424,1438.1968895065424,0.9999528004042867,9.841318682198374e-05
1438.203834029846,1438.203834029846,1.000032449717094,9.840910173115146e-05
1438.2107785526846,1438.2107785526846,1.000030829752944,9.839284022816889e-05
1438.217723075616,1438.217723075616,0.999968049566234,9.83769822846339e-05
1438.2246675982678,1438.2246675982678,1.000013699740073,9.837075976662252e-05
1438.2316121208269,1438.2316121208269,0.9998985055509447,9.835110408381194e-05
1438.2385566431062,1438.2385566431062,1.0001158345381191,9.834293235641358e-05
1438.245501165386,1438.245501165386,1.000013509008185,9.83302167635232e-05
1438.2524456872932,1438.2524456872932,1.000151594884978,9.832436437067896e-05
1438.2593902091999,1438.2593902091999,0.9998764221488206,9.830233574627614e-05
1438.2663347310136,1438.2663347310136,0.999907675974734,9.829845463596988e-05
1438.2732792525483,1438.2732792525483,1.0000321885059207,9.82956732982102e-05
1438.2802237738963,1438.2802237738963,0.9999447245932298,9.828634760425912e-05
1438.2871682951513,1438.2871682951513,1.0001880807756451,9.828144162851241e-05
1438.294112816127,1438.294112816127,1.0000960674374615,9.827759186875592e-05
1438.3010573370098,1438.3010573370098,0.9998119347134896,9.825362432965779e-05
1438.3080018577057,1438.3080018577057,1.0000794146652694,9.825517227912918e-05
1438.3149463782158,1438.3149463782158,0.9998040019953851,9.821988173062732e-05
1438.3218908985396,1438.3218908985396,0.9999588036492154,9.821324829716674e-05
1438.328835418677,1438.328835418677,1.0000551825932378,9.819574021378216e-05
1438.335779938628,1438.335779938628,1.000305703652256,9.817411376173099e-05
1438.3427244585796,1438.3427244585796,1.0000044077795613,9.812217009148748e-05
1438.349668978158,1438.349668978158,0.9999674298885892,9.80858871084827e-05
1438.3566134974578,1438.3566134974578,1.0000996146229952,9.804201159881493e-05
1438.3635580167568,1438.3635580167568,0.999865411805078,9.79752594870606e-05
1438.3705025357767,1438.3705025357767,1.000104183947562,9.792026332448625e-05
1438.3774470547035,1438.3774470547035,1.0000049314317403,9.789009640785281e-05
1438.384391573351,1438.384391573351,0.9998964349358571,9.784171992676905e-05
1438.3913360918118,1438.3913360918118,1.0000335454153937,9.781614501376077e-05
1438.3982806101799,1438.3982806101799,1.0001769714277384,9.779418089995464e-05
1438.4052251282683,1438.4052251282683,1.0000057661779846,9.77744337184835e-05
1438.4121696462644,1438.4121696462644,0.9999343860995167,9.772934143850549e-05
1438.419114164073,1438.419114164073,0.9999326459462777,9.772439940040805e-05
1438.4260586815099,1438.4260586815099,1.0001616306552337,9.773315109469804e-05
1438.4330031991326,1438.4330031991326,0.9996842134018568,9.770921695429106e-05
1438.4399477161967,1438.4399477161967,1.000040242202538,9.772136578515207e-05
1438.4468922331675,1438.4468922331675,0.999993185877502,9.772102955004603e-05
1438.4538367498594,1438.4538367498594,1.0002039813582777,9.773325691250991e-05
1438.4607812665513,1438.4607812665513,0.9999918279778018,9.770385098553467e-05
1438.4677257829633,1438.4677257829633,1.000069384107912,9.770446130441817e-05
1438.4746702992818,1438.4746702992818,0.9999382165384088,9.770701123565117e-05
1438.4816148151356,1438.4816148151356,1.0000126044063626,9.77198908558807e-05
1438.4885593310821,1438.4885593310821,0.9998848916609594,9.770278982116707e-05
1438.495503846656,1438.495503846656,0.999907526906037,9.768059427910131e-05
1438.5024483621369,1438.5024483621369,1.0000567791116244,9.771471141834705e-05
1438.5093928772453,1438.5093928772453,0.9999498208577371,9.771064332051685e-05
1438.516337392167,1438.516337392167,0.9999795088533532,9.770833338006392e-05
1438.5232819070893,1438.5232819070893,1.0000963338826567,9.772063414988083e-05
1438.5302264219185,1438.5302264219185,1.0000962628477967,9.772151770381414e-05
1438.5371709362817,1438.5371709362817,0.999989659006823,9.769636058332616e-05
1438.5441154506448,1438.5441154506448,1.0000698834419477,9.771845361245291e-05
1438.5510599646357,1438.5510599646357,0.9999294719918179,9.771150182685585e-05
1438.5580044785333,1438.5580044785333,0.9999644258541972,9.771538911209916e-05
1438.5649489921514,1438.5649489921514,0.9999557750571011,9.772035948607187e-05
1438.5718935056764,1438.5718935056764,0.999899138953867,9.771272187451886e-05
1438.5788380189226,1438.5788380189226,1.0001226885010577,9.771200489725529e-05
1438.5857825320745,1438.5857825320745,0.999922201897076,9.771940877158561e-05
1438.5927270448549,1438.5927270448549,0.9999708108675703,9.771798008703829e-05
1438.599671557728,1438.599671557728,1.0002367586958651,9.772266431487906e-05
1438.606616069949,1438.606616069949,1.0000156076017812,9.771493332995186e-05
1438.613560582357,1438.613560582357,0.999874972041542,9.771706066350239e-05
1438.6205050943918,1438.6205050943918,0.999813483864876,9.767408967949158e-05
1438.6274496062408,1438.6274496062408,0.9999705950329402,9.772077704252007e-05
1438.634394117996,1438.634394117996,1.0000806342735107,9.773168221580188e-05
1438.641338629472,1438.641338629472,0.9999167909281936,9.771482212233431e-05
1438.648283140762,1438.648283140762,0.9999433348601986,9.771744041772261e-05
1438.6552276517727,1438.6552276517727,1.0000979606342384,9.774122916563868e-05
1438.66217216269,1438.66217216269,1.0000703435599374,9.773641439761511e-05
1438.6691166734213,1438.6691166734213,0.9999415000621642,9.773184280527432e-05
1438.6760611838731,1438.6760611838731,1.0001337994290256,9.772112627765068e-05
1438.6830056943247,1438.6830056943247,0.9999135484510498,9.771820918075543e-05
1438.6899502042174,1438.6899502042174,0.9999375202315063,9.772118876141536e-05
1438.6968947142036,1438.6968947142036,0.9999101896472432,9.773178598165516e-05
1438.70383922391,1438.70383922391,0.9999218662038037,9.772470088982171e-05
1438.7107837334308,1438.7107837334308,1.0001894390628947,9.773563868433609e-05
1438.7177282426717,1438.7177282426717,0.9998756128049303,9.771944665442824e-05
1438.72467275182,1438.72467275182,1.000103941895061,9.772396892291655e-05
1438.731617260688,1438.731617260688,0.9999589669594485,9.772424835093418e-05
1438.7385617693703,1438.7385617693703,1.000009173664327,9.772869000304106e-05
1438.7455062779595,1438.7455062779595,1.0000663146911282,9.773285469939582e-05
1438.752450786362,1438.752450786362,0.9999741921580945,9.772937437260517e-05
1438.7593952942993,1438.7593952942993,1.0000868801441467,9.773390766932637e-05
1438.7663398022366,1438.7663398022366,0.9997772398711037,9.770289369259746e-05
1438.7732843100807,1438.7732843100807,1.0002340251135722,9.769677794775361e-05
1438.780228817552,1438.780228817552,1.000276936109566,9.77256195273921e-05
1438.7871733248373,1438.7871733248373,0.9998565267816373,9.77229385408015e-05
1438.7941178320295,1438.7941178320295,1.0002093079811527,9.774903506914065e-05
1438.8010623390353,1438.8010623390353,0.9999063900378575,9.77283120368697e-05
1438.8080068456686,1438.8080068456686,0.9999105361684183,9.77361731969588e-05
1438.8149513522087,1438.8149513522087,0.999905769583844,9.773120953924644e-05
1438.8218958585626,1438.8218958585626,0.9999876070546054,9.77470707267526e-05
1438.8288403647305,1438.8288403647305,1.000023759899277,9.773127723785372e-05
1438.8357848707121,1438.8357848707121,0.9999948047567333,9.77162637691198e-05
1438.8427293765067,1438.8427293765067,1.000039012897985,9.770052481392171e-05
1438.849673882116,1438.849673882116,1.0001133210785116,9.773934391454315e-05
1438.8566183873522,1438.8566183873522,1.0001017617121442,9.775066139113255e-05
1438.8635628925883,1438.8635628925883,1.0000395847109413,9.774595684798697e-05
1438.8705073975455,1438.8705073975455,1.0001699446881624,9.77426731754445e-05
1438.877451902316,1438.877451902316,0.9998285053365874,9.774048928476033e-05
1438.8843964069936,1438.8843964069936,1.000097379386597,9.773616738911829e-05
1438.8913409113916,1438.8913409113916,0.9998320488626733,9.772840250468721e-05
1438.8982854156036,1438.8982854156036,0.9999895601701295,9.768997965207541e-05
1438.9052299196294,1438.9052299196294,1.0000882097880726,9.774841197336154e-05
1438.9121744233755,1438.9121744233755,0.9999936463496051,9.774232715567496e-05
1438.9191189270282,1438.9191189270282,1.0000166985026782,9.773991903143369e-05
1438.9260634303093,1438.9260634303093,1.00005932801948,9.775950902141494e-05
1438.9330079335898,1438.9330079335898,0.9999993322310934,9.774284648400122e-05
1438.9399524368703,1438.9399524368703,1.0003410499838157,9.776929852864784e-05
1438.9468969395923,1438.9468969395923,0.9998709962155876,9.774831074131843e-05
1438.9538414423137,1438.9538414423137,0.9998789934588113,9.775740953076578e-05
1438.9607859448495,1438.9607859448495,1.000003110670919,9.772420969025682e-05
1438.9677304471052,1438.9677304471052,1.000080403378979,9.77742248431637e-05
1438.974674949175,1438.974674949175,0.9999054609742011,9.777060015571125e-05
1438.9816194511518,1438.9816194511518,1.000139115925836,9.777538847322649e-05
1438.9885639528488,1438.9885639528488,1.0000509420012187,9.777312128882093e-05
1438.9955084543603,1438.9955084543603,1.0001112278466118,9.778028395858562e-05
1439.002452955685,1439.002452955685,1.000013206138353,9.777800992349154e-05
1439.0093974568238,1439.0093974568238,0.9998852788235929,9.7764580496136e-05
1439.016341957869,1439.016341957869,1.0000442429319931,9.777093370818871e-05
1439.0232864585419,1439.0232864585419,0.999849784179586,9.775199780019333e-05
1439.0302309592146,1439.0302309592146,0.9999434798813593,9.777033256216732e-05
1439.0371754596079,1439.0371754596079,0.999973062697264,9.77661886623866e-05
1439.0441199598154,1439.0441199598154,1.0000808352759725,9.7773384543953e-05
1439.0510644598364,1439.0510644598364,1.0000274025121176,9.776273131879109e-05
1439.058008959671,1439.058008959671,0.9999774953003531,9.777204588340355e-05
1439.0649534593192,1439.0649534593192,1.0000707980236805,9.778280965595954e-05
1439.0718979588748,1439.0718979588748,0.9999546971686601,9.776920384681049e-05
1439.0788424580571,1439.0788424580571,1.0000348261686889,9.77759152843757e-05
1439.0857869571469,1439.0857869571469,1.0000081164403258,9.777779525284784e-05
1439.0927314559572,1439.0927314559572,0.9999374038517228,9.777782852113284e-05
1439.099675954581,1439.099675954581,1.0000905567034901,9.778181018881204e-05
1439.1066204532049,1439.1066204532049,1.000034182836561,9.77758587517133e-05
1439.113564951643,1439.113564951643,0.9998088368852194,9.776932102298501e-05
1439.120509449801,1439.120509449801,1.000201163037736,9.777715557759056e-05
1439.1274539478666,1439.1274539478666,0.99984605744235,9.776378450129825e-05
1439.1343984455586,1439.1343984455586,0.9999033748194384,9.776155240318449e-05
1439.1413429431584,1439.1413429431584,0.9998680709453154,9.776466552765192e-05
1439.1482874406647,1439.1482874406647,1.0001939433946812,9.778774159445371e-05
1439.1552319377984,1439.1552319377984,1.0001337440213753,9.7773488739929e-05
1439.1621764349325,1439.1621764349325,1.000266941170882,9.778380301329636e-05
1439.1691209317867,1439.1691209317867,0.999676664960915,9.776765279498163e-05
1439.176065428548,1439.176065428548,1.0000909923986208,9.776962468345174e-05
1439.18300992503,1439.18300992503,1.0000492271459407,9.778180088101669e-05
1439.1899544213256,1439.1899544213256,0.9999542285169977,9.777532760853996e-05
1439.196898917621,1439.196898917621,1.0000124920322904,9.778910038503005e-05
1439.2038434134515,1439.2038434134515,0.9999385654487531,9.779368281864366e-05
1439.2107879093742,1439.2107879093742,1.0000046482993468,9.779705824709557e-05
1439.2177324049248,1439.2177324049248,0.9999126848101649,9.779528549220778e-05
1439.2246769003823,1439.2246769003823,1.0001291199409934,9.78015463617675e-05
1439.2316213954673,1439.2316213954673,0.9999996915001367,9.77979809894167e-05
1439.2385658906455,1439.2385658906455,1.0000632025887255,9.779533449630137e-05
1439.245510385544,1439.245510385544,1.0000657316658568,9.78087509291174e-05
1439.2524548802564,1439.2524548802564,0.9999559048638357,9.780446068728417e-05
1439.2593993747828,1439.2593993747828,0.9998861858902017,9.780268582997999e-05
1439.2663438691222,1439.2663438691222,0.9999929175714296,9.780653631367461e-05
1439.2732883633694,1439.2732883633694,1.0001411653552406,9.780800976153519e-05
1439.2802328573366,1439.2802328573366,0.9999340125493956,9.780063464645726e-05
1439.2871773512106,1439.2871773512106,0.9999641509147865,9.781356081863659e-05
1439.2941218448059,1439.2941218448059,0.9998965739475103,9.780321188812734e-05
1439.301066338214,1439.301066338214,1.0001900893247468,9.78159737058764e-05
1439.3080108315294,1439.3080108315294,0.9998262455585252,9.778717947328815e-05
1439.314955324659,1439.314955324659,0.9999483649162443,9.779745790208823e-05
1439.3218998175084,1439.3218998175084,1.000100182226842,9.780581606781416e-05
1439.3288443103584,1439.3288443103584,1.000059992238092,9.77990196498035e-05
1439.3357888030216,1439.3357888030216,1.0000979170472735,9.780823775367739e-05
1439.3427332954057,1439.3427332954057,0.9998528794662713,9.780182687623923e-05
1439.349677787604,1439.349677787604,1.0000042916343095,9.781740393764545e-05
1439.3566222797083,1439.3566222797083,1.0001021752931967,9.781294495678257e-05
1439.3635667714402,1439.3635667714402,1.0000547003143305,9.780646430788339e-05
1439.3705112630796,1439.3705112630796,0.9999286073485079,9.779877950697043e-05
1439.3774557547185,1439.3774557547185,0.9998966830870788,9.781905516343317e-05
1439.3844002462642,1439.3844002462642,1.0000501811477507,9.781971254726909e-05
1439.3913447373448,1439.3913447373448,0.999889477930088,9.782309008036269e-05
1439.3982892284248,1439.3982892284248,1.000048453099803,9.782621095421562e-05
1439.405233719226,1439.405233719226,0.9999378952930824,9.780284453743487e-05
1439.4121782099335,1439.4121782099335,1.0000759816553102,9.783344530923848e-05
1439.4191227004549,1439.4191227004549,1.0002935926798062,9.784138866018894e-05
1439.42606719079,1439.42606719079,1.0001113443772143,9.782251230033928e-05
1439.4330116808462,1439.4330116808462,0.9999094946866809,9.780691019240274e-05
1439.4399561709017,1439.4399561709017,0.9999350944412064,9.782644263359569e-05
1439.446900660771,1439.446900660771,0.999930444253951,9.782083781919971e-05
1439.4538451503613,1439.4538451503613,0.9998810237438007,9.782572188697818e-05
1439.4607896399516,1439.4607896399516,1.0000711785764618,9.783923264895388e-05
1439.4677341292622,1439.4677341292622,1.00021200024227,9.784231430958934e-05
1439.4746786182004,1439.4746786182004,0.9999561466390332,9.78378082117246e-05
1439.481623107232,1439.481623107232,0.9998612372456289,9.782813371838047e-05
1439.488567596077,1439.488567596077,1.0000649823326415,9.783395434405246e-05
1439.4955120846425,1439.4955120846425,1.0001634054541984,9.784586166914165e-05
1439.5024565731153,1439.5024565731153,0.9999954084433245,9.783700787649867e-05
1439.5094010614944,1439.5094010614944,0.9998078565577113,9.783642616430987e-05
1439.5163455495015,1439.5163455495015,1.0000083580927128,9.783689604187253e-05
1439.5232900375083,1439.5232900375083,0.9999863002626637,9.784167578365468e-05
1439.530234525329,1439.530234525329,0.9999706330186247,9.784195285781084e-05
1439.5371790128702,1439.5371790128702,0.9999040532165513,9.783452702368336e-05
1439.5441235003186,1439.5441235003186,1.0001265531468104,9.783985768788241e-05
1439.551067987487,1439.551067987487,1.0000723389665258,9.784430697609603e-05
1439.558012474935,1439.558012474935,0.9999728506759494,9.784783407082316e-05
1439.5649569617312,1439.5649569617312,0.9999779301765053,9.784064297718748e-05
1439.5719014484343,1439.5719014484343,1.0001157147906472,9.783715992335072e-05
1439.5788459350442,1439.5788459350442,1.0001364020060763,9.784753531705613e-05
1439.585790421561,1439.585790421561,0.9998861078474347,9.783725008279457e-05
1439.592734907798,1439.592734907798,0.9998556332580708,9.783976859585547e-05
1439.5996793939426,1439.5996793939426,0.9998864904122321,9.784158124501094e-05
1439.6066238799935,1439.6066238799935,1.0000172052999632,9.784828553864823e-05
1439.6135683656726,1439.6135683656726,1.0001682854857283,9.785690167451064e-05
1439.6205128512577,1439.6205128512577,0.9999333860060627,9.784484548412342e-05
1439.6274573367505,1439.6274573367505,0.9998130032762544,9.783937290522774e-05
1439.6344018220561,1439.6344018220561,1.0002294539249799,9.784409158390998e-05
1439.6413463071758,1439.6413463071758,0.9999404944061997,9.785405778495167e-05
1439.6482907922023,1439.6482907922023,1.0001035227576136,9.7855219927255e-05
1439.6552352768565,1439.6552352768565,0.999877961306899,9.784303782809563e-05
1439.6621797615105,1439.6621797615105,0.9999635164655839,9.784660680831072e-05
1439.669124246165,1439.669124246165,1.0001194073684228,9.784238201536509e-05
1439.6760687303533,1439.6760687303533,1.000072408919376,9.785729900717282e-05
1439.683013214449,1439.683013214449,1.0001118396817303,9.785375810976717e-05
1439.689957698544,1439.689957698544,0.9999046855067188,9.78454351225669e-05
1439.69690218236,1439.69690218236,0.9999858962568666,9.785544386996276e-05
1439.7038466660827,1439.7038466660827,0.9999303302178632,9.785688839137193e-05
1439.7107911495264,1439.7107911495264,0.999689153200694,9.784789252295374e-05
1439.7177356328764,1439.7177356328764,1.000035210376349,9.787069136424227e-05
1439.7246801161339,1439.7246801161339,1.0001224192838492,9.786951329184663e-05
1439.7316245991115,1439.7316245991115,0.9999634297390116,9.785946682108737e-05
1439.7385690819963,1439.7385690819963,1.0002294163343084,9.787037812256274e-05
1439.7455135646942,1439.7455135646942,0.9999435040801099,9.7864057848045e-05
1439.7524580471131,1439.7524580471131,1.000059966765806,9.787373831127686e-05
1439.7594025294393,1439.7594025294393,1.000058906808827,9.787705627159013e-05
1439.7663470117648,1439.7663470117648,1.0000583829646987,9.787533149428625e-05
