time,time,flux,flux_err
1544.281778736332,1544.281778736332,0.999708454053306,0.0004606408359916555
1544.290112292165,1544.290112292165,1.0000135441963447,0.0004601907432460011
1544.2984458482308,1544.2984458482308,1.0002650797075698,0.00045981278944895573
1544.3060849410463,1544.3060849410463,1.000178197680922,0.0004195736762928742
1544.31302957123,1544.31302957123,0.9997664794208461,0.00041893773118149445
1544.319974200949,1544.319974200949,0.9997111725279755,0.0004187675515505135
1544.3269188311333,1544.3269188311333,1.0007485346711877,0.00041842321116240274
1544.3338634612244,1544.3338634612244,0.9999891583601584,0.0004180663504700175
1544.3408080910363,1544.3408080910363,0.9995475072973162,0.0004178716146272687
1544.347752721221,1544.347752721221,1.0003160196352239,0.0004170929780389273
1544.354697351405,1544.354697351405,0.9997276531267524,0.0004169225422416151
1544.3616419811237,1544.3616419811237,1.0006092911072588,0.0004165673466075328
1544.3685866113083,1544.3685866113083,1.0000990731407118,0.0004160926886483624
1544.3755312414924,1544.3755312414924,0.9999660065543985,0.0004155470741381352
1544.382475871677,1544.382475871677,0.9994178188917668,0.0004151123567780633
1544.3894205013955,1544.3894205013955,0.9998009739050293,0.00041474077810581023
1544.3963651315796,1544.3963651315796,0.9995575504681511,0.00041451581347550696
1544.4033097617644,1544.4033097617644,1.0005017503955291,0.00041444878957028924
1544.4102543919485,1544.4102543919485,1.0003396852163762,0.0004137621071452452
1544.4171990218535,1544.4171990218535,1.0001555132542732,0.0004134663078303556
1544.4241436518519,1544.4241436518519,0.9996335958821259,0.0004129044383994839
1544.431088282036,1544.431088282036,1.0005572565518208,0.0004130219675137329
1544.4380329122203,1544.4380329122203,0.9999908852578189,0.0004127019798545107
1544.444977542312,1544.444977542312,0.9998555237878876,0.00041225667255822727
1544.4519221721234,1544.4519221721234,0.9997050387501689,0.000411951780354207
1544.458866802308,1544.458866802308,1.0000274305021786,0.00041163916325866857
1544.4658114324923,1544.4658114324923,1.0004135325185963,0.00041156928778982537
1544.4727560626766,1544.4727560626766,1.000217082044519,0.00041131600563208486
1544.4797006923952,1544.4797006923952,0.9996559831794528,0.00041100149679335903
1544.4866453225798,1544.4866453225798,0.9996647153982308,0.0004109501565520574
1544.4935899527638,1544.4935899527638,0.9996754598668035,0.00041090437714514803
1544.500534582669,1544.500534582669,1.00083080309923,0.0004108842848457585
1544.507479212667,1544.507479212667,0.9999535345782196,0.000410653387508496
1544.5144238428516,1544.5144238428516,1.0003085453819496,0.00041055272415939663
1544.5213684726637,1544.5213684726637,0.9995829852224862,0.00041026102234444984
1544.5283131027543,1544.5283131027543,0.9999788871810467,0.00041034564420814495
1544.5352577328458,1544.5352577328458,1.0002254223870035,0.0004102208194181144
1544.5422023626575,1544.5422023626575,1.0005087611503005,0.00041035531895859895
1544.549146992842,1544.549146992842,1.0000980496068603,0.00041000243250567697
1544.5560916225606,1544.5560916225606,0.9999290504551948,0.0004099322943804231
1544.5630362526517,1544.5630362526517,1.000175946676912,0.0004099784122599034
1544.5699808824636,1544.5699808824636,0.9992273035152979,0.00040970799685233325
1544.576925512462,1544.576925512462,0.9995321478092624,0.0004095331886868939
1544.5838701423668,1544.5838701423668,1.0000845365558586,0.00040955072438666866
1544.5908147721784,1544.5908147721784,0.9998250816750606,0.00040954470883479795
1544.5977594020835,1544.5977594020835,0.9999877786319462,0.00040929207749974134
1544.604704031988,1544.604704031988,1.0006733811711872,0.0004093277588811832
1544.6116486617072,1544.6116486617072,1.0004589035738805,0.00040937605308421436
1544.618593291612,1544.618593291612,1.000186360290718,0.00040910505436981236
1544.625537921424,1544.625537921424,1.000052752210134,0.00040914280109901404
1544.6324825512356,1544.6324825512356,0.9995730812962165,0.0004088371993911942
1544.6399827512762,1544.6399827512762,0.9988942704523784,0.00040871880862898845
1544.6477607366166,1544.6477607366166,1.0001867198544163,0.00040908966602295663
1544.6547053663355,1544.6547053663355,1.0009189874011843,0.00040884496668574746
1544.6616499960542,1544.6616499960542,0.9997681060159721,0.00040881323268731186
1544.6685946256798,1544.6685946256798,1.0004515429469516,0.000408749725812462
1544.6755392553982,1544.6755392553982,0.9995510695632849,0.0004085352682650237
1544.6824838850239,1544.6824838850239,0.9998277254352118,0.00040857210544901595
1544.6894285145565,1544.6894285145565,1.0003700889928175,0.0004086822280091053
1544.6963731441817,1544.6963731441817,0.9996049679778007,0.00040832505764350636
1544.7033177738076,1544.7033177738076,1.0001390763133504,0.00040839451788150436
1544.7102624032466,1544.7102624032466,0.9998893598644486,0.00040829519956122175
1544.7172070327792,1544.7172070327792,1.000051383598771,0.0004082697510390706
1544.7241516623114,1544.7241516623114,0.9999216694315954,0.0004079289465318338
1544.7310962917509,1544.7310962917509,1.0008741133995696,0.00040824424619097363
1544.7380409211903,1544.7380409211903,0.9998030429560123,0.0004080774023156781
1544.7449855506297,1544.7449855506297,0.9997804337594036,0.00040800637561234676
1544.751930179976,1544.751930179976,0.9998414415502402,0.000407934909150383
1544.7588748093217,1544.7588748093217,1.0006204445118148,0.0004080207853405417
1544.7658194386681,1544.7658194386681,1.00048556752699,0.0004079095283075442
1544.7727640680143,1544.7727640680143,0.9996684691174321,0.00040785522768948656
1544.7797086972673,1544.7797086972673,0.9999290909227145,0.0004079670092881025
1544.7866533265203,1544.7866533265203,1.0000143535076451,0.0004078257766012361
1544.79359795568,1544.79359795568,0.9992803105412846,0.00040769651333644343
1544.8005425849333,1544.8005425849333,1.0000386621171358,0.00040758775290552715
1544.8074872139998,1544.8074872139998,1.0000335821733248,0.0004076449877146057
1544.8144318431598,1544.8144318431598,1.0000074092916251,0.00040765340193423867
1544.8213764722266,1544.8213764722266,0.999749222163725,0.0004073681467210654
1544.8283211012,1544.8283211012,1.0005978760182255,0.00040756995265918
1544.835265730267,1544.835265730267,1.0002513594882358,0.0004075320902556495
1544.8422103592402,1544.8422103592402,0.999962003072371,0.0004075551001549714
1544.8491549883074,1544.8491549883074,1.0005745717075114,0.0004074392513772495
1544.8560996172812,1544.8560996172812,0.9999139109828832,0.00040736012027583785
1544.8630442460683,1544.8630442460683,0.9994140402103943,0.00040701419816580823
1544.869988874949,1544.869988874949,0.9997375517777707,0.00040703916224178553
1544.8769335038294,1544.8769335038294,0.99973755483066,0.0004071025446428403
1544.8838781326167,1544.8838781326167,0.9993302589241806,0.00040696476177550075
1544.8908227614043,1544.8908227614043,0.9998625673127233,0.00040693675225060664
1544.8977673900981,1544.8977673900981,1.001267842402882,0.0004070733877385324
1544.9047120187927,1544.9047120187927,1.00079569206861,0.0004068681193764649
1544.911656647487,1544.911656647487,0.9999918484905017,0.00040652346231195857
1544.9186012760879,1544.9186012760879,0.9994845916824454,0.00040650023855826506
1544.9255459045958,1544.9255459045958,1.0002589375921123,0.0004064191041445644
1544.932490533197,1544.932490533197,0.9996004928612161,0.00040648573238916076
1544.9394351616115,1544.9394351616115,0.9991179433761535,0.0004061415811911955
1544.9463797901196,1544.9463797901196,0.9998356297595932,0.0004060582651650432
1544.9533244185345,1544.9533244185345,1.0007803208016894,0.00040635193029969253
1544.9602690469494,1544.9602690469494,0.9998399585118731,0.00040584463460915986
1544.9672136752713,1544.9672136752713,1.0005974702167042,0.00040603513058673724
1544.9741583035927,1544.9741583035927,1.000177005315379,0.0004059002413485284
1544.9811029319146,1544.9811029319146,0.9994480516893558,0.00040589289222397947
1544.9880475601433,1544.9880475601433,1.0001177272142203,0.0004057443916201155
1544.994992188278,1544.994992188278,1.0000751762450584,0.0004056473042379348
1545.001936816507,1545.001936816507,0.9991335233317074,0.000405500421790112
1545.008881444456,1545.008881444456,1.0002517067633967,0.0004055777640885563
1545.0158260727776,1545.0158260727776,1.0007190754498718,0.000405714918642645
1545.0227707006338,1545.0227707006338,1.0003018584103383,0.00040549534017825733
1545.0297153284896,1545.0297153284896,0.9997174051448153,0.00040536593054453886
1545.0366599568117,1545.0366599568117,0.999585805748698,0.0004053779483070287
1545.0436045846677,1545.0436045846677,1.0001371412365887,0.00040516942370710286
1545.050549212524,1545.050549212524,1.0006162911668774,0.0004053163389425854
1545.0574938403795,1545.0574938403795,0.9998759397233712,0.00040517391049452075
1545.0644384679563,1545.0644384679563,0.9997273930465482,0.0004051700507048721
1545.071383095626,1545.071383095626,1.0001401526219733,0.000405298807868347
1545.0783277234823,1545.0783277234823,1.0010016760111087,0.0004052977973289535
1545.0852723510588,1545.0852723510588,0.999932419007562,0.0004051885825720128
1545.0922169787286,1545.0922169787286,0.9999509586649988,0.0004049222677580754
1545.0991616062122,1545.0991616062122,1.0005619173625737,0.00040505805316388423
1545.106106233789,1545.106106233789,0.9995614242767041,0.0004047054966888305
1545.113050861272,1545.113050861272,0.9995173225561507,0.0004047462412041055
1545.1199954886624,1545.1199954886624,0.9997438546216267,0.0004046659946953677
1545.126940116053,1545.126940116053,1.0003280467388125,0.00040462212781391385
1545.13388474335,1545.13388474335,1.0001563821658763,0.00040471279394254907
1545.1408293706475,1545.1408293706475,1.0003970528362167,0.0004045193991293587
1545.1477739979443,1545.1477739979443,0.9998147205827006,0.0004044754861484476
1545.1547186250557,1545.1547186250557,0.999814039956832,0.0004043766613622725
1545.1616632522596,1545.1616632522596,1.000191549253099,0.0004045373090684946
1545.1686078793707,1545.1686078793707,0.999860792580947,0.0004041602603828927
1545.1755525063884,1545.1755525063884,0.9998477799664146,0.0004040729945245015
1545.1824971334065,1545.1824971334065,1.0000642095559409,0.0004040778403635213
1545.1894417603312,1545.1894417603312,1.0004192919632557,0.0004041524505296358
1545.1963863872556,1545.1963863872556,0.9998195072469684,0.00040404706314209874
1545.203331014087,1545.203331014087,1.0004657509754498,0.0004039326739001645
1545.2102756410118,1545.2102756410118,0.999702060439331,0.0004037401679382415
1545.217220267657,1545.217220267657,1.0003267481057003,0.00040395904745016995
1545.224164894396,1545.224164894396,0.9997919874201721,0.00040378931214711517
1545.2311095210412,1545.2311095210412,1.0000688083570397,0.00040382301352970246
1545.2380541477796,1545.2380541477796,0.99968783009816,0.00040365069094989395
1545.2449987743316,1545.2449987743316,1.0005740831205368,0.0004037985203834528
1545.2519434007907,1545.2519434007907,0.9996834656601326,0.0004036018048039334
1545.2588880272497,1545.2588880272497,0.9998611850089063,0.00040361910605021014
1545.2658326537087,1545.2658326537087,1.0003629392429016,0.00040368999518710063
1545.2727772800747,1545.2727772800747,0.9998864693160225,0.0004038741112498419
1545.2797219064403,1545.2797219064403,0.9999133121500376,0.00040372818736298993
1545.2866665327133,1545.2866665327133,1.0000536733901317,0.00040361635865845074
1545.293611158893,1545.293611158893,1.0000371174984717,0.0004037253910161826
1545.3005557850727,1545.3005557850727,0.9999724763997456,0.0004036761126808146
1545.3075004111593,1545.3075004111593,1.0001505585353843,0.00040381363164240764
1545.3144450372456,1545.3144450372456,0.9997040456259679,0.00040360784991821984
1545.3213896632394,1545.3213896632394,1.000072938384678,0.00040352438670461613
1545.3283342892323,1545.3283342892323,1.0001910058777266,0.00040362995362403875
1545.3352789150397,1545.3352789150397,1.0003746898185268,0.0004035218045926497
1545.342223541033,1545.342223541033,0.999674548026116,0.000403523755967106
1545.349168166747,1545.349168166747,0.9999157186185681,0.0004034780640225057
1545.3561127925543,1545.3561127925543,0.9992664773699212,0.0004032579930385704
1545.3630574180818,1545.3630574180818,0.9998829789378718,0.00040325548635742464
1545.3700020439817,1545.3700020439817,1.0004332641845466,0.0004032928420583741
1545.3769466696028,1545.3769466696028,0.9998654023383953,0.0004031247020688213
1545.3838912951305,1545.3838912951305,1.0002099482608535,0.00040313000317387373
1545.3908359206584,1545.3908359206584,1.0005703751475667,0.0004032741461721512
1545.3977805458135,1545.3977805458135,1.0003988123243353,0.00040319897075622775
1545.4047251712477,1545.4047251712477,0.9997834736510903,0.00040290808133731953
1545.4116697966826,1545.4116697966826,0.9998668488128232,0.0004028953728614488
1545.418614421838,1545.418614421838,0.9994657653682111,0.0004028834441807014
1545.4255590470864,1545.4255590470864,1.0001541091457278,0.0004030471330023544
1545.4325036722412,1545.4325036722412,1.0000555919018737,0.0004029106024317318
1545.4394482973034,1545.4394482973034,1.0000048652779512,0.00040294937771553273
1545.4463929223652,1545.4463929223652,0.9994895390263325,0.00040285745914972845
1545.4533375473345,1545.4533375473345,1.001437102922948,0.00040300996330161373
1545.4602821723033,1545.4602821723033,1.0001333728237296,0.00040293390825622214
1545.4672267971787,1545.4672267971787,0.9997799955762889,0.0004029433432623003
1545.474171422055,1545.474171422055,1.0004158991795804,0.0004028106985640207
1545.481116046744,1545.481116046744,0.9993063416433016,0.00040265991363722445
1545.4880606715271,1545.4880606715271,0.9998983088697324,0.00040268284103452774
1545.4950052961233,1545.4950052961233,1.000076252919204,0.0004026072281782208
1545.5019499207199,1545.5019499207199,0.9999628163397016,0.0004027238899657129
1545.508894545223,1545.508894545223,0.9999458555432996,0.00040283464538631473
1545.5158391698196,1545.5158391698196,1.0003661255837382,0.0004026682517699683
1545.522783794136,1545.522783794136,1.0004452915126962,0.00040287292890386445
1545.5297284185465,1545.5297284185465,0.9999717516297721,0.00040285732004749643
1545.5366730428634,1545.5366730428634,1.0000461368025322,0.0004030004670350862
1545.5436176670878,1545.5436176670878,0.9999367726335382,0.0004027401592040388
1545.5505622913113,1545.5505622913113,0.9997639529652123,0.00040264401885539605
1545.557506915442,1545.557506915442,0.9996390524099332,0.00040273497947244854
1545.5644515394793,1545.5644515394793,0.9993609980505361,0.00040250233180227685
1545.5713961636104,1545.5713961636104,1.0005636966823352,0.00040276538659401485
1545.5783407875547,1545.5783407875547,1.0001134363473194,0.00040253125629432726
1545.5852854114062,1545.5852854114062,1.000026053533212,0.00040269606257770704
1545.5922300352572,1545.5922300352572,0.9999418378732653,0.0004026161864609169
1545.5991746591085,1545.5991746591085,0.9999474599904017,0.0004027251773928824
1545.6061192827738,1545.6061192827738,1.000141496894652,0.00040294142031393874
1545.613063906439,1545.613063906439,1.000162070764778,0.0004024845491552114
1545.6200085300109,1545.6200085300109,1.0004660531920893,0.0004026492214923748
1545.6269531536757,1545.6269531536757,1.0001096498928441,0.0004026290918419964
1545.6338977770615,1545.6338977770615,1.000310569027901,0.0004025641998702933
1545.6408424005404,1545.6408424005404,0.9995374526185049,0.0004025966356449911
1545.64778702374,1545.64778702374,0.9989936054779183,0.0004024111798581941
1545.6547316472183,1545.6547316472183,0.9996050020134769,0.00040248220415214556
1545.6616762706042,1545.6616762706042,1.000371214934565,0.00040262530925664947
1545.6686208938036,1545.6686208938036,0.999946069057749,0.0004025553242744417
1545.6755655166307,1545.6755655166307,1.0006290441605015,0.00040266280317919153
1545.6825101397367,1545.6825101397367,0.9998660830675515,0.00040256133967638284
1545.689454762936,1545.689454762936,1.0006015680655551,0.000402813830649552
1545.6963993856698,1545.6963993856698,1.0000386089542854,0.00040281247137194403
1545.703344008683,1545.703344008683,0.9994755932874246,0.0004027201091316394
1545.7102886315095,1545.7102886315095,1.0000336301910326,0.0004025048616069312
1545.7172332542436,1545.7172332542436,0.9997393420138906,0.000402582514686745
1545.7241778768844,1545.7241778768844,1.00007423663997,0.0004025857992231687
1545.7311224995246,1545.7311224995246,0.9999853539261825,0.000402742791305654
1545.7380671221654,1545.7380671221654,1.0003050600272407,0.00040274953881521975
1545.7450117446201,1545.7450117446201,0.9994564094708277,0.0004025865760313537
1545.751956367074,1545.751956367074,1.0004183148491537,0.00040271835010973454
1545.7589009895285,1545.7589009895285,1.0001076923500711,0.00040270953280788934
1545.765845611796,1545.765845611796,0.9997472867746197,0.0004026354949169254
1545.7727902340646,1545.7727902340646,0.9996338041544142,0.0004024879854849834
1545.7797348562394,1545.7797348562394,1.0001802841975633,0.00040266734118042235
1545.7866794785073,1545.7866794785073,1.00003725990132,0.0004027096368736802
1545.7936241005896,1545.7936241005896,1.0005194397517396,0.00040265523073296434
1545.800568722578,1545.800568722578,0.99997622580011,0.0004026433084199397
1545.8075133444736,1545.8075133444736,1.0004797371018366,0.00040260413945257675
1545.814457966369,1545.814457966369,1.0000807317408282,0.0004027382816181332
1545.8214025881716,1545.8214025881716,0.9991176668997646,0.00040254888647882245
1545.8283472099738,1545.8283472099738,0.9994621473576757,0.0004024960777142884
1545.8352918316832,1545.8352918316832,1.0000061303381855,0.0004027461855544802
1545.8422364532994,1545.8422364532994,1.0000104083403694,0.0004027784874696832
1545.8491810748224,1545.8491810748224,1.0011225264890933,0.00040298206787834175
1545.8561256963453,1545.8561256963453,0.9997462740116649,0.0004025221376944655
1545.8630703178683,1545.8630703178683,0.9997431647595143,0.00040259688969459617
1545.870014939205,1545.870014939205,0.9998702248037172,0.00040253235367794515
1545.8769595604488,1545.8769595604488,1.0004220891987414,0.00040272602345345734
1545.8839041817853,1545.8839041817853,0.999318232197466,0.0004025920444442531
1545.890848802936,1545.890848802936,0.9998183055736142,0.000402574730735933
1545.8977934239933,1545.8977934239933,1.0002064525601515,0.0004027562118153879
1545.9047380451439,1545.9047380451439,1.0003142070872657,0.0004027106666554603
1545.911682666201,1545.911682666201,1.0004910442708217,0.00040282566934621316
1545.918627287072,1545.918627287072,0.9998732637117836,0.00040269019830875866
1545.9255719079435,1545.9255719079435,1.0001244828018185,0.0004026964052177608
1545.9325165288142,1545.9325165288142,0.9999880939191232,0.0004027797287729612
1545.939461149406,1545.939461149406,0.9995507824561466,0.0004026185553759262
1545.9464057700907,1545.9464057700907,1.0001374409158659,0.00040271443175540056
1545.9533503906828,1545.9533503906828,1.0002740641962369,0.0004030950055184908
1545.9602950112744,1545.9602950112744,0.9995637094519122,0.00040263451478008485
1545.9672396316796,1545.9672396316796,0.9999916117004493,0.000402998271555178
1545.9741842520848,1545.9741842520848,1.0008279014731785,0.0004027203772436386
1545.9811288723977,1545.9811288723977,0.9997660719758654,0.0004027687122155991
1545.9880734927096,1545.9880734927096,0.9993532506108227,0.00040257738605076746
1545.9950181129288,1545.9950181129288,1.000150104402556,0.00040266746630438584
1546.001962733055,1546.001962733055,1.0003858032584878,0.00040278445591170216
1546.0089073530878,1546.0089073530878,1.0001619943880469,0.00040275719304855035
1546.0158519731208,1546.0158519731208,1.0003892002312462,0.00040267249584132814
1546.0227965930603,1546.0227965930603,0.9997907419282358,0.00040257613484173384
1546.0297412129999,1546.0297412129999,0.9996497846254574,0.0004026303309554678
1546.0366858326609,1546.0366858326609,1.000326012922098,0.0004025793103819367
