time,time,flux,flux_err
1437.999519482467,1437.999519482467,0.999998043810456,0.00013063341307828098
1438.0078531279266,1438.0078531279266,0.9999941164598818,0.00013057835973459672
1438.0154923030498,1438.0154923030498,1.0001479556518302,0.00011916503331465105
1438.0224370078688,1438.0224370078688,0.9998042800451692,0.00011912905037803894
1438.0293817127806,1438.0293817127806,0.9998302925199875,0.0001190911364484933
1438.0363264176926,1438.0363264176926,1.000059925405292,0.0001190684157972691
1438.0432711226044,1438.0432711226044,1.0000558351419202,0.00011902249141108253
1438.0502158277027,1438.0502158277027,1.0003171075152042,0.00011900881289716714
1438.0571605328937,1438.0571605328937,0.9998753427489261,0.0001189619424979622
1438.064105237992,1438.064105237992,0.999965768220691,0.00011893865017605636
1438.0710499432762,1438.0710499432762,0.9999501964189605,0.00011889558787809135
1438.0779946484674,1438.0779946484674,1.0001735157700358,0.00011886940344989986
1438.084939353845,1438.084939353845,0.9998670364995499,0.00011883322489019191
1438.0918840592226,1438.0918840592226,1.0000289844588792,0.00011880798691011796
1438.0988287646003,1438.0988287646003,0.9997650216839393,0.00011877160419122365
1438.1057734699775,1438.1057734699775,0.9998887575575808,0.00011875389380998397
1438.1127181754482,1438.1127181754482,1.0000913535874596,0.00011874105658283741
1438.1196628808257,1438.1196628808257,1.0002384734711707,0.00011872808708442029
1438.1266075862964,1438.1266075862964,1.0001007128427137,0.00011869898901382271
1438.1335522918603,1438.1335522918603,1.0000931418776895,0.00011869601895828105
1438.1404969974242,1438.1404969974242,1.0000410155779174,0.00011866405981295276
1438.1474417028016,1438.1474417028016,0.9998131775955347,0.00011863957049597164
1438.1543864082726,1438.1543864082726,0.9999725781846127,0.00011863387579013091
1438.161331113836,1438.161331113836,0.9999176713607112,0.00011860323110248498
1438.1682758193997,1438.1682758193997,1.000027183399585,0.00011861637074959729
1438.1752205247776,1438.1752205247776,0.9999260415665712,0.00011857594611467698
1438.182165230248,1438.182165230248,0.9999262069771099,0.00011856186919712377
1438.1891099357188,1438.1891099357188,1.000097245542604,0.00011854487039600426
1438.1960546411897,1438.1960546411897,1.0001597996737694,0.00011852403320767183
1438.202999346567,1438.202999346567,0.9997984048415587,0.00011850500652675467
1438.2099440519446,1438.2099440519446,1.0000625429748902,0.00011849534369697519
1438.216888757322,1438.216888757322,0.9998675587352224,0.00011846963118807641
1438.2238334626995,1438.2238334626995,1.0001172286455335,0.00011846624841592806
1438.230778167984,1438.230778167984,0.999979256246726,0.00011844575976605468
1438.237722873268,1438.237722873268,1.0001286457233651,0.00011844212603765105
1438.24466757846,1438.24466757846,0.999979674443253,0.00011841981529121691
1438.251612283651,1438.251612283651,0.9999221499272266,0.00011841304706597259
1438.258556988749,1438.258556988749,1.0001216036282485,0.00011839843377541923
1438.2655016939402,1438.2655016939402,1.0000272645070634,0.00011838606272737797
1438.2724463989452,1438.2724463989452,0.9998644604194521,0.00011836571624589717
1438.279391103857,1438.279391103857,1.0001463563175492,0.00011837023919079573
1438.286335808862,1438.286335808862,1.0000529462742092,0.00011838411441741884
1438.293280513681,1438.293280513681,0.9999531699663595,0.00011836134447635212
1438.3002252185001,1438.3002252185001,0.9998740905337169,0.00011834093155037573
1438.3071699233185,1438.3071699233185,0.9997874946295575,0.00011832277399720828
1438.3141146280439,1438.3141146280439,1.0000654976498335,0.00011833696516578094
1438.3210593325834,1438.3210593325834,0.999991191028516,0.00011832763727749596
1438.3280040371226,1438.3280040371226,1.0001090541918973,0.0001183225665046731
1438.334948741569,1438.334948741569,0.9999746797545539,0.00011831114534159241
1438.341893446015,1438.341893446015,1.0001085042907667,0.00011829984476122605
1438.3488381503682,1438.3488381503682,1.0001092289086142,0.00011831359084001159
1438.3557828546286,1438.3557828546286,1.0000054464618766,0.00011828074653501387
1438.362727558795,1438.362727558795,0.9999829068196634,0.00011827144287134415
1438.3696722629618,1438.3696722629618,0.9998510816615935,0.00011826426747684542
1438.3766169669423,1438.3766169669423,0.9999849210940315,0.00011827915753457635
1438.3835616708297,1438.3835616708297,1.0000831679870952,0.00011826566047934302
1438.3905063747172,1438.3905063747172,0.9998507820161411,0.00011825508743743723
1438.397451078605,1438.397451078605,0.9999681131294877,0.00011823081755492346
1438.4043957822128,1438.4043957822128,1.0002215406924453,0.00011825697965233389
1438.4113404857278,1438.4113404857278,0.9999578494545143,0.00011821772949289439
1438.4182851892424,1438.4182851892424,1.0000617371606202,0.00011822187187237171
1438.4252298927572,1438.4252298927572,0.9999977346801987,0.00011822653602402129
1438.4321745959928,1438.4321745959928,0.9998867931618023,0.00011822469375370773
1438.4391192992284,1438.4391192992284,1.0000864209793523,0.00011823066163275913
1438.4460640023706,1438.4460640023706,0.9998849821728533,0.00011824053291732647
1438.453008705327,1438.453008705327,0.9999427964441079,0.00011822662502714064
1438.4599534082831,1438.4599534082831,1.0000570269248716,0.00011821239443385862
1438.466898111053,1438.466898111053,0.9999968540914981,0.0001182082629614663
1438.473842813822,1438.473842813822,0.9998982283486455,0.00011822003031836418
1438.4807875164993,1438.4807875164993,1.0000403597822642,0.00011824028118897474
1438.4877322188966,1438.4877322188966,1.0002733553506409,0.0001182507315788002
1438.4946769212938,1438.4946769212938,0.9998914182324198,0.00011816393102296092
1438.5016216235979,1438.5016216235979,0.9999681168598655,0.00011821608226259782
1438.5085663259026,1438.5085663259026,1.0001952575687862,0.00011823015645079432
1438.515511027927,1438.515511027927,1.0000581408909557,0.0001182295996661586
1438.5224557299518,1438.5224557299518,0.9999216198591279,0.00011820560409962866
1438.5294004317905,1438.5294004317905,1.0000872484233974,0.00011824048773495164
1438.5363451335356,1438.5363451335356,1.0001447124743401,0.00011821749961951745
1438.5432898351878,1438.5432898351878,1.000040417753926,0.00011822414596853583
1438.5502345367472,1438.5502345367472,0.9998956495960576,0.00011822252889457715
1438.5571792381202,1438.5571792381202,0.9998702476993456,0.00011821849137923527
1438.5641239393065,1438.5641239393065,0.9998968890665599,0.00011823755009445546
1438.571068640493,1438.571068640493,0.9999590946327721,0.000118234544468128
1438.57801334168,1438.57801334168,1.000087674603079,0.00011824713173926348
1438.5849580425865,1438.5849580425865,1.000198280687897,0.00011823548844848752
1438.591902743401,1438.591902743401,0.9999046967342817,0.00011823224915250466
1438.5988474441222,1438.5988474441222,1.0000939916001355,0.0001182267725367116
1438.6057921447498,1438.6057921447498,0.9999912662104293,0.00011821872005089327
1438.6127368450984,1438.6127368450984,0.999795285715863,0.0001182229066107769
1438.6196815455396,1438.6196815455396,1.0001015485063867,0.00011816187320509234
1438.626626245702,1438.626626245702,1.0000986269287058,0.00011824661838567439
1438.633570945957,1438.633570945957,1.0000432064454028,0.00011824318278138707
1438.6405156457463,1438.6405156457463,0.9999834088334797,0.00011825349213165019
1438.6474603456293,1438.6474603456293,0.9997888434780406,0.00011823558054254845
1438.654405045419,1438.654405045419,1.0000830399969407,0.00011826098557935017
1438.6613497450226,1438.6613497450226,0.9999997852393129,0.00011825151464799865
1438.6682944444397,1438.6682944444397,1.0000444938002124,0.00011825752421061832
1438.6752391437635,1438.6752391437635,0.9998973067132688,0.00011823808769739549
1438.6821838429944,1438.6821838429944,1.0000174502461936,0.00011824585719446609
1438.6891285420386,1438.6891285420386,1.0002271543132077,0.0001182482058696706
1438.6960732408968,1438.6960732408968,0.9998280091987443,0.00011824542104885223
1438.7030179397552,1438.7030179397552,1.000001168255298,0.00011823771923639441
1438.7099626386137,1438.7099626386137,0.9999908467446847,0.00011823198610309551
1438.7169073370992,1438.7169073370992,0.9999835534961417,0.00011824498497121252
1438.7238520355852,1438.7238520355852,0.9999618369116957,0.00011823592890616748
1438.7307967339777,1438.7307967339777,1.0000047554941958,0.0001182336808429366
1438.7377414319978,1438.7377414319978,0.9999742917049307,0.00011825242721581712
1438.7446861301112,1438.7446861301112,1.0003179556661639,0.00011826774005947752
1438.7516308280378,1438.7516308280378,1.0001009992128451,0.0001182650681790655
1438.758575525872,1438.758575525872,0.9999213961422487,0.00011823977644935164
1438.7655202235194,1438.7655202235194,1.000002873338937,0.00011822330207243739
1438.7724649209808,1438.7724649209808,1.0001183798698443,0.0001181845039521956
1438.779409618349,1438.779409618349,0.9999660782858968,0.00011820735627703102
1438.7863543156238,1438.7863543156238,1.0000506802127251,0.00011825578527526193
1438.7932990127129,1438.7932990127129,0.9998117812316878,0.00011824712299821888
1438.8002437098016,1438.8002437098016,1.0000565218376984,0.00011825532159097551
1438.8071884066107,1438.8071884066107,1.000061481303298,0.00011826413809296918
1438.814133103327,1438.814133103327,0.9999235479399132,0.00011825217476403155
1438.821077799857,1438.821077799857,0.999951857215291,0.00011825875893534493
1438.8280224963871,1438.8280224963871,0.9998009204668868,0.00011825019128570023
1438.834967192638,1438.834967192638,1.0002357336341139,0.00011825131652967543
1438.8419118888883,1438.8419118888883,1.000068536116834,0.00011818694974801967
1438.8488565848597,1438.8488565848597,0.9999723347472369,0.00011824539315120886
1438.8558012808307,1438.8558012808307,1.0000196422740135,0.00011824506346282491
1438.8627459765225,1438.8627459765225,1.0000769009067942,0.00011826094202265329
1438.8696906722146,1438.8696906722146,0.9999497015567916,0.00011823411081797702
1438.8766353675335,1438.8766353675335,0.999991252635061,0.00011825927998623386
1438.8835800629463,1438.8835800629463,0.9999016631969498,0.0001182268714357602
1438.8905247582654,1438.8905247582654,0.999879259124708,0.0001182329197275196
1438.8974694533051,1438.8974694533051,1.0000079962372301,0.00011817510209519077
1438.9044141482518,1438.9044141482518,0.999907864419562,0.00011822182939639779
1438.9113588430123,1438.9113588430123,1.000112192822921,0.00011825349076887291
1438.9183035376798,1438.9183035376798,1.0002918690134908,0.00011824075458204746
1438.925248232254,1438.925248232254,0.9999415550873098,0.00011824508812956348
1438.932192926642,1438.932192926642,1.0001596513046582,0.00011823291153334234
1438.9391376208437,1438.9391376208437,0.9998852059932017,0.00011825552870267308
1438.9460823150455,1438.9460823150455,0.9997765843370047,0.00011822157630256118
1438.9530270088742,1438.9530270088742,1.0000560631858024,0.00011825203397358877
1438.9599717027968,1438.9599717027968,1.0001011889088525,0.0001182051468159893
1438.9669163964395,1438.9669163964395,0.9999383920766014,0.00011826462747070193
1438.9738610899894,1438.9738610899894,0.9998488945328022,0.00011826275715142368
1438.9808057834462,1438.9808057834462,1.0001759941777135,0.00011828040982854691
1438.9877504767164,1438.9877504767164,0.9999998334579839,0.00011827418436048733
1438.9946951698937,1438.9946951698937,0.9998626225728376,0.00011824265912851782
1439.0016398628845,1439.0016398628845,1.0000717526030143,0.00011828599121175255
1439.0085845556891,1439.0085845556891,0.9999459123772392,0.0001182463425699599
1439.015529248401,1439.015529248401,1.0000928954485027,0.00011825946489612178
1439.0224739409261,1439.0224739409261,1.0000025860167934,0.0001182341520502361
1439.0294186334513,1439.0294186334513,1.000182481212583,0.000118270990946377
1439.0363633256975,1439.0363633256975,0.9997498998456258,0.00011825050643605912
1439.0433080179432,1439.0433080179432,1.000038616599096,0.00011823391461794142
1439.0502527099097,1439.0502527099097,1.0000336365327995,0.0001182679432897898
1439.0571974017835,1439.0571974017835,0.9999946362420873,0.00011827165560080702
1439.0641420936563,1439.0641420936563,0.9998637980735857,0.00011827060904667479
1439.0710867850644,1439.0710867850644,0.9998974930054544,0.00011827051916289225
1439.0780314765648,1439.0780314765648,1.0000251974941787,0.00011826558574037865
1439.0849761678796,1439.0849761678796,0.9998878109989426,0.0001182628832931244
1439.091920859101,1439.091920859101,1.0000361889643818,0.0001182616249280166
1439.0988655500435,1439.0988655500435,1.0001118177244663,0.00011828598718562189
1439.1058102410784,1439.1058102410784,1.0000883585580416,0.00011826279300219611
1439.1127549317412,1439.1127549317412,1.0000456775364568,0.00011827523088891632
1439.1196996224037,1439.1196996224037,0.9998597510976317,0.00011826257856506425
1439.1266443128804,1439.1266443128804,0.9998277673812769,0.00011823071400884873
1439.1335890032633,1439.1335890032633,1.0001584649351134,0.0001182597288214951
1439.1405336933674,1439.1405336933674,0.9998981229934152,0.00011826781652804496
1439.1474783834713,1439.1474783834713,1.0000441619874945,0.00011827680385578286
1439.154423073389,1439.154423073389,1.0001988166879472,0.00011825594710128778
1439.16136776312,1439.16136776312,0.9998718522860696,0.00011825826934986344
1439.168312452665,1439.168312452665,0.9999015347297604,0.00011827643571804967
1439.1752571422103,1439.1752571422103,1.0001577575105585,0.00011826118359527676
1439.1822018316623,1439.1822018316623,1.0001798211586217,0.00011828850407825265
1439.1891465208348,1439.1891465208348,0.9998977677243038,0.00011824961375319142
1439.196091209821,1439.196091209821,1.0002785389963416,0.00011828802278804214
1439.2030358988075,1439.2030358988075,1.0002571770508932,0.00011828353766041484
1439.2099805876073,1439.2099805876073,0.9995768818896575,0.0001182590369300843
1439.2169252763142,1439.2169252763142,0.9999278824577631,0.00011828544225552725
1439.2238699647419,1439.2238699647419,1.0001620111470568,0.00011828588746483876
1439.2308146530763,1439.2308146530763,0.99996972332586,0.00011828706012038984
1439.2377593414105,1439.2377593414105,1.0001864772897977,0.0001182852086772911
1439.2447040294655,1439.2447040294655,0.9998625012553426,0.00011826902907667615
1439.2516487174273,1439.2516487174273,0.9998836377984368,0.00011828062639977017
1439.2585934052963,1439.2585934052963,1.0002254027640933,0.00011828964308381017
1439.2655380928852,1439.2655380928852,0.9997572994402069,0.00011826245949223117
1439.2724827804745,1439.2724827804745,1.0000831722356764,0.00011827801503095625
1439.2794274676914,1439.2794274676914,1.0000609790177073,0.00011827991673378509
1439.286372154908,1439.286372154908,0.9998957057891559,0.00011825016242013886
1439.293316842125,1439.293316842125,0.9999837422698816,0.00011826222434471835
1439.3002615292485,1439.3002615292485,0.9999025624079414,0.00011824887669411857
1439.3072062160925,1439.3072062160925,1.000217399323829,0.00011828178599292511
1439.314150902751,1439.314150902751,0.9998048296141354,0.00011823521672342273
1439.3210955893157,1439.3210955893157,0.9997518239287813,0.00011822873004544296
1439.3280402756943,1439.3280402756943,1.0001475797121406,0.0001182472003200921
1439.3349849620731,1439.3349849620731,1.000144218154419,0.00011826669949846669
1439.3419296480788,1439.3419296480788,1.0003775736007707,0.00011828476842448018
1439.3488743341782,1439.3488743341782,0.9999316933892824,0.00011827159128370037
1439.3558190199979,1439.3558190199979,0.99994029849664,0.00011827292427737056
1439.3627637057245,1439.3627637057245,1.000065947589873,0.00011822986334837891
1439.3697083913582,1439.3697083913582,0.9997501177152509,0.00011824832185842224
1439.3766530768055,1439.3766530768055,1.0000308235086073,0.00011828127320050377
1439.383597762066,1439.383597762066,1.000030906779334,0.00011827480805423496
1439.3905424473273,1439.3905424473273,1.000051813269391,0.00011829183257482904
1439.3974871322157,1439.3974871322157,0.9998496861976687,0.00011827394193513469
1439.4044318171045,1439.4044318171045,1.000302099585968,0.00011827530987994217
1439.4113765019927,1439.4113765019927,1.000028477079006,0.00011829071495286776
1439.4183211865086,1439.4183211865086,1.0000280008356832,0.00011829973827403694
1439.4252658710247,1439.4252658710247,0.999887644852363,0.0001182663389743095
1439.4322105554477,1439.4322105554477,0.9996978812947214,0.00011822530626164106
1439.4391552394977,1439.4391552394977,1.0004947226259353,0.00011831852155265118
1439.4460999236412,1439.4460999236412,0.9999904275915069,0.00011827319013755517
1439.453044607505,1439.453044607505,0.9999366128819828,0.000118299770961455
1439.4599892914625,1439.4599892914625,1.0001168309071202,0.00011830409914790531
1439.466933974954,1439.466933974954,0.9999925950452091,0.00011829834328464756
1439.4738786585383,1439.4738786585383,1.0001528860376085,0.00011830835369778926
1439.480823341844,1439.480823341844,1.000027253099122,0.00011830108438072938
1439.487768025149,1439.487768025149,1.000129289427584,0.00011828234870160277
1439.4947127082678,1439.4947127082678,0.999964534890456,0.00011828647626269688
1439.5016573911075,1439.5016573911075,0.9997824056890325,0.00011827656815788123
1439.5086020741333,1439.5086020741333,0.9999198423172475,0.0001183103865865958
1439.5155467566933,1439.5155467566933,0.9997393865496681,0.00011827849908029229
1439.5224914392536,1439.5224914392536,1.000045572827132,0.00011829818598131758
1439.5294361217207,1439.5294361217207,1.0001639154094601,0.00011829099870404375
1439.536380803908,1439.536380803908,1.000171078417077,0.00011828035362169523
1439.5433254860961,1439.5433254860961,0.9999294922091501,0.00011828304999824093
1439.5502701680973,1439.5502701680973,1.0002048546274438,0.00011829343445682119
1439.5572148500055,1439.5572148500055,0.9999789385932057,0.00011828410367476126
1439.5641595316342,1439.5641595316342,0.9999707969769973,0.00011828545925496596
1439.5711042133566,1439.5711042133566,0.9997117772264774,0.00011827574037027255
1439.578048894706,1439.578048894706,1.0002179514216407,0.00011828331267705961
1439.5849935761485,1439.5849935761485,1.000118660106507,0.0001182879328335839
1439.5919382572185,1439.5919382572185,0.999917743061301,0.00011828283984525651
1439.5988829382889,1439.5988829382889,0.9999267424490365,0.0001182951219572771
1439.6058276191723,1439.6058276191723,1.0000880860591375,0.00011831358060892547
1439.6127722999631,1439.6127722999631,0.9999724495403353,0.00011829461858797806
1439.6197169806605,1439.6197169806605,0.9997890960353797,0.00011828835955519953
1439.6266616611722,1439.6266616611722,1.000016809341454,0.00011830335198726989
1439.63360634159,1439.63360634159,0.9998038260190152,0.00011825623054603033
1439.6405510218217,1439.6405510218217,1.0000474453144705,0.00011830036159792745
1439.6474957019605,1439.6474957019605,1.0000764771531543,0.00011830777303265273
1439.65444038182,1439.65444038182,1.000281119042859,0.00011831387391773285
1439.661385061679,1439.661385061679,1.0000432132445687,0.00011828846221936069
1439.6683297414456,1439.6683297414456,0.9998855072773429,0.00011827452960815417
1439.6752744209323,1439.6752744209323,1.000012660551139,0.00011828724737521577
1439.6822191004194,1439.6822191004194,1.0000381601483037,0.00011828340671350083
1439.6891637796266,1439.6891637796266,1.000095028072868,0.0001182958086857588
1439.696108458927,1439.696108458927,0.9998863020160718,0.00011829470005915603
1439.7030531378548,1439.7030531378548,0.9997259290349765,0.00011828620482505804
1439.70999781669,1439.70999781669,1.0001232972999428,0.00011831055589870735
1439.716942495525,1439.716942495525,1.000058407443235,0.00011829367188005283
1439.7238871740806,1439.7238871740806,1.0000053773110074,0.00011831281029215782
1439.7308318525425,1439.7308318525425,1.0001367571847684,0.00011830914033108063
1439.7377765310052,1439.7377765310052,0.9998521682917918,0.00011828940673744072
1439.744721209095,1439.744721209095,1.0000250121310101,0.00011831785727498041
