time,time,flux,flux_err
1325.299493165794,1325.299493165794,0.9997769091167611,0.0010165478264896383
1325.3078265536249,1325.3078265536249,1.0001262204047758,0.001018034141350752
1325.3154654926614,1325.3154654926614,0.9999646122085043,0.000930376435522658
1325.3224099828715,1325.3224099828715,0.9999208324164298,0.0009315395452850839
1325.3293544732037,1325.3293544732037,0.9998896951171712,0.0009329329648822693
1325.3362989637048,1325.3362989637048,1.0011886524191433,0.0009343469784889842
1325.3432434543515,1325.3432434543515,0.9993725121072503,0.0009353557040339293
1325.3501879451555,1325.3501879451555,0.9996084464079514,0.0009367346560746018
1325.3571324360933,1325.3571324360933,0.9997857936884641,0.0009382818970129856
1325.3640769271765,1325.3640769271765,0.9987657619058068,0.0009394830947977485
1325.3710214183939,1325.3710214183939,1.0009832812428776,0.0009413691567670404
1325.3779659097677,1325.3779659097677,0.9991270941374781,0.0009420758751579168
1325.3849104012763,1325.3849104012763,1.0001133084051945,0.000943768089406897
1325.3918548929182,1325.3918548929182,1.0008557383695607,0.0009454378915949637
1325.3987993846938,1325.3987993846938,0.9996503343534237,0.0009464441192708311
1325.4057438766156,1325.4057438766156,1.0001364972604259,0.0009481887947859372
1325.4126883686647,1325.4126883686647,1.0001883216713927,0.0009493999781464363
1325.4196328608366,1325.4196328608366,0.9990806343974669,0.0009503588612390179
1325.426577353148,1325.426577353148,0.9998591674435955,0.0009519384348855537
1325.433521845593,1325.433521845593,1.000276683626725,0.0009535675119801086
1325.440466338161,1325.440466338161,0.9985599125166497,0.0009546111704082409
1325.4474108308448,1325.4474108308448,1.0010893098181992,0.0009568256024764987
1325.4543553236683,1325.4543553236683,1.0000177703442124,0.0009581655918191271
1325.4612998166083,1325.4612998166083,0.999638499864458,0.0009597936092909287
1325.4682443096765,1325.4682443096765,0.9997208170786143,0.0009614511459956453
1325.475188802861,1325.475188802861,1.001719446363874,0.000963596247887576
1325.482133296162,1325.482133296162,0.9991687821539651,0.0009648424776017532
1325.4890777895912,1325.4890777895912,0.9993035965335941,0.000966977138792784
1325.4960222831191,1325.4960222831191,1.000034685118428,0.000969309670954485
1325.5029667767749,1325.5029667767749,0.9994911327514057,0.0009714426707330606
1325.5099112705418,1325.5099112705418,0.9995966579468464,0.0009736378269743553
1325.5168557644188,1325.5168557644188,1.0003119248193741,0.0009761695869087607
1325.5238002584185,1325.5238002584185,1.000286329168184,0.0009784674405510694
1325.5307447525167,1325.5307447525167,1.0006671220293806,0.0009811927053363007
1325.537689246726,1325.537689246726,1.0004929042855963,0.0009832752557265218
1325.5446337410397,1325.5446337410397,1.0003389550900228,0.0009857631482130948
1325.5515782354698,1325.5515782354698,1.0010316306357503,0.000988251178077664
1325.558522729993,1325.558522729993,0.9991357782669749,0.0009901362743604434
1325.565467224627,1325.565467224627,0.9992554529035628,0.000992219994893169
1325.5724117193538,1325.5724117193538,0.999341264213605,0.0009943874070988963
1325.5793562141978,1325.5793562141978,0.9986657791849085,0.0009958957762208794
1325.5863007091282,1325.5863007091282,1.000736557511559,0.000998186060223664
1325.5932452041638,1325.5932452041638,0.9991404740087273,0.0009992426572977902
1325.600189699304,1325.600189699304,1.0016342244275205,0.0010012122368144962
1325.6071341945317,1325.6071341945317,1.0008774800600642,0.0010022536440503639
1325.6140786898527,1325.6140786898527,1.0008857778753881,0.001003379338430551
1325.6210231852722,1325.6210231852722,0.9984529618406797,0.001003419881724847
1325.6279676807735,1325.6279676807735,1.0001708650758458,0.0010041387877453801
1325.6349121763792,1325.6349121763792,0.9984981386702367,0.0010038781103715838
1325.6418566720672,1325.6418566720672,1.0004979126463325,0.0010044228873858673
1325.6488011678532,1325.6488011678532,1.000211056115205,0.0010043523065399562
1325.6557456637213,1325.6557456637213,0.9981238405788042,0.0010039653269226353
1325.6626901596878,1325.6626901596878,1.0015675786851128,0.0010048904845895404
1325.6696346557308,1325.6696346557308,1.0005249320837644,0.0010047365944111269
1325.676579151866,1325.676579151866,1.0006736151437514,0.0010048938827340315
1325.6835236480779,1325.6835236480779,1.0004772626459253,0.0010048027771468145
1325.6904681443707,1325.6904681443707,1.0009560167012244,0.0010051420743747504
1325.6974126407563,1325.6974126407563,0.9982630954223577,0.001004645829294886
1325.7043571372064,1325.7043571372064,0.9983326181165711,0.0010050709409601458
1325.7113016337555,1325.7113016337555,1.000878224130244,0.001006239468075812
1325.7182461303742,1325.7182461303742,0.9996934110827427,0.0010065199188482859
1325.7251906270744,1325.7251906270744,0.9996141027706462,0.0010076711532833564
1325.7321351238445,1325.7321351238445,1.0011382853355175,0.0010086900789255122
1325.7390796206964,1325.7390796206964,1.0010963763329215,0.0010095183078311699
1325.7460241176236,1325.7460241176236,0.9998265022302582,0.0010101143063804647
1325.7529686146204,1325.7529686146204,1.0004045779064863,0.001011359312730527
1325.7599131116992,1325.7599131116992,1.0003908683957206,0.0010124212154111586
1325.7668576088477,1325.7668576088477,0.9984716786907587,0.0010130950812547478
1325.7738021060663,1325.7738021060663,0.9998676063097107,0.0010138785051639055
1325.7807466033541,1325.7807466033541,0.9995366194418656,0.0010150413426273741
1325.7876911007127,1325.7876911007127,0.9988649392791423,0.0010158915822972845
1325.7946355981344,1325.7946355981344,1.0016300612253193,0.0010172664438765286
1325.8015800956377,1325.8015800956377,1.0002876506851512,0.0010176740521597645
1325.808524593194,1325.808524593194,0.9987991081419259,0.001018097918215823
1325.8154690908195,1325.8154690908195,0.9999944870073332,0.0010182559698039086
1325.8224135885216,1325.8224135885216,1.0008546778880016,0.0010189906469208253
1325.8293580862805,1325.8293580862805,1.000434755641035,0.001019209125534737
1325.8363025840986,1325.8363025840986,1.0005686435041656,0.0010194300649462868
1325.8432470819866,1325.8432470819866,1.0006124386865174,0.0010193351615274027
1325.850191579938,1325.850191579938,0.9991813248183332,0.0010187405920947376
1325.857136077942,1325.857136077942,0.9994865826970084,0.0010182098537651093
1325.8640805760103,1325.8640805760103,1.0005821081269162,0.001018113208276535
1325.8710250741428,1325.8710250741428,0.9991471383232307,0.0010166702543019793
1325.8779695723274,1325.8779695723274,0.9988408389776862,0.0010154473376634205
1325.8849140705756,1325.8849140705756,1.0006190028003665,0.0010147440996444857
1325.891858568877,1325.891858568877,1.0005758448640527,0.0010139696764841207
1325.8988030672476,1325.8988030672476,1.000953272817181,0.0010131897901646204
1325.9057475656532,1325.9057475656532,0.99877505437359,0.0010120843427846263
1325.9126920641288,1325.9126920641288,1.0011000491916442,0.001011719514190339
1325.919636562651,1325.919636562651,0.9995406977760432,0.0010102279778937012
1325.9265810612376,1325.9265810612376,0.9993836705486349,0.0010101797957501135
1325.93352555987,1325.93352555987,0.9996676022704086,0.0010095168196617643
1325.9404700585558,1325.9404700585558,1.0000989737030652,0.0010095770673455235
1325.947414557293,1325.947414557293,1.0010086037106336,0.0010090329414119987
1325.954359056077,1325.954359056077,0.9993784784850167,0.0010083003900125454
1325.9618591148314,1325.9618591148314,1.0001521512963183,0.001008250710134882
1325.969636953591,1325.969636953591,1.0000762008032142,0.001008091406673298
1325.9765814525497,1325.9765814525497,1.000767133973536,0.0010081400819802041
1325.983525951537,1325.983525951537,0.9997000538984274,0.0010079075388106065
1325.9904704505832,1325.9904704505832,0.9989700791141894,0.0010081002815180732
1325.9974149496643,1325.9974149496643,1.0001760424060169,0.0010084809592154128
1326.0043594488154,1326.0043594488154,1.00111985176887,0.0010090971792796725
1326.0113039479952,1326.0113039479952,0.9985153166857735,0.001009552345754611
1326.018248447216,1326.018248447216,1.0007517810816784,0.0010108088325361379
1326.0251929464946,1326.0251929464946,1.0005528680649216,0.0010115098171390034
1326.0321374458206,1326.0321374458206,0.9993275252122921,0.0010116464129917937
1326.0390819451745,1326.0390819451745,0.9999799965264942,0.0010116019238230176
1326.0460264445821,1326.0460264445821,0.9995539385019683,0.001011126099749205
1326.0529709440234,1326.0529709440234,0.9992897892447052,0.0010110248127390726
1326.059915443512,1326.059915443512,1.0000065825026714,0.0010114830087531307
1326.0668599430353,1326.0668599430353,1.0022228564805018,0.0010119740135632938
1326.073804442611,1326.073804442611,1.0001828088866649,0.0010117421866018697
1326.080748942222,1326.080748942222,0.9993795463428011,0.0010116907444389536
1326.0876934418732,1326.0876934418732,0.9994090513528727,0.0010119613973539597
1326.0946379415657,1326.0946379415657,1.0003088058836958,0.0010120749435527394
1326.1015824412812,1326.1015824412812,1.0001853876658062,0.0010121134535742648
1326.1085269410487,1326.1085269410487,0.9996939536697036,0.001011830607393421
1326.1154714408515,1326.1154714408515,0.9992304176763994,0.0010117291523624957
1326.1224159406888,1326.1224159406888,0.999693160025671,0.001011698275355325
1326.1293604405678,1326.1293604405678,1.0009969980107003,0.0010118168905454059
1326.136304940475,1326.136304940475,1.001818684485062,0.0010118706079700636
1326.1432494404235,1326.1432494404235,1.0014356600221532,0.0010115360071798556
1326.150193940401,1326.150193940401,0.9994729527754365,0.0010108543480921144
1326.1571384404244,1326.1571384404244,0.9999212615671764,0.0010107155556777097
1326.1640829404726,1326.1640829404726,1.0004136098484409,0.0010107180817939862
1326.1710274405539,1326.1710274405539,1.000993001112576,0.0010106114910988268
1326.177971940677,1326.177971940677,0.999055549668738,0.001010019335097256
1326.1849164408231,1326.1849164408231,1.0000280416811056,0.0010097485651926036
1326.191860941004,1326.191860941004,1.0000945748819219,0.0010098338686525383
1326.1988054412207,1326.1988054412207,1.0001107069735977,0.0010096539749453412
1326.2057499414652,1326.2057499414652,1.0002924979603847,0.001009793400381521
1326.2126944417344,1326.2126944417344,1.0002108411936104,0.0010098068213740495
1326.2196389420487,1326.2196389420487,1.000223964722907,0.0010092274549516314
1326.226583442381,1326.226583442381,0.9988974066351058,0.00100891275206406
1326.2335279427487,1326.2335279427487,1.000206429989369,0.001009225581754595
1326.2404724431392,1326.2404724431392,0.9998421403820016,0.0010088297881579353
1326.247416943565,1326.247416943565,0.9995589811799361,0.0010085359320063055
1326.2543614440197,1326.2543614440197,0.9998253684289816,0.0010084683230822023
1326.261305944498,1326.261305944498,0.9997438746782097,0.001008492551671849
1326.2682504450047,1326.2682504450047,1.000985780346047,0.0010081021484570393
1326.2751949455346,1326.2751949455346,1.0004836952997627,0.001007785481381715
1326.2821394461007,1326.2821394461007,0.9992758891703353,0.0010072701025844583
1326.2890839466831,1326.2890839466831,0.9998699485390595,0.0010073388352238664
1326.2960284473006,1326.2960284473006,1.0008794501015383,0.001007502482097217
1326.3029729479356,1326.3029729479356,1.0001741625445344,0.0010069507794345707
1326.3099174486001,1326.3099174486001,0.9993858480207123,0.0010067443742487598
1326.3168619492876,1326.3168619492876,1.0008512407164012,0.0010072803300249303
1326.323806449998,1326.323806449998,0.9988753486736351,0.0010070886882751684
1326.3307509507445,1326.3307509507445,0.999847964815767,0.0010073251094766997
1326.3376954515013,1326.3376954515013,0.9997571108680766,0.0010069494506281702
1326.344639952288,1326.344639952288,0.9994109469180852,0.0010072535340554028
1326.3543622534253,1326.3543622534253,1.0012649930052835,0.001007977734099934
1326.3613067542697,1326.3613067542697,1.0005931907680476,0.001008229516081374
1326.368251255132,1326.368251255132,0.9993090983449896,0.0010078241953606145
1326.3751957560053,1326.3751957560053,1.0004356414046112,0.0010085193782873314
1326.3821402569145,1326.3821402569145,0.9993302078931382,0.0010081836845443983
1326.3890847578405,1326.3890847578405,0.9994432438911425,0.0010085503700608498
1326.3960292587842,1326.3960292587842,0.9998810872393061,0.0010086703342178332
1326.402973759757,1326.402973759757,1.002324482496473,0.0010093837153577175
1326.4099182607413,1326.4099182607413,0.9981572559270445,0.0010087491270073623
1326.4168627617491,1326.4168627617491,0.999273294060704,0.0010089697619416866
1326.42380726278,1326.42380726278,1.0010875715755696,0.0010098659597044765
1326.4307517638226,1326.4307517638226,0.9993722271560695,0.0010094453810847366
1326.437696264894,1326.437696264894,1.0006331621664633,0.0010099135370669823
1326.4446407659775,1326.4446407659775,1.0004751957670386,0.0010099781819129549
1326.4515852670786,1326.4515852670786,1.0012416134185318,0.0010104257203038317
1326.4585297682024,1326.4585297682024,0.9984561031804329,0.0010099148249097265
1326.4654742693324,1326.4654742693324,0.9999868294919144,0.0010106471705308053
1326.4724187704974,1326.4724187704974,0.9998066418372427,0.001010681925980827
1326.4793632716678,1326.4793632716678,0.9993680466200152,0.00101075476302162
1326.4863077728617,1326.4863077728617,1.0007582264713772,0.001010911508607868
1326.4932522740673,1326.4932522740673,0.9994506186109371,0.0010111970687982246
1326.5001967752905,1326.5001967752905,1.0011934344249116,0.001011621363244716
1326.5071412765305,1326.5071412765305,0.9991415391147026,0.001011468161676178
1326.5140857777888,1326.5140857777888,0.9994965900554307,0.0010113932750792946
1326.5210302790583,1326.5210302790583,1.0001966990446243,0.001012041656860683
1326.5279747803456,1326.5279747803456,1.000506935750512,0.0010124508201016466
1326.5349192816443,1326.5349192816443,0.9998688025891541,0.0010127500158238249
1326.5418637829662,1326.5418637829662,0.9993339761050564,0.0010132846847208138
1326.5488082842996,1326.5488082842996,1.0013399743756262,0.0010143186238499888
1326.555752785645,1326.555752785645,0.9989373405833902,0.0010139719489349812
1326.562697287008,1326.562697287008,1.000016845440228,0.001014087687883814
1326.5696417883762,1326.5696417883762,1.0009478226650668,0.0010148046913320253
1326.5765862897683,1326.5765862897683,0.9995805670046826,0.0010145097472087153
1326.5835307911657,1326.5835307911657,1.0001324303232517,0.0010143909465732555
1326.590475292581,1326.590475292581,1.000772104714661,0.0010148940478529535
1326.5974197940018,1326.5974197940018,1.0000612930556274,0.001015200488764688
1326.6043642954462,1326.6043642954462,0.9991486248782506,0.0010153000386598132
1326.6113087968904,1326.6113087968904,0.9995344793001465,0.0010151274507607722
1326.6182532983635,1326.6182532983635,0.9987845386214887,0.0010152527323921304
1326.625197799843,1326.625197799843,1.0001813749627977,0.0010158244181210664
1326.6321423013276,1326.6321423013276,1.0011499916299227,0.0010157663332190702
1326.6390868028243,1326.6390868028243,1.0011832338523525,0.0010156486934377678
1326.6460313043383,1326.6460313043383,0.9981287472288237,0.0010148598017009113
1326.6529758058582,1326.6529758058582,1.0020004773967883,0.0010153657478778719
1326.6599203073902,1326.6599203073902,1.0009304986973784,0.0010144260665329995
1326.666864808933,1326.666864808933,0.9990751485929259,0.0010135805077672766
1326.6738093104882,1326.6738093104882,1.0000966933749817,0.0010134094263233486
1326.6807538120543,1326.6807538120543,0.9991770647693874,0.001012641599379623
1326.6885316538114,1326.6885316538114,1.0009757600339064,0.001012838432373051
1326.6960317155285,1326.6960317155285,1.0004866044473562,0.0010116746752734049
1326.702976217118,1326.702976217118,0.9999483970558931,0.0010110131722037956
1326.710198498789,1326.710198498789,0.9989325705753522,0.0010101782653731653
1326.718254120662,1326.718254120662,0.9996350512282538,0.001009747755637568
1326.7251986222868,1326.7251986222868,1.001024128146125,0.0010095251626222957
1326.7321431239234,1326.7321431239234,0.9987333219487982,0.0010085609701323945
1326.7390876255654,1326.7390876255654,1.0006660256080666,0.0010085219662844085
1326.7460321272133,1326.7460321272133,1.0001360476392585,0.0010081434879869336
1326.7529766288783,1326.7529766288783,1.0001055677547228,0.0010078865951187713
1326.7599211305383,1326.7599211305383,1.0008208355359245,0.0010077258836350459
1326.7668656322091,1326.7668656322091,1.0013608074447136,0.0010075837174776255
1326.7738101338982,1326.7738101338982,0.9993650516744974,0.0010068557490116843
1326.7807546355812,1326.7807546355812,0.9997540337391195,0.0010066327243661395
1326.7876991372814,1326.7876991372814,0.9993495049355342,0.0010066491231882128
1326.7946436389818,1326.7946436389818,0.999622700472497,0.0010067486073419146
1326.8015881406939,1326.8015881406939,0.9988667998001748,0.0010066726971968425
1326.8085326424173,1326.8085326424173,0.998867482997176,0.0010066304640076592
1326.8154771441232,1326.8154771441232,1.002068167512274,0.0010075961769770373
1326.8224216458589,1326.8224216458589,1.0005430014222794,0.0010072519692155473
1326.8293661475939,1326.8293661475939,1.000336158087344,0.0010068712294826392
1326.836310649341,1326.836310649341,1.0006104385234504,0.001006787963204986
1326.8432551510937,1326.8432551510937,0.9973361104974747,0.0010058288559621127
1326.8501996528462,1326.8501996528462,0.9992714095745564,0.001005992539688404
1326.8571441546048,1326.8571441546048,0.9996236356090659,0.0010058204113979042
1326.8640886563694,1326.8640886563694,1.0011182627005542,0.0010053255029292588
1326.8710331581394,1326.8710331581394,0.9998915116004801,0.001004442073382864
1326.8779776599154,1326.8779776599154,1.0001242809958897,0.001003885034945196
1326.8849221616915,1326.8849221616915,1.0021163877664239,0.0010036254500994128
1326.891866663485,1326.891866663485,0.9985200384932739,0.0010016894536352722
1326.8988111652668,1326.8988111652668,1.0007216687954976,0.0010014641990569897
1326.9057556670662,1326.9057556670662,0.9976681572549279,0.000999922371291577
1326.9127001688594,1326.9127001688594,0.9998599676338571,0.0009990692546781297
1326.9196446706706,1326.9196446706706,1.0003964421083065,0.0009985773335860514
1326.9265891724754,1326.9265891724754,1.0007301201586625,0.0009972592296159713
1326.9335336742868,1326.9335336742868,0.9998837514013449,0.0009962319585456356
1326.9404781760916,1326.9404781760916,1.0010967208753336,0.0009955744300200536
1326.9474226779141,1326.9474226779141,0.9996530427654717,0.000994178290379281
1326.954367179737,1326.954367179737,0.9996745382515939,0.0009928825255877515
1326.9613116815594,1326.9613116815594,0.9989338766254481,0.0009921055380579507
1326.9682561833881,1326.9682561833881,1.0003683039944546,0.0009918945214376393
1326.9752006852161,1326.9752006852161,1.0002545389247404,0.0009907595406984777
1326.9821451870505,1326.9821451870505,1.0001565619522403,0.0009902296200956621
1326.9890896888905,1326.9890896888905,1.000515066367586,0.000989977611912998
1326.996034190731,1326.996034190731,1.000489681042228,0.0009894601615173372
1327.0029786925647,1327.0029786925647,0.9999794692156325,0.00098900331236084
1327.0099231944107,1327.0099231944107,0.9995232114633359,0.0009888089651965508
1327.0168676962621,1327.0168676962621,0.9990853297473665,0.0009883052797580636
1327.023812198108,1327.023812198108,1.0001374098692275,0.0009883142120138866
1327.03075669996,1327.03075669996,1.0000790549927872,0.0009884365541938502
1327.0377012018112,1327.0377012018112,1.000650471080682,0.0009883509489537648
1327.0446457036633,1327.0446457036633,0.9991710348425407,0.000988447630054803
1327.0515902055208,1327.0515902055208,0.9999361167765152,0.0009882490328929098
1327.0590902675285,1327.0590902675285,1.0000221197822983,0.000988433458089932
1327.0668681096063,1327.0668681096063,1.0006961520238604,0.0009886489818546756
1327.0738126114695,1327.0738126114695,0.9998963312058958,0.000988171017565286
