time,time,flux,flux_err
1410.9105598374088,1410.9105598374088,0.9996915951731815,0.00018257197950276514
1410.9175045339373,1410.9175045339373,0.9998477336802495,0.00018258458925216877
1410.9244492304672,1410.9244492304672,1.0000509937283673,0.0001826092167957788
1410.9313939266228,1410.9313939266228,0.9997818350093152,0.0001825762444484483
1410.9383386227796,1410.9383386227796,1.0003971315312927,0.00018262053279534344
1410.9452833186567,1410.9452833186567,1.0002578757609295,0.00018260871517697825
1410.9522280143472,1410.9522280143472,1.000156162335913,0.0001825925151995515
1410.9591727098523,1410.9591727098523,1.0001348236051875,0.0001825837039692556
1410.9672285563354,1410.9672285563354,1.000252228324657,0.00018259467460231483
1410.981673521949,1410.981673521949,0.9999948239919304,0.00018246826073837702
1410.9911183068073,1410.9911183068073,0.9999493480445432,0.00018256442630729667
1410.9997297277093,1410.9997297277093,0.9997506267305392,0.00018245041751156424
1411.0105634506624,1411.0105634506624,1.0000718674082445,0.00018251509007912651
1411.0175081445836,1411.0175081445836,1.0002641077177983,0.00018254729692211388
1411.0244528383187,1411.0244528383187,1.0002505613475623,0.0001825375622733874
1411.031397531868,1411.031397531868,1.0000146065579396,0.00018250514349785996
1411.0383422251366,1411.0383422251366,0.9998371722161892,0.00018246409630807829
1411.0452869183132,1411.0452869183132,0.9999440290925543,0.0001824807128156057
1411.053064974328,1411.053064974328,1.000049919024826,0.00018249243603353233
1411.0605652425743,1411.0605652425743,0.9999420041807905,0.0001824592013746204
1411.0675099350058,1411.0675099350058,0.9999620662190762,0.00018252060075791077
1411.0744546273431,1411.0744546273431,1.000183451012924,0.00018251275354803662
1411.0813993194026,1411.0813993194026,1.0006514877987942,0.0001825450905451295
1411.0883440112748,1411.0883440112748,0.9997466787536314,0.00018250440742647597
1411.0952887031467,1411.0952887031467,0.9999717601721867,0.0001825103054189468
1411.1022333945543,1411.1022333945543,0.9998908579184104,0.0001825480635565118
1411.1091780858674,1411.1091780858674,1.0002518816103976,0.00018252223894149467
1411.1161227770885,1411.1161227770885,0.999766716357362,0.0001824708536215588
1411.123067467936,1411.123067467936,1.0000673193402494,0.000182558057326159
1411.1300121586905,1411.1300121586905,1.000113525909989,0.00018248200438854707
1411.1369568492594,1411.1369568492594,0.9997229967262544,0.00018248330385593439
1411.143901539548,1411.143901539548,1.000040535107852,0.00018250018107967176
1411.1508462296517,1411.1508462296517,0.9998929556931312,0.00018250325812678577
1411.1577909196608,1411.1577909196608,1.000101134854632,0.00018250164989724735
1411.1647356092983,1411.1647356092983,1.000388527256448,0.0001825349703962373
1411.1716802988426,1411.1716802988426,1.0001595913008445,0.00018246074309790532
1411.178624988386,1411.178624988386,0.9997452199576813,0.00018247334163819403
1411.185569677465,1411.185569677465,0.9996804160973218,0.00018244251630680823
1411.192514366357,1411.192514366357,1.0001988787149636,0.00018252091699357968
1411.199459055156,1411.199459055156,0.9997696687545716,0.0001824504305728226
1411.2064037436758,1411.2064037436758,1.000205335158606,0.00018249960910766258
1411.2133484320086,1411.2133484320086,1.0001914555688427,0.00018249825784163082
1411.2202931202496,1411.2202931202496,0.9998575266216523,0.00018241252915956457
1411.2272378082098,1411.2272378082098,1.000173852129008,0.00018249891116254847
1411.2341824959847,1411.2341824959847,1.000363660374234,0.00018246884061103906
1411.241127183573,1411.241127183573,0.9999899424753151,0.0001824688971376822
1411.2480718707886,1411.2480718707886,1.0000266600772072,0.00018247609191493225
1411.255016558005,1411.255016558005,1.0001579608141562,0.0001824880307188292
1411.2619612451272,1411.2619612451272,0.9996651485425776,0.00018242228848139942
1411.2689059318775,1411.2689059318775,1.0000701885378593,0.00018245038439612587
1411.2758506184414,1411.2758506184414,1.000018029360866,0.0001824695996567861
1411.2827953048184,1411.2827953048184,1.0001153949237005,0.0001825000723754579
1411.2897399909173,1411.2897399909173,1.0002859291324326,0.00018247643624770196
1411.2966846770153,1411.2966846770153,0.9998485221140531,0.00018245732180439093
1411.3036293627408,1411.3036293627408,1.0001849313077744,0.0001824898465857685
1411.310574048467,1411.310574048467,0.9998348454463905,0.00018247584703993085
1411.3175187338193,1411.3175187338193,0.9998219768141382,0.00018251295458167064
1411.3244634189869,1411.3244634189869,0.9997594562709299,0.00018249439112381788
1411.331408103874,1411.331408103874,0.9998752061539232,0.0001824909068005342
1411.3383527887613,1411.3383527887613,1.0001252762595871,0.0001824604821639107
1411.3452974734628,1411.3452974734628,1.0000535967080018,0.0001825235665645879
1411.3522421578843,1411.3522421578843,1.000396833277263,0.00018253229401989242
1411.3591868420274,1411.3591868420274,1.000084659019469,0.0001824966741311757
1411.366131526076,1411.366131526076,1.0001285408396179,0.00018248625318415283
1411.3730762100329,1411.3730762100329,0.9999152613932576,0.0001824569022166623
1411.3800208935231,1411.3800208935231,0.9996997456437786,0.00018251687607010708
1411.3869655771064,1411.3869655771064,0.999656256852538,0.00018246336695095723
1411.3939102602249,1411.3939102602249,1.0001867299095633,0.0001824831122517252
1411.4008549433424,1411.4008549433424,0.9996413651986961,0.0001824601573809039
1411.4077996261815,1411.4077996261815,1.000818752817157,0.0001825338183507559
1411.4147443090199,1411.4147443090199,1.0000423167609422,0.0001824956933059545
1411.4216889913926,1411.4216889913926,1.000187616773887,0.00018250237500140116
1411.4286336736727,1411.4286336736727,1.0000003832797337,0.0001824735875205086
1411.4355783556725,1411.4355783556725,1.0000308122783546,0.00018247760669961173
1411.4425230375805,1411.4425230375805,0.9997296370569175,0.00018243565492908552
1411.449467719301,1411.449467719301,1.0002767983246716,0.00018247265248487118
1411.4564124007425,1411.4564124007425,0.9997813598362655,0.00018245540072843767
1411.4633570821845,1411.4633570821845,1.0003309560571543,0.00018253516100235934
1411.470301763253,1411.470301763253,0.9995621230734247,0.00018242151234989877
1411.4772464442299,1411.4772464442299,0.9998635720311544,0.00018248412164576853
1411.484191124926,1411.484191124926,1.0002245493185655,0.0001824936800096454
1411.4911358055292,1411.4911358055292,1.0002689014569306,0.0001825234901080568
1411.4980804857605,1411.4980804857605,0.9997257465931225,0.0001824710030920693
1411.5050251659907,1411.5050251659907,0.9998895310111935,0.00018249698992683954
1411.5119698459428,1411.5119698459428,1.0001450468292397,0.00018249591987579375
1411.5189145258005,1411.5189145258005,1.0000339109691079,0.00018246761880930145
1411.5258592052865,1411.5258592052865,1.0000578604080612,0.0001824841147208868
1411.5328038847726,1411.5328038847726,1.000158378428735,0.00018254627674608938
1411.5397485639783,1411.5397485639783,0.999888114275857,0.00018252025593072896
1411.5466932429995,1411.5466932429995,0.9996792166262706,0.00018245292434342124
1411.5536379218331,1411.5536379218331,1.0000505503341084,0.0001825146945837551
1411.5605826004808,1411.5605826004808,1.0000865122012998,0.00018252325313700889
1411.567527278942,1411.567527278942,1.000204464785264,0.00018251703918770485
1411.5744719571237,1411.5744719571237,1.000113388276531,0.0001825198623856701
1411.5814166353991,1411.5814166353991,0.9999079524212444,0.00018251858846880825
1411.5883613133014,1411.5883613133014,1.0001066041374376,0.0001825602472441298
1411.595305990832,1411.595305990832,0.9997957629832968,0.0001825250420787883
1411.6022506684544,1411.6022506684544,0.999841352160743,0.00018254060543195693
1411.6091953457055,1411.6091953457055,1.000055202741762,0.00018254093078181515
1411.6161400228634,1411.6161400228634,1.0000397604357327,0.00018252849247101712
1411.6230846998337,1411.6230846998337,0.9998798549335925,0.00018251924005237735
1411.6300293766194,1411.6300293766194,1.0000735469368913,0.00018256125019128834
1411.6369740532177,1411.6369740532177,0.999912487182001,0.0001825551908414323
1411.6439187296305,1411.6439187296305,1.0000501261967136,0.00018253272963114525
1411.6508634058566,1411.6508634058566,1.0001284388911595,0.00018254605595144374
1411.657808081896,1411.657808081896,1.0001522866074382,0.00018256184753513477
1411.6647527577504,1411.6647527577504,1.0000944983127513,0.00018255292759944143
1411.671697433324,1411.671697433324,0.999842319913677,0.0001825373140177709
1411.6786421088989,1411.6786421088989,0.9999317566775845,0.00018255121216276067
1411.6855867841937,1411.6855867841937,1.000053202329012,0.00018253810073276235
1411.6925314593022,1411.6925314593022,1.0000289025073748,0.00018257330589004924
1411.699476134225,1411.699476134225,0.999728247624326,0.0001825208077890425
1411.7064208089603,1411.7064208089603,1.0000124193760365,0.0001825236436437307
1411.7133654836039,1411.7133654836039,0.9998958108577144,0.00018252626114072023
1411.720310157967,1411.720310157967,0.9999316606915943,0.00018254875722578196
1411.7272548321441,1411.7272548321441,1.0001203975141195,0.0001825641981260334
1411.7341995062284,1411.7341995062284,1.0002132416431688,0.00018255926987929008
1411.7411441800332,1411.7411441800332,1.0001697119869295,0.00018253304398727625
1411.748088853652,1411.748088853652,0.9999536754489947,0.00018254191400690742
1411.7550335271774,1411.7550335271774,0.999728206268063,0.00018254700173059546
1411.7619782004235,1411.7619782004235,1.0002535549841831,0.0001825666818395834
1411.768922873669,1411.768922873669,1.0001375804079131,0.00018259454710573586
1411.7758675464495,1411.7758675464495,0.9998995775838203,0.00018252686230258
1411.782812219323,1411.782812219323,0.9996435097224182,0.00018254777663455343
1411.7897568918233,1411.7897568918233,0.9999223871372418,0.00018255130864110457
1411.796701564232,1411.796701564232,1.0001784484469758,0.00018259901866366602
1411.803646236546,1411.803646236546,1.0000453614867872,0.0001825855884500359
1411.8105909085814,1411.8105909085814,1.000078880173433,0.00018256162929139626
1411.8175355803376,1411.8175355803376,0.999841630387498,0.0001825502752639347
1411.8244802519996,1411.8244802519996,1.0001894558005509,0.0001825568277321791
1411.83142492357,1411.83142492357,0.9998890076361808,0.00018256952876763235
1411.8383695949528,1411.8383695949528,0.9997150312783468,0.00018252138922797526
1411.8453142660571,1411.8453142660571,1.0002574018938364,0.0001825676876148514
1411.852258937254,1411.852258937254,1.0000813495602228,0.00018256808785279555
1411.859203607799,1411.859203607799,1.0001953843690525,0.0001826013914820752
1411.8661482785308,1411.8661482785308,0.9998915342749031,0.0001825565699637453
1411.8730929489823,1411.8730929489823,1.0003563373198812,0.00018261066815225874
1411.8800376192482,1411.8800376192482,0.9999129124905076,0.00018257456041931349
1411.8869822893278,1411.8869822893278,0.999654371704047,0.00018252558898565024
1411.8939269593143,1411.8939269593143,1.0001907544620667,0.0001826093773139717
1411.9008716291144,1411.9008716291144,1.0000969399191533,0.00018260724288198324
1411.9078162986348,1411.9078162986348,1.0002595947961326,0.00018259513984225325
1411.9147609680626,1411.9147609680626,1.0001481375153662,0.00018260440660092432
1411.9217056373036,1411.9217056373036,0.9996673651093863,0.0001825260788133071
1411.928650306359,1411.928650306359,0.9998762170618687,0.00018256362621186115
1411.9355949752276,1411.9355949752276,0.9996410798366145,0.00018255240689060608
1411.9425396438169,1411.9425396438169,1.0002099390134522,0.00018258455042035603
1411.9494843124062,1411.9494843124062,1.0003145335789205,0.00018260442746030988
1411.956428980902,1411.956428980902,0.999899740981796,0.00018258958973476036
1411.9633736490264,1411.9633736490264,1.0002626384593076,0.000182625322748332
1411.9703183170564,1411.9703183170564,1.0002864464850734,0.0001825959342194902
1411.9772629849945,1411.9772629849945,1.000103678561538,0.0001825888719152234
1411.9842076526522,1411.9842076526522,0.999933461088426,0.0001825637004988792
1411.991152320124,1411.991152320124,0.999909452018479,0.00018256111195911578
1411.998096987503,1411.998096987503,1.000021059724228,0.00018253494085827376
1412.0050416546947,1412.0050416546947,0.9999085460040936,0.00018259784878894817
1412.0119863217014,1412.0119863217014,1.0000931799947796,0.0001825828044578835
1412.0189309885209,1412.0189309885209,1.0004438930058286,0.00018264487501620842
1412.0258756552478,1412.0258756552478,0.9998092838705468,0.00018257024694258802
1412.0328203217882,1412.0328203217882,0.9998330616971245,0.00018257212108963825
1412.039764988235,1412.039764988235,0.9999800234666261,0.00018257211086583644
1412.0467096542172,1412.0467096542172,1.0002076303267273,0.00018256844414975797
1412.053654320292,1412.053654320292,0.9998746795880024,0.00018255074000575068
1412.0605989860876,1412.0605989860876,0.9998423048725774,0.00018254852530017162
1412.0675436516963,1412.0675436516963,0.9998788541499437,0.00018259119412260258
1412.0744883172129,1412.0744883172129,1.000156434839596,0.00018260369509173698
1412.081432982542,1412.081432982542,0.9998284172923044,0.0001825608286770344
1412.088377647779,1412.088377647779,1.0002955565220122,0.0001825826688891952
1412.0953223127362,1412.0953223127362,0.9999873189362842,0.00018258024979376044
1412.1022669775996,1412.1022669775996,0.9998585117620944,0.00018257607226213692
1412.109211642185,1412.109211642185,1.0000245030664796,0.00018258792407594877
1412.1161563067692,1412.1161563067692,1.0001904603851928,0.00018261709606144907
1412.1231009710748,1412.1231009710748,1.0001119537337213,0.00018258533244656512
1412.1300456351935,1412.1300456351935,0.9997899174329099,0.00018254727618239745
1412.1369902991264,1412.1369902991264,0.9997409493017738,0.00018256230275236728
1412.1439349630596,1412.1439349630596,1.0003478204161012,0.0001825654097286186
1412.1508796268056,1412.1508796268056,0.9997339746892011,0.0001825234300534916
1412.157824290273,1412.157824290273,1.0000868522022828,0.00018256573413356233
1412.1647689536467,1412.1647689536467,1.0004562750603376,0.0001826254556824129
1412.1717136167413,1412.1717136167413,0.9997582359750723,0.0001825506974594325
1412.1786582798359,1412.1786582798359,1.000221642567429,0.0001826025057976015
1412.185602942744,1412.185602942744,0.9997602802217923,0.00018256676808938956
1412.1925476053734,1412.1925476053734,1.0002840100226542,0.000182611172044418
1412.199492268002,1412.199492268002,0.9998992205380102,0.00018258289615661805
1412.206436930352,1412.206436930352,1.0001435325427583,0.00018263758949871946
1412.2133815925147,1412.2133815925147,1.0001706526538037,0.00018261451233318596
1412.2203262545852,1412.2203262545852,0.9994351506409087,0.00018256799798310053
1412.227270916469,1412.227270916469,1.0006316589749609,0.00018265560353984315
1412.2342155783529,1412.2342155783529,1.0000185952852723,0.00018262778747381395
1412.2411602399575,1412.2411602399575,0.999649308224552,0.00018255441310128186
1412.2481049010955,1412.2481049010955,0.9999898897428094,0.00018258671183578082
1412.2556051353497,1412.2556051353497,1.0000365806422251,0.00018258306886909326
1412.264216515087,1412.264216515087,1.0002901340336836,0.00018250862732958927
1412.273939040216,1412.273939040216,1.0003522845403099,0.00018254464792247154
1412.2847727108287,1412.2847727108287,0.9997239843100043,0.00018250075496023
1412.2939396624697,1412.2939396624697,0.9998780191554475,0.0001825005924707054
1412.3008843226773,1412.3008843226773,1.000012272267305,0.00018259090460905593
1412.3078289826985,1412.3078289826985,0.9998213030880574,0.000182548563980354
1412.3147736426265,1412.3147736426265,0.9998565522168052,0.0001825421162904945
1412.3217183023687,1412.3217183023687,1.0002850242042791,0.0001826386854112828
1412.3286629618306,1412.3286629618306,1.0003733677662974,0.00018254732847853433
1412.3356076214798,1412.3356076214798,0.9998435167634497,0.00018259559967585256
1412.3425522807556,1412.3425522807556,1.000196256431416,0.00018257678777429612
1412.3494969395665,1412.3494969395665,0.9998385503965881,0.00018253940964735085
1412.3564415986561,1412.3564415986561,1.0003311699904835,0.00018253650137054297
1412.3633862573736,1412.3633862573736,1.0001451907227632,0.0001825341952998545
1412.3703309159978,1412.3703309159978,0.9997131553535802,0.0001825316106714786
1412.3772755745288,1412.3772755745288,1.0000203067936546,0.00018258817814578515
1412.384220232781,1412.384220232781,0.9999631044916206,0.0001825638512673788
1412.3911648909389,1412.3911648909389,0.9999606729699508,0.00018260198390341334
1412.3981095490049,1412.3981095490049,1.000065986949285,0.00018260686290805922
1412.4050542068835,1412.4050542068835,1.0002762221885158,0.0001826152455514205
1412.4119988644836,1412.4119988644836,0.9999560535311843,0.0001825809010840965
1412.4189435220837,1412.4189435220837,1.0003091525387613,0.00018255602034837495
1412.4258881794963,1412.4258881794963,0.9997396957876971,0.00018256655573926152
1412.4328328368174,1412.4328328368174,0.9998741980282564,0.00018262566401497658
1412.439777493858,1412.439777493858,1.0001354077779134,0.00018261408483548534
1412.4467221508062,1412.4467221508062,1.0001433824976194,0.0001826055495396012
1412.4536668075675,1412.4536668075675,0.9998048632677389,0.00018256561714190226
1412.4606114641426,1412.4606114641426,0.9996921819030277,0.0001825587819016045
1412.467556120625,1412.467556120625,1.0002184700137147,0.00018257206268613074
1412.4745007769209,1412.4745007769209,1.0003145449129387,0.0001825860800081083
1412.4814454330306,1412.4814454330306,1.0001252054261147,0.0001825352849741146
1412.48839008914,1412.48839008914,1.0000393335852191,0.0001825916410552528
1412.4953347448777,1412.4953347448777,1.000074017097059,0.0001826008731231117
1412.5022794007073,1412.5022794007073,1.000288306384905,0.00018259486540516594
1412.509224056259,1412.509224056259,0.9996405373263999,0.00018258543168148356
1412.5161687117163,1412.5161687117163,0.999902007951192,0.00018260572855367888
1412.5231133668944,1412.5231133668944,0.9998311112879043,0.00018260199412357096
1412.5300580220733,1412.5300580220733,1.0004683720063396,0.0001826607038909764
1412.5370026770645,1412.5370026770645,1.0002657437566003,0.00018262364834755232
1412.5439473317779,1412.5439473317779,1.0004761282578933,0.000182639459217634
1412.550891986397,1412.550891986397,0.9998255970059186,0.00018259896052387446
1412.5578366410173,1412.5578366410173,0.999914684508876,0.0001826216296202941
1412.5647812952636,1412.5647812952636,0.9999576348825556,0.00018262282173211634
1412.571725949511,1412.571725949511,1.000062831758689,0.00018262197685732116
1412.5786706036647,1412.5786706036647,1.000148668559241,0.0001826588491942448
1412.5856152574463,1412.5856152574463,1.0001488983569247,0.00018264347747478144
1412.5925599112277,1412.5925599112277,1.0000364307115457,0.00018263920956885677
1412.5995045649154,1412.5995045649154,0.9999776234813762,0.0001826351059508236
1412.606449218325,1412.606449218325,0.9996119575755555,0.00018258937806282577
1412.61339387164,1412.61339387164,0.9998051474389593,0.0001826215927101974
1412.6203385248632,1412.6203385248632,0.9999983455651569,0.00018261185779639192
1412.6272831778058,1412.6272831778058,1.0001984434351678,0.00018260406109285072
1412.6342278307488,1412.6342278307488,0.9999790672109212,0.00018256444956577788
1412.641172483413,1412.641172483413,1.0000700701201266,0.0001826406984209408
1412.6481171360763,1412.6481171360763,0.9997097225336251,0.00018258629077528565
1412.6550617884616,1412.6550617884616,0.9999169065424824,0.00018263373420590443
1412.662006440752,1412.662006440752,1.0001450474936215,0.0001826405159030034
1412.6689510929505,1412.6689510929505,1.0001396039465447,0.000182658849614378
1412.6758957448692,1412.6758957448692,0.9998781597170538,0.00018261592058873183
1412.682840396695,1412.682840396695,1.0000637975164255,0.00018255824939698116
1412.689785048334,1412.689785048334,1.0001471446120758,0.0001825965641359828
