time,time,flux,flux_err
1354.1174988487958,1354.1174988487958,0.9999303935257928,0.0001727798071575919
1354.1256008381886,1354.1256008381886,1.000128392998613,0.0001577540229583218
1354.132545400372,1354.132545400372,1.0001546597447983,0.00015774785171072345
1354.1394899624627,1354.1394899624627,1.0001374395322251,0.00015775629388871875
1354.1464345245531,1354.1464345245531,1.0000013840906585,0.0001577438166996333
1354.153379086504,1354.153379086504,0.9999375952881369,0.00015773951227022461
1354.1603236484084,1354.1603236484084,0.999759333723184,0.0001577281212065315
1354.167268210173,1354.167268210173,1.0002112777927294,0.00015776925625738284
1354.1742127719372,1354.1742127719372,0.9998840107992008,0.00015774073039041402
1354.1811573336092,1354.1811573336092,0.9999007384643044,0.00015774060208205673
1354.1881018951406,1354.1881018951406,1.0000730074851414,0.0001577553695953107
1354.195046456626,1354.195046456626,1.0001075606932814,0.00015775905350960847
1354.201991018018,1354.201991018018,0.9999392028641696,0.0001577379232068734
1354.2089355793169,1354.2089355793169,1.000106114994147,0.00015774817218766233
1354.215880140569,1354.215880140569,0.9999823070677006,0.00015774746629594502
1354.2228247017285,1354.2228247017285,0.9998848838807943,0.0001577405304488093
1354.229769262794,1354.229769262794,1.0001935012475653,0.00015775616649655848
1354.2367138237673,1354.2367138237673,0.9998362239301473,0.0001577337519012437
1354.2436583846938,1354.2436583846938,0.9998031261470064,0.00015773059269026565
1354.2506029455271,1354.2506029455271,1.0001024435761439,0.00015774893666130422
1354.257547506267,1354.257547506267,1.0001917288468793,0.0001577544999898925
1354.2644920669604,1354.2644920669604,1.0001532314234383,0.00015774885677493478
1354.271436627561,1354.271436627561,1.0000512236507841,0.00015774214732654115
1354.2783811880684,1354.2783811880684,0.9997665095390476,0.00015772500261602805
1354.2853257484824,1354.2853257484824,1.0000733104423243,0.00015775023253603815
1354.2922703088036,1354.2922703088036,1.000201756543651,0.00015775917467579075
1354.2992148691242,1354.2992148691242,0.9998978283432285,0.00015772943254979953
1354.3061594293056,1354.3061594293056,0.9999590662830566,0.0001577361037561672
1354.3131039893942,1354.3131039893942,1.0000490667681965,0.00015774953690748814
1354.3200485494822,1354.3200485494822,0.9999257489764952,0.0001577296593251091
1354.3269931093841,1354.3269931093841,0.9999908652923614,0.00015773229616308407
1354.3339376692861,1354.3339376692861,1.0002178072903856,0.00015775361912304594
1354.3408822290944,1354.3408822290944,0.9999475768836487,0.0001577270663569434
1354.347826788764,1354.347826788764,1.000010813307939,0.00015774019760089291
1354.3547713484327,1354.3547713484327,0.9999700268666402,0.0001577285989413624
1354.3617159079624,1354.3617159079624,0.9997274786214962,0.00015772174231053147
1354.368660467492,1354.368660467492,0.9999227998078911,0.00015772257170962997
1354.3756050268348,1354.3756050268348,1.0002958065383591,0.00015774873124165003
1354.382549586225,1354.382549586225,1.0001472008267913,0.00015774236137508323
1354.3894941453814,1354.3894941453814,0.9999878038270419,0.00015773377447473403
1354.3964387045382,1354.3964387045382,0.9999771424435091,0.0001577395061448515
1354.4033832636953,1354.4033832636953,1.000299343696616,0.00015775071603920074
1354.4103278227124,1354.4103278227124,0.9997030773212655,0.00015771248964701275
1354.4172723816364,1354.4172723816364,0.9997426378672684,0.00015772131792223145
1354.424216940514,1354.424216940514,0.9999565058101627,0.00015772706699305328
1354.431161499298,1354.431161499298,1.0000569075742354,0.0001577409730021744
1354.4381060579894,1354.4381060579894,1.0000905325386173,0.00015774834897676985
1354.4450506165872,1354.4450506165872,0.9999436989622513,0.0001577329204015139
1354.4519951751856,1354.4519951751856,1.000013880023557,0.000157740041378502
1354.458939733644,1354.458939733644,0.9999532386114562,0.000157727721489579
1354.4658842920558,1354.4658842920558,1.0002476875198245,0.00015775014020334255
1354.472828850328,1354.472828850328,0.9999358047791013,0.00015772469300661947
1354.4797734086,1354.4797734086,0.9999706806883466,0.0001577270502060585
1354.4867179667785,1354.4867179667785,1.0003440215383441,0.00015775389223993984
1354.4936625248185,1354.4936625248185,1.0000179674861198,0.00015773928052469744
1354.500607082811,1354.500607082811,0.9997922266446511,0.00015771759100187332
1354.5075516408035,1354.5075516408035,0.9999196014332188,0.0001577298824396044
1354.5144961986566,1354.5144961986566,1.0000674264307288,0.0001577380900436766
1354.521440756463,1354.521440756463,1.0000941476253364,0.000157738070563031
1354.5283853141766,1354.5283853141766,0.9998120850759855,0.00015772219626681962
1354.5353298717966,1354.5353298717966,1.000348234806859,0.00015776374205856187
1354.5422744293703,1354.5422744293703,0.9998377298604104,0.00015773564368959817
1354.549218986851,1354.549218986851,0.9997858724248037,0.00015772540419933971
1354.5561635442384,1354.5561635442384,1.0003642197817992,0.00015776818776692104
1354.5631081016252,1354.5631081016252,0.9999014039239003,0.00015773755024281534
1354.570052658873,1354.570052658873,0.9999316058605832,0.0001577375339893239
1354.5769972160274,1354.5769972160274,0.9999862047836322,0.00015773753017939596
1354.5839417731822,1354.5839417731822,0.9999773469435735,0.00015773483833812248
1354.590886330197,1354.590886330197,0.9998441989416325,0.00015772194571293338
1354.597830887212,1354.597830887212,1.0000187426999538,0.00015774055709485746
1354.6047754440872,1354.6047754440872,1.000288045663766,0.00015776034195177073
1354.6117200009153,1354.6117200009153,0.9999519391788796,0.00015773301392114211
1354.6186645576506,1354.6186645576506,0.9997556142114228,0.00015771420245137572
1354.6256091143398,1354.6256091143398,1.0002363346487206,0.00015774602321532835
1354.632553670889,1354.632553670889,1.0000324178403077,0.00015772494921806925
1354.639498227438,1354.639498227438,0.9999771450062761,0.00015772754169351746
1354.6464427838941,1354.6464427838941,0.9998325267293723,0.0001577139854287594
1354.6533873402568,1354.6533873402568,0.9998934387496519,0.00015772356108861304
1354.6603318965736,1354.6603318965736,0.99998593275428,0.00015772358047889864
1354.6672764527968,1354.6672764527968,1.0001767718635945,0.0001577370727395268
1354.674221008973,1354.674221008973,1.0002698761424695,0.00015775090106499384
1354.6811655651036,1354.6811655651036,0.9998824475306115,0.00015771636504389343
1354.688110121047,1354.688110121047,1.0000282200913138,0.00015773325206560078
1354.6950546770374,1354.6950546770374,0.9999005908405009,0.00015772846273407864
1354.7019992329347,1354.7019992329347,0.99989389236108,0.0001577203231613422
1354.7089437886923,1354.7089437886923,0.9999750107025243,0.00015772021226153618
1354.7158883444965,1354.7158883444965,1.000036600869423,0.00015772693737555143
1354.722832900161,1354.722832900161,0.9999601803769901,0.0001577250729650435
1354.7297774556391,1354.7297774556391,0.9998811732139525,0.00015771517955726451
1354.7367220112105,1354.7367220112105,1.000138380820381,0.000157737826376087
1354.743666566642,1354.743666566642,1.0000713790091067,0.00015772501730474292
1354.7506111220268,1354.7506111220268,1.0000419909669045,0.00015772760721944435
1354.7575556773188,1354.7575556773188,1.0000260267243586,0.00015772881129715589
1354.764500232564,1354.764500232564,1.0001375593751238,0.00015773419142492664
1354.7714447877165,1354.7714447877165,1.0000336093004925,0.00015772564608956065
1354.7783893428218,1354.7783893428218,0.9998892526618093,0.00015772107032938144
1354.7853338978343,1354.7853338978343,0.9998344949922459,0.0001577196928689414
1354.7922784527536,1354.7922784527536,0.9999346060050882,0.0001577201902211448
1354.799223007673,1354.799223007673,0.9998447502805154,0.00015771490926931494
1354.8061675624529,1354.8061675624529,0.9999910936283886,0.00015772573144427646
1354.8131121172323,1354.8131121172323,1.0000113272071915,0.00015773253889068945
1354.8200566719188,1354.8200566719188,1.000318784327923,0.00015775084888270538
1354.8270012265125,1354.8270012265125,1.0000174409603226,0.00015771958013569015
1354.8339457810127,1354.8339457810127,0.999845316313561,0.00015770832474131723
1354.8408903355128,1354.8408903355128,1.0000933993040437,0.00015772113284035226
1354.8478348898739,1354.8478348898739,0.999926019998173,0.00015771568345627037
1354.854779444234,1354.854779444234,1.0000249513216763,0.00015771858766351737
1354.8617239984549,1354.8617239984549,1.0001073738574089,0.00015772769149118276
1354.868668552676,1354.868668552676,0.9999463274865625,0.00015771699113672143
1354.875613106757,1354.875613106757,1.0001046530872109,0.00015773165049452298
1354.8825576608383,1354.8825576608383,1.000089871176577,0.00015773322510906693
1354.889502214873,1354.889502214873,0.9999297754148022,0.0001577238512327469
1354.8964467687676,1354.8964467687676,1.0000278509890876,0.00015773993003178813
1354.9033913225699,1354.9033913225699,0.9996927395116231,0.00015770634475307464
1354.910335876371,1354.910335876371,0.9999708855743922,0.00015774283518705094
1354.917280430033,1354.917280430033,0.9998706640367955,0.00015771744338509213
1354.9242249837419,1354.9242249837419,1.0000214966900698,0.00015773064535349636
1354.9311695372642,1354.9311695372642,1.0001698874516047,0.00015773311757440265
1354.939225219367,1354.939225219367,1.0000476624789976,0.0001577251630327391
1354.9464475548368,1354.9464475548368,0.9999713289751233,0.00015772421998297697
1354.9533921081725,1354.9533921081725,0.9999146902983073,0.0001577209537585867
1354.9603366615088,1354.9603366615088,1.0001599492040645,0.0001577346391089327
1354.9672812148451,1354.9672812148451,1.00011332463693,0.00015773358518793046
1354.974225767948,1354.974225767948,1.0001452975695262,0.0001577313785526463
1354.9811703210048,1354.9811703210048,0.9998452904409483,0.00015771518874783556
1354.988114874062,1354.988114874062,1.0001842446144795,0.00015775104912340681
1354.9950594270254,1354.9950594270254,0.9998534764334506,0.00015771850843514614
1355.0020039799424,1355.0020039799424,0.9998743756750199,0.00015771568881578
1355.0089485327194,1355.0089485327194,0.9999304689440003,0.0001577349407557979
1355.0158930854507,1355.0158930854507,0.9999523814858424,0.00015772430390658486
1355.0228376381808,1355.0228376381808,1.0000317007813861,0.000157736887205707
1355.0297821908187,1355.0297821908187,1.0000187054855993,0.00015772725792102666
1355.0367267434099,1355.0367267434099,0.9998673802487785,0.0001577246477926567
1355.0436712958613,1355.0436712958613,1.0000798641072042,0.00015773763600377677
1355.0506158483126,1355.0506158483126,1.0001177861936772,0.00015773484213088893
1355.0575604006706,1355.0575604006706,1.0000127451609533,0.00015772856511798078
1355.0645049529357,1355.0645049529357,0.9998909522615087,0.00015772207899295552
1355.0714495051081,1355.0714495051081,1.0000804614278058,0.00015773263815220106
1355.0783940572796,1355.0783940572796,1.000173187902174,0.00015772914471957585
1355.0853386094516,1355.0853386094516,1.0001047955958158,0.0001577375514229826
1355.092283161484,1355.092283161484,0.9998096376064198,0.0001577167507900099
1355.0992277134696,1355.0992277134696,0.9999205368070353,0.0001577212851290562
1355.1061722653621,1355.1061722653621,0.9999258449500008,0.0001577297955845644
1355.1131168172083,1355.1131168172083,1.0000271600509119,0.00015773306999296988
1355.1200613689612,1355.1200613689612,0.9999377648627631,0.0001577267558890934
1355.1270059206674,1355.1270059206674,1.0000049963954127,0.00015771697716975475
1355.1339504723273,1355.1339504723273,0.9999763224733595,0.00015772088376164622
1355.1408950238936,1355.1408950238936,1.0000650700558993,0.00015773324969307952
1355.1478395754139,1355.1478395754139,0.9999756064426173,0.00015771735716151844
1355.1547841268875,1355.1547841268875,0.9998405421794558,0.00015770807861719213
1355.1617286782675,1355.1617286782675,1.0001892867045623,0.00015773432389772356
1355.1686732296016,1355.1686732296016,1.0000568291094714,0.00015772529472110115
1355.175617780842,1355.175617780842,1.0002927899364367,0.0001577457918221004
1355.182562332036,1355.182562332036,1.000004792590732,0.00015773129293138736
1355.1895068831839,1355.1895068831839,0.999887188478497,0.00015771269022489304
1355.1964514341914,1355.1964514341914,0.9997427563104806,0.00015769969185583005
1355.2033959851992,1355.2033959851992,0.9998870043475219,0.00015771426064234312
1355.2103405362072,1355.2103405362072,1.0001015121679304,0.00015773286630489113
1355.2172850870288,1355.2172850870288,1.000150495637339,0.00015773277325464925
1355.2242296378504,1355.2242296378504,0.9998531765746319,0.00015771418574110245
1355.2311741886253,1355.2311741886253,1.0000026703127995,0.0001577310025366485
1355.2381187393073,1355.2381187393073,1.0001609143755872,0.0001577306447224504
1355.2450632899424,1355.2450632899424,0.9998848015105872,0.00015771904727485196
1355.2520078404843,1355.2520078404843,1.000041173798848,0.00015772071395092868
1355.2589523909803,1355.2589523909803,0.9998664530723765,0.00015771775273752483
1355.2658969414292,1355.2658969414292,1.000176848228969,0.00015773484419964804
1355.272841491785,1355.272841491785,1.0001219199789715,0.00015772767882280139
1355.2797860420942,1355.2797860420942,0.9998931696891284,0.0001577183751661797
1355.2867305923105,1355.2867305923105,0.9996641578918426,0.00015769693505707648
1355.2936751425273,1355.2936751425273,1.0001749288228214,0.00015773006428577025
1355.300619692603,1355.300619692603,1.0001363331684057,0.00015772115588734946
1355.3075642426331,1355.3075642426331,1.0000522908632332,0.00015772921625664715
1355.3145087927098,1355.3145087927098,0.9998732159059905,0.00015770328369246677
1355.3214533425532,1355.3214533425532,1.0001266055290603,0.000157729486532051
1355.3283978923969,1355.3283978923969,1.0000790082874336,0.00015773076451581344
1355.3358980062283,1355.3358980062283,0.999690180832918,0.0001577068794970337
1355.34367590196,1355.34367590196,1.0001666849398672,0.00015773946747733034
1355.3506204516175,1355.3506204516175,0.9999339244873429,0.0001577192245775226
1355.3575650012283,1355.3575650012283,1.000061366289082,0.00015773658982106103
1355.3645095507925,1355.3645095507925,1.0000147090553333,0.00015772472877094326
1355.3714541002635,1355.3714541002635,1.0000822473129478,0.00015771599939975867
1355.3783986496883,1355.3783986496883,0.9999226505488892,0.0001577109192298531
1355.3853431990665,1355.3853431990665,0.9997247400825952,0.00015769370024257146
1355.392287748351,1355.392287748351,1.0000124552054244,0.00015771550804365744
1355.4000656434775,1355.4000656434775,1.0000007178831611,0.00015770870589416945
1355.4075657565634,1355.4075657565634,1.0000148743119384,0.00015771261606145514
1355.414510305709,1355.414510305709,1.0001725177144816,0.00015772642267674702
1355.421454854714,1355.421454854714,1.000270307164746,0.00015772819451429754
1355.4283994037196,1355.4283994037196,0.9999218265229215,0.00015769935879967467
1355.4353439526321,1355.4353439526321,1.000007222589197,0.0001577178167117175
1355.4422885014512,1355.4422885014512,0.9999226976389846,0.0001577135184771302
1355.449233050317,1355.449233050317,0.9999688042275359,0.0001577210559860404
1355.456177599043,1355.456177599043,1.0000367380952935,0.00015771851102749842
1355.4631221477225,1355.4631221477225,0.9998847892267697,0.0001577198113211325
1355.470066696309,1355.470066696309,0.9998923716384358,0.0001577109657175807
1355.477011244849,1355.477011244849,1.0000288485129167,0.00015772329065151934
1355.4839557933424,1355.4839557933424,0.9999186282608262,0.00015772786999406564
1355.4909003417888,1355.4909003417888,0.9998198056250613,0.00015770573246310081
1355.4978448901425,1355.4978448901425,1.000344687959754,0.000157759116638348
1355.504789438496,1355.504789438496,1.0000765182786255,0.0001577319774346346
1355.5117339867095,1355.5117339867095,1.0001111228429944,0.00015773235820054952
1355.5186785348772,1355.5186785348772,1.000301074987973,0.00015774571826276094
1355.5256230829975,1355.5256230829975,0.9996776730893666,0.00015770672389126884
1355.5325676310717,1355.5325676310717,0.9999681603664049,0.00015772662108208614
1355.5395121790996,1355.5395121790996,0.9998312084960558,0.00015771130395525798
1355.5464567270803,1355.5464567270803,0.9998014862654712,0.0001577004644146629
1355.5534012749217,1355.5534012749217,1.0000049821300334,0.00015772262744772752
1355.5603458227633,1355.5603458227633,1.0000259732963461,0.00015773229177433354
1355.5672903705113,1355.5672903705113,1.0003916367344505,0.00015776100803922317
1355.5742349182133,1355.5742349182133,0.9999018119066791,0.00015772541913498404
1355.5811794659144,1355.5811794659144,0.9999806663130499,0.00015772750464145132
1355.5881240134765,1355.5881240134765,0.9998518470021811,0.00015771122683972622
1355.5950685609919,1355.5950685609919,0.999968234583943,0.00015772333574904567
1355.6020131085072,1355.6020131085072,1.0000047303250044,0.0001577361916788185
1355.6089576558363,1355.6089576558363,1.0000679264260748,0.00015773174914349126
1355.615902203212,1355.615902203212,1.0002670568299994,0.00015775048109438524
1355.6228467504943,1355.6228467504943,1.0001891050412417,0.00015775329753529838
1355.6297912977304,1355.6297912977304,1.0000340572786994,0.00015774408031991858
1355.63673584492,1355.63673584492,1.0000496510469299,0.00015774108180231815
1355.6436803920162,1355.6436803920162,0.9999244067685694,0.0001577221687016179
1355.650624939066,1355.650624939066,0.9998857833019754,0.00015772899999141809
1355.6575694860692,1355.6575694860692,0.9997933670400869,0.00015772738420446604
1355.664514032979,1355.664514032979,0.9999028782551113,0.00015771625751417835
1355.671458579889,1355.671458579889,1.000081392613955,0.00015774374679997655
1355.6784031266593,1355.6784031266593,1.0002009757319228,0.00015775510952388197
1355.6853476734298,1355.6853476734298,0.9998591114608727,0.00015772403348162989
1355.692292220107,1355.692292220107,1.0003980974988302,0.00015774777733687165
1355.699236766784,1355.699236766784,1.000095910436419,0.0001577366151584703
1355.7061813133682,1355.7061813133682,1.0000145314257571,0.00015772970398227683
1355.7131258599056,1355.7131258599056,0.9999106110444378,0.0001577147697701497
1355.7200704063034,1355.7200704063034,1.0001140258904933,0.00015773070437576935
1355.7270149528408,1355.7270149528408,0.9998197722200179,0.00015771447571946807
1355.733959499192,1355.733959499192,1.0000750235747997,0.000157729758166537
1355.7409040453106,1355.7409040453106,0.9998532396117945,0.00015772667358549339
1355.7489597189847,1355.7489597189847,0.999876647534238,0.00015771078089120668
1355.7561820470037,1355.7561820470037,0.9999942080148045,0.0001577284874317581
1355.7631265930754,1355.7631265930754,0.9999940052958312,0.00015772681113649276
1355.7700711391474,1355.7700711391474,1.0001462006875728,0.00015774601761922845
1355.7770156850795,1355.7770156850795,1.0001363427437537,0.00015773825389488863
1355.7839602310582,1355.7839602310582,0.9999342144584971,0.00015772779819395747
1355.7909047768972,1355.7909047768972,0.9999239158851123,0.0001577266285376981
1355.7978493227831,1355.7978493227831,1.0001009142264325,0.00015773534207372153
1355.8047938684354,1355.8047938684354,0.9999060458699986,0.00015772754259930403
1355.811738414181,1355.811738414181,1.0000986619025356,0.00015773329048322421
1355.8186829597876,1355.8186829597876,1.000113514688082,0.00015772558723643873
1355.825627505347,1355.825627505347,0.9998016741134933,0.00015771446648464902
1355.8325720509067,1355.8325720509067,1.0000950382578018,0.00015773451379789142
1355.839516596327,1355.839516596327,0.9998783205932155,0.00015771914869024242
1355.8464611417462,1355.8464611417462,1.000165044096295,0.00015773791946953572
1355.85340568712,1355.85340568712,0.9997214237299076,0.00015770693194385544
1355.8603502323072,1355.8603502323072,0.9998434023704486,0.00015772499024931292
1355.867294777494,1355.867294777494,1.0001894712028117,0.0001577369383097228
