time,time,flux,flux_err
1325.2998791515417,1325.2998791515417,0.9999691409859549,0.00020234600291422843
1325.3082124468028,1325.3082124468028,0.9999374630519166,0.00020236724753475025
1325.3165457422976,1325.3165457422976,1.0003619386698495,0.000202426741929201
1325.3241845967034,1325.3241845967034,0.9997674648730343,0.0001847675038111882
1325.3311290099568,1325.3311290099568,0.9999805712890961,0.0001848131802834377
1325.338073423374,1325.338073423374,0.999973419339662,0.0001848355899965794
1325.3450178369424,1325.3450178369424,0.99992826741789,0.00018485842030283882
1325.3519622506733,1325.3519622506733,0.9999121157642421,0.00018489211106606583
1325.358906664544,1325.358906664544,1.0001030579444625,0.0001849374987533747
1325.3658510785779,1325.3658510785779,0.9998386186537445,0.0001849534093589309
1325.3727954927513,1325.3727954927513,1.000118874320156,0.00018500805822992345
1325.3797399070877,1325.3797399070877,0.9999921802714239,0.00018503320074341354
1325.3866843215524,1325.3866843215524,0.9997372310806458,0.00018505000646802048
1325.3936287361912,1325.3936287361912,1.000064102990045,0.000185094699354618
1325.40057315097,1325.40057315097,1.000158062612686,0.00018514362576229384
1325.4075175658538,1325.4075175658538,1.0002855877766752,0.0001851906266837426
1325.4144619809235,1325.4144619809235,0.9997371526959906,0.00018515845862386406
1325.4214063960983,1325.4214063960983,1.000225459478223,0.00018521997517346658
1325.428350811424,1325.428350811424,1.0000152556525657,0.0001852356897026458
1325.4352952269014,1325.4352952269014,0.9999321791417316,0.0001852707221952315
1325.4422396425184,1325.4422396425184,0.9998970300400162,0.00018529361165559873
1325.4491840582637,1325.4491840582637,1.0000603288113918,0.0001853281904945165
1325.4561284741253,1325.4561284741253,0.9996806719340456,0.00018533291333783583
1325.4630728901493,1325.4630728901493,1.00015316020271,0.00018538987568993555
1325.4700173062904,1325.4700173062904,1.0001029473694334,0.00018542691209013178
1325.4769617225825,1325.4769617225825,0.9999618878698667,0.0001854420896774663
1325.4839061389678,1325.4839061389678,0.9999598508460039,0.00018547299554304953
1325.4908505555045,1325.4908505555045,0.9999618177738926,0.00018550391674662892
1325.4977949721579,1325.4977949721579,1.0000719535619251,0.00018554222977531755
1325.5047393889506,1325.5047393889506,1.000043656764714,0.00018556289658910286
1325.5116838058602,1325.5116838058602,1.0001928404358194,0.0001856151010662432
1325.518628222897,1325.518628222897,0.9998590417674518,0.00018561110722752956
1325.5255726400508,1325.5255726400508,1.0000732642156378,0.0001856690327425292
1325.532517057344,1325.532517057344,0.9998781731084774,0.00018568357312847818
1325.5394614747188,1325.5394614747188,0.9996945504099631,0.00018570107981312362
1325.5464058922455,1325.5464058922455,1.0001459927155727,0.00018576629286258314
1325.5533503098761,1325.5533503098761,0.999827496561091,0.0001857700991360113
1325.5602947276354,1325.5602947276354,1.0001030569325622,0.0001858223762650493
1325.5672391454991,1325.5672391454991,1.0001893050239483,0.00018585575429866751
1325.5741835634676,1325.5741835634676,1.0000633377259411,0.00018586966697419223
1325.5811279815764,1325.5811279815764,1.0000525282933597,0.0001858880902293175
1325.5880723997773,1325.5880723997773,1.0000686832673513,0.00018591901391295482
1325.5950168181068,1325.5950168181068,0.9998981834920151,0.0001859372417731126
1325.6019612365178,1325.6019612365178,1.0001061913570886,0.00018596956061271128
1325.608905655057,1325.608905655057,0.9997727257146488,0.00018597249494538864
1325.6158500736894,1325.6158500736894,1.0000632131136267,0.00018599820167537672
1325.6227944924378,1325.6227944924378,1.0000917629522676,0.0001860143817108876
1325.6297389112794,1325.6297389112794,0.9999912136835987,0.00018601419071654756
1325.6366833302493,1325.6366833302493,0.9997797558633122,0.00018599942173276569
1325.6436277493003,1325.6436277493003,0.9998052387173233,0.0001859987124773821
1325.6505721684798,1325.6505721684798,1.000316418235013,0.00018605259361055248
1325.6575165877289,1325.6575165877289,1.0001635512920743,0.00018604956338874547
1325.6644610070946,1325.6644610070946,1.0001632415393562,0.00018603876186447816
1325.6714054265647,1325.6714054265647,0.999694259071527,0.0001860000147524931
1325.678349846105,1325.678349846105,1.0000102768558468,0.0001860321970771761
1325.6852942657736,1325.6852942657736,0.9998901541866678,0.00018603069033090025
1325.6922386855233,1325.6922386855233,0.9999914160958205,0.00018603856538796667
1325.6991831053545,1325.6991831053545,0.9999712819354855,0.0001860478071531824
1325.7061275253022,1325.7061275253022,1.0001166468584965,0.00018606107480979226
1325.7130719453544,1325.7130719453544,0.9999569270429356,0.0001860736287546002
1325.7200163654652,1325.7200163654652,1.0000415206397677,0.0001860871266458567
1325.7269607856574,1325.7269607856574,0.9998746492184217,0.00018609290009874752
1325.7339052059656,1325.7339052059656,1.0000856744210573,0.00018611996326573386
1325.740849626356,1325.740849626356,1.0001572048372012,0.00018614028210916502
1325.7477940468389,1325.7477940468389,0.9999198125728652,0.00018613769187366484
1325.7547384674153,1325.7547384674153,1.0000899470466718,0.00018617088856331276
1325.7616828880616,1325.7616828880616,1.000111569026736,0.00018618664908815705
1325.7686273087893,1325.7686273087893,0.9998555227479192,0.00018617543968365473
1325.7755717296216,1325.7755717296216,0.9997603721553945,0.000186196181941523
1325.7825161505357,1325.7825161505357,0.9998593548108763,0.00018623451929633016
1325.7894605715078,1325.7894605715078,1.0000609890997647,0.00018625047530935218
1325.7964049925845,1325.7964049925845,1.0001385745717353,0.00018626917675062716
1325.8033494137196,1325.8033494137196,1.0000847081257427,0.0001862747189542387
1325.810293834948,1325.810293834948,1.0000663667986447,0.0001863042726135455
1325.817238256246,1325.817238256246,1.0001361384999383,0.00018631063552738812
1325.8241826776373,1325.8241826776373,0.999865849210018,0.00018629888477818396
1325.8311270990982,1325.8311270990982,1.0006495628177885,0.00018637462963110198
1325.8380715206408,1325.8380715206408,1.0001293796741528,0.00018634606778663985
1325.8450159422532,1325.8450159422532,0.9999846228984792,0.00018633301373551512
1325.8519603639465,1325.8519603639465,0.999880969135795,0.00018632645696950095
1325.858904785711,1325.858904785711,0.9997147386940985,0.00018631789843537297
1325.865849207556,1325.865849207556,0.9998472504888006,0.00018631875759040562
1325.8727936294365,1325.8727936294365,1.0002938372123047,0.00018633957253622884
1325.879738051421,1325.879738051421,1.0002931310763712,0.00018631048608104195
1325.8866824734644,1325.8866824734644,0.9995821907165228,0.00018624643518069396
1325.8936268955772,1325.8936268955772,0.9999944806763889,0.00018627028628746017
1325.900571317772,1325.900571317772,0.9997642221009564,0.00018622717300800226
1325.9075157400243,1325.9075157400243,1.000340529437023,0.00018626444660800793
1325.914460162347,1325.914460162347,0.9998277540625979,0.0001861906044087911
1325.9214045847623,1325.9214045847623,1.0001348252019184,0.00018621440597355046
1325.9283490072019,1325.9283490072019,0.999990558341671,0.00018619632580346314
1325.935293429722,1325.935293429722,0.9999031267015359,0.0001861813668025608
1325.9422378523009,1325.9422378523009,1.0003413402383194,0.00018620490359627737
1325.9491822749376,1325.9491822749376,0.999923006862416,0.00018616714933789727
1325.956126697656,1325.956126697656,0.9999491987596324,0.00018617042963248447
1325.9639044511707,1325.9639044511707,1.0002741455264146,0.00018618591451102583
1325.9714044278458,1325.9714044278458,0.9998970519432081,0.0001861489525349001
1325.9783488507505,1325.9783488507505,0.9998942614754226,0.00018615165675631707
1325.9852932737133,1325.9852932737133,0.9996313840385597,0.00018615977964969255
1325.9922376967459,1325.9922376967459,1.000058035262754,0.00018618124957732145
1325.9991821198369,1325.9991821198369,1.0001725185450376,0.0001861955058982619
1326.0061265429858,1326.0061265429858,0.9998189780411781,0.0001861927533789061
1326.0130709661817,1326.0130709661817,1.0001527621452282,0.0001862321499997719
1326.0200153894589,1326.0200153894589,1.0001073466685568,0.00018623718448520114
1326.0269598127595,1326.0269598127595,0.999861352636386,0.0001862500921525821
1326.0339042361413,1326.0339042361413,1.000232595716309,0.00018626675833392886
1326.0408486595575,1326.0408486595575,0.9999138933647966,0.0001862506228860975
1326.0477930830448,1326.0477930830448,1.0000077708489914,0.00018625712612000466
1326.0547375065778,1326.0547375065778,1.0000590950821147,0.00018625931685451664
1326.0616819301692,1326.0616819301692,0.9997939909239759,0.000186254063965742
1326.0686263538075,1326.0686263538075,0.9998892848958238,0.00018626385480775755
1326.0755707775031,1326.0755707775031,1.0000806763014176,0.00018629030387730673
1326.0825152012467,1326.0825152012467,1.0000905019378592,0.00018629772543345802
1326.089459625036,1326.089459625036,0.9999889374762809,0.00018629453441410486
1326.0964040489068,1326.0964040489068,1.0002017911431373,0.0001863162012208204
1326.1033484727895,1326.1033484727895,0.9998187835395296,0.000186290753464656
1326.1102928967298,1326.1102928967298,1.000161784018226,0.00018631209351228
1326.117237320717,1326.117237320717,0.9999193560593038,0.00018630393033237157
1326.1241817447508,1326.1241817447508,1.0001336856019765,0.00018631649039901616
1326.1311261688434,1326.1311261688434,1.0000264437865365,0.0001863198861595708
1326.13807059297,1326.13807059297,0.9996625773353738,0.00018627780383325868
1326.1450150171554,1326.1450150171554,0.9994371113703201,0.00018627962577922127
1326.1519594413871,1326.1519594413871,1.0000900862655615,0.0001863147050797746
1326.1589038656653,1326.1589038656653,1.0003991428627341,0.00018634180290375165
1326.1658482899788,1326.1658482899788,0.9999025340217333,0.00018630003166001215
1326.1727927143381,1326.1727927143381,1.0001326868035723,0.00018630627035303454
1326.1797371387565,1326.1797371387565,0.9999495220952316,0.00018628286896126345
1326.186681563198,1326.186681563198,1.0000289573007062,0.00018628609835992006
1326.1936259876852,1326.1936259876852,0.9999782577681773,0.00018627264958546769
1326.2005704122203,1326.2005704122203,0.9997968481400072,0.00018627300540698238
1326.2075148368008,1326.2075148368008,0.9998047375988955,0.00018624114291187734
1326.2144592614172,1326.2144592614172,1.0002468884539126,0.00018628598753647594
1326.221403686068,1326.221403686068,1.0001269971225608,0.00018629215974797194
1326.2283481107652,1326.2283481107652,1.0000214576482127,0.0001862624634280643
1326.2352925355208,1326.2352925355208,1.0002887224720622,0.00018629459806455224
1326.242236960276,1326.242236960276,0.9998659848049497,0.0001862619680015317
1326.249181385102,1326.249181385102,0.9998590471024584,0.00018625228942859145
1326.2561258099504,1326.2561258099504,0.9998411113488798,0.00018625406236528666
1326.2630702348463,1326.2630702348463,0.9997645352034399,0.0001862441655197834
1326.2700146597647,1326.2700146597647,1.000120707440479,0.00018626094166228243
1326.2769590847413,1326.2769590847413,1.0000568836009693,0.0001862661631930563
1326.2839035097418,1326.2839035097418,1.0000990390208735,0.00018625749974472296
1326.2908479347882,1326.2908479347882,1.0001433021556494,0.00018625967538289087
1326.297792359858,1326.297792359858,1.0001561164944044,0.00018626185908453052
1326.3047367849745,1326.3047367849745,0.9997522179430185,0.00018622121448556468
1326.3116812101146,1326.3116812101146,1.0002400277236503,0.00018626517202932966
1326.3186256353124,1326.3186256353124,0.9998203494594747,0.00018623615953860924
1326.32557006051,1326.32557006051,0.9998456998285417,0.00018624594028661818
1326.3325144857552,1326.3325144857552,0.9998914374821041,0.00018625037910646999
1326.3394589110462,1326.3394589110462,0.9998592607935339,0.00018624897872761097
1326.346958890411,1326.346958890411,1.000155841338533,0.00018628763604188134
1326.3561255318566,1326.3561255318566,1.0003735475744266,0.0001863253499599433
1326.3630699572525,1326.3630699572525,1.0000208870825873,0.00018630559022206705
1326.3700143826718,1326.3700143826718,1.0000634479454362,0.00018628833408889048
1326.376958808126,1326.376958808126,0.9997948481013743,0.0001862864069428303
1326.3839032336148,1326.3839032336148,0.9997014079559303,0.00018629377934645616
1326.390847659139,1326.390847659139,1.0002104300591212,0.0001863352093707782
1326.397792084686,1326.397792084686,1.0000622560979626,0.00018633011665525058
1326.4047365102683,1326.4047365102683,0.9997611764162567,0.00018632455691367428
1326.4116809358625,1326.4116809358625,1.0000273837734763,0.00018634698747759174
1326.4186253615142,1326.4186253615142,1.0000259795476256,0.00018636558077711699
1326.4255697871663,1326.4255697871663,1.0000789637163514,0.0001863620350291607
1326.4325142128648,1326.4325142128648,1.0001037681878624,0.00018635758995819547
1326.4394586385865,1326.4394586385865,0.9999922983623307,0.00018635557798270084
1326.446403064332,1326.446403064332,1.0000729632419658,0.0001863733558446357
1326.4533474901002,1326.4533474901002,0.9998860165878405,0.00018637057734913404
1326.4602919159036,1326.4602919159036,0.9997757233345151,0.00018637930961074907
1326.467236341742,1326.467236341742,1.0001081587604428,0.00018638908449821717
1326.4741807676032,1326.4741807676032,0.9999694909510645,0.00018639720259474313
1326.481125193465,1326.481125193465,1.0001508164972797,0.00018641288541313756
1326.4880696193845,1326.4880696193845,1.0002347223436983,0.0001864338200009707
1326.4950140453045,1326.4950140453045,0.9997760473851101,0.00018639976270303134
1326.5019584712823,1326.5019584712823,0.9999185086950781,0.00018641003548138562
1326.5089028972607,1326.5089028972607,1.0002134496405515,0.00018644640633216447
1326.5158473232618,1326.5158473232618,0.9996526632204956,0.00018640798828689926
1326.522791749298,1326.522791749298,0.9999200589214705,0.00018643452174823828
1326.5297361753578,1326.5297361753578,1.0002133390245311,0.0001864773611909943
1326.5366806014285,1326.5366806014285,1.0002276251397657,0.00018647615169643052
1326.5436250275347,1326.5436250275347,0.9998653128270016,0.0001864806448523122
1326.5505694536641,1326.5505694536641,1.000101695778682,0.00018651541162176141
1326.557513879805,1326.557513879805,0.9997030064331829,0.00018648140724572605
1326.5644583059693,1326.5644583059693,1.000197880138948,0.00018652519276066086
1326.5714027321683,1326.5714027321683,0.9999425815203168,0.00018650192798956052
1326.5783471583793,1326.5783471583793,0.9998653498166696,0.00018649834293156875
1326.585291584613,1326.585291584613,0.9999403063423881,0.00018651102761249808
1326.592236010871,1326.592236010871,1.0000233202559148,0.00018651606781316688
1326.599180437151,1326.599180437151,1.0001064573273746,0.00018654031221763498
1326.606124863432,1326.606124863432,1.0001304907180322,0.0001865332936575855
1326.6130692897593,1326.6130692897593,1.0001856873473178,0.00018655222153619186
1326.6200137160981,1326.6200137160981,0.9999036961621209,0.00018653007593890373
1326.626958142449,1326.626958142449,1.0000296379642788,0.0001865390602724958
1326.633902568834,1326.633902568834,0.9998512129298647,0.00018652132702923194
1326.6408469952314,1326.6408469952314,0.9998994860678587,0.00018652582345293626
1326.6477914216398,1326.6477914216398,0.9998739979567569,0.00018651839888350798
1326.6547358480718,1326.6547358480718,0.999927298265915,0.00018653663010534917
1326.6616802745389,1326.6616802745389,1.000066514436952,0.00018651809483142707
1326.6686247009825,1326.6686247009825,1.000302689574868,0.00018653680175193243
1326.6755691274843,1326.6755691274843,1.0000709989070478,0.00018650215170006422
1326.6825135539864,1326.6825135539864,1.0000146874197398,0.00018649729923800003
1326.690569088775,1326.690569088775,0.9998265695760331,0.0001864633615741743
1326.6977912923717,1326.6977912923717,1.0000709969081856,0.00018648002814211732
1326.7047357189317,1326.7047357189317,0.9999360370694019,0.00018645450751503793
1326.7122356996356,1326.7122356996356,0.9999301016261996,0.00018643553323371382
1326.7200134574225,1326.7200134574225,0.9999955182572263,0.0001864341713932654
1326.7269578840408,1326.7269578840408,0.9999585950009688,0.00018642829735980584
1326.7339023106704,1326.7339023106704,1.0003025975989197,0.00018643900093699126
1326.740846737312,1326.740846737312,1.0002040329833282,0.0001864086577810492
1326.7477911639767,1326.7477911639767,0.9998711998575119,0.00018637923421607234
1326.7547355906531,1326.7547355906531,0.9998558227651839,0.0001863778537231717
1326.7616800173532,1326.7616800173532,1.0001824941965651,0.00018639391904574142
1326.768624444041,1326.768624444041,1.0002122692432307,0.00018639509531138536
1326.7755688707757,1326.7755688707757,0.9997621141345906,0.00018633136364274493
1326.7825132975108,1326.7825132975108,0.9999821293262781,0.00018636797293035932
1326.7894577242685,1326.7894577242685,1.0001553441362279,0.0001863784391754824
1326.7964021510033,1326.7964021510033,0.9998608927937663,0.0001863626333596545
1326.8033465777964,1326.8033465777964,1.0000844705696765,0.0001863793869101463
1326.8102910045893,1326.8102910045893,0.9996179514482326,0.00018633226575337822
1326.8172354313815,1326.8172354313815,0.9996923738200575,0.0001863346344211355
1326.8241798582098,1326.8241798582098,1.0001846420969562,0.00018639558719303528
1326.831124285026,1326.831124285026,1.0002906759107029,0.00018638710306010902
1326.8380687118772,1326.8380687118772,0.9998416881499462,0.00018635575827773813
1326.8450131387397,1326.8450131387397,0.9999518621968935,0.00018636762386036295
1326.8519575656023,1326.8519575656023,1.000219227698279,0.00018636798506598142
1326.8589019924884,1326.8589019924884,0.9999832641576271,0.00018635429722380678
1326.865846419375,1326.865846419375,0.999828926221803,0.00018633217171061048
1326.8727908462727,1326.8727908462727,0.9998742447703032,0.00018631586785055893
1326.879735273193,1326.879735273193,0.9997114275839334,0.00018628811788729308
1326.8866797001144,1326.8866797001144,1.0000982737448567,0.0001863001697102556
1326.8936241270465,1326.8936241270465,1.0001594182838378,0.00018628039470621691
1326.9005685540028,1326.9005685540028,1.0000431520584696,0.00018623876590768935
1326.9075129809585,1326.9075129809585,1.0004045067060194,0.00018625530018405624
1326.9144574079378,1326.9144574079378,0.9999034179369832,0.00018618959067110498
1326.9214018349053,1326.9214018349053,0.999919853937141,0.00018618231457435323
1326.9283462618962,1326.9283462618962,1.0000150444750486,0.00018615072766637927
1326.9352906889103,1326.9352906889103,0.9997729615111905,0.00018612195733810316
1326.9422351159124,1326.9422351159124,1.0002800287661109,0.00018613372401705248
1326.9491795429267,1326.9491795429267,0.9998757779339373,0.00018610402422024596
1326.956123969964,1326.956123969964,0.9998577509506402,0.00018609380496239857
1326.9630683970017,1326.9630683970017,0.9999694958768535,0.00018607953206198425
1326.970012824039,1326.970012824039,1.0000362284528284,0.00018606686264854754
1326.976957251111,1326.976957251111,1.0001314286251866,0.00018605225148413305
1326.983901678172,1326.983901678172,0.9998292230508319,0.0001860057931517236
1326.9908461052207,1326.9908461052207,1.0000320773371718,0.00018601346290708824
1326.9977905323053,1326.9977905323053,0.9999684490445994,0.00018600709739754386
1327.004734959412,1327.004734959412,0.9999219705200947,0.00018600830129365703
1327.011679386531,1327.011679386531,1.0002062424925546,0.00018601730165613854
1327.0186238136146,1327.0186238136146,1.0000158065236446,0.00018598775910913835
1327.0255682407453,1327.0255682407453,1.000027525244628,0.00018600001471376294
1327.0325126678526,1327.0325126678526,1.0001439755353707,0.00018600756251873225
1327.0394570949827,1327.0394570949827,0.999846878311285,0.00018598890061783914
1327.0464015221255,1327.0464015221255,1.000097878366844,0.00018602056329288912
1327.053345949279,1327.053345949279,0.9999571507773055,0.00018600293209405445
