time,time,flux,flux_err
1468.2791288954052,1468.2791288954052,0.9996820676752135,0.0002873493286278466
1468.2874623810665,1468.2874623810665,1.000693159417885,0.0002873942143036368
1468.2957958665331,1468.2957958665331,1.0002813880368842,0.0002873246928885743
1468.3041293519227,1468.3041293519227,0.999918815856204,0.0002873501153595138
1468.3117683800378,1468.3117683800378,1.0004521320090531,0.00026240651401135634
1468.3187129510727,1468.3187129510727,1.000095573395075,0.00026239124015575477
1468.3256575218745,1468.3256575218745,0.999671667601978,0.0002622451220268583
1468.332602092677,1468.332602092677,0.9994425560745726,0.0002622619227777483
1468.339546663293,1468.339546663293,0.9999161676618156,0.0002622539337280792
1468.3464912339086,1468.3464912339086,1.000353185295095,0.00026233933099301777
1468.3534358044312,1468.3534358044312,0.9996466001475202,0.0002622931465366869
1468.360380374861,1468.360380374861,1.0005213982847807,0.0002623759009971919
1468.3673249451974,1468.3673249451974,1.000380183766016,0.0002624052173573936
1468.3742695154408,1468.3742695154408,1.0000798749464201,0.0002623575582800234
1468.3870475244123,1468.3870475244123,0.9999063856522848,0.0002623703773262891
1468.3978810536066,1468.3978810536066,1.0001464038484897,0.0002623184189149009
1468.4048256234314,1468.4048256234314,0.9998079979640231,0.00026226691777884266
1468.4117701933017,1468.4117701933017,1.000097989206524,0.00026231637024993636
1468.4187147629393,1468.4187147629393,1.0001803988697993,0.0002623664443718183
1468.4256593325777,1468.4256593325777,1.0000101471758875,0.0002622871306719639
1468.4326039019827,1468.4326039019827,1.00019901049645,0.00026228744959959295
1468.4395484714346,1468.4395484714346,0.9992726070627889,0.0002622263618488522
1468.4464930407462,1468.4464930407462,0.9997378240794607,0.0002623707789241889
1468.4534376100119,1468.4534376100119,1.0002981647541827,0.0002623162373764773
1468.4603821791839,1468.4603821791839,1.0002839623808721,0.00026239033663716133
1468.4673267482635,1468.4673267482635,0.9997504512853614,0.0002622222834776365
1468.4742713172031,1468.4742713172031,0.9997488188323022,0.00026222722493027365
1468.4812158860952,1468.4812158860952,1.0001415364869792,0.0002622305026949693
1468.4881604548486,1468.4881604548486,1.000337465889752,0.00026230395938836354
1468.495105023602,1468.495105023602,0.9998019052196548,0.00026227054815602404
1468.502049592309,1468.502049592309,1.0001288714933332,0.00026235684877385203
1468.5089941607825,1468.5089941607825,0.9998745083730898,0.0002623849925648317
1468.5159387292563,1468.5159387292563,1.000326027478093,0.00026227143482475114
1468.5228832975904,1468.5228832975904,0.9999791622231271,0.000262254046855266
1468.529827865878,1468.529827865878,0.9998605964209423,0.00026224625414939635
1468.5367724340726,1468.5367724340726,0.9999974113871403,0.00026237440257249054
1468.543717002127,1468.543717002127,0.9996560992324314,0.0002621934366701719
1468.5506615701815,1468.5506615701815,1.000180079840359,0.00026224235511038336
1468.5576061380968,1468.5576061380968,1.0000217530356807,0.0002622710475985622
1468.5645507059653,1468.5645507059653,0.9997378409403334,0.00026224770556794994
1468.571495273694,1468.571495273694,1.0006647714079993,0.00026231155489727374
1468.578439841376,1468.578439841376,1.0000235304986267,0.00026229749437173445
1468.5853844089652,1468.5853844089652,0.9998205689456918,0.0002622001892814843
1468.5923289764146,1468.5923289764146,1.0000710966273494,0.0002623323729734424
1468.5992735439106,1468.5992735439106,0.9998664630586752,0.0002623052004976401
1468.6062181112204,1468.6062181112204,1.000104001341375,0.00026233374200439186
1468.6131626783433,1468.6131626783433,0.9999224832270383,0.00026216434564348655
1468.62010724556,1468.62010724556,1.0000154135477122,0.0002622776647313803
1468.6270518125905,1468.6270518125905,0.9996691050890499,0.00026236187251864297
1468.633996379574,1468.633996379574,1.0008878164804529,0.000262315703103839
1468.640940946418,1468.640940946418,1.0001612415402494,0.0002622350034763283
1468.6478855132152,1468.6478855132152,0.9999325738193671,0.00026224256549279364
1468.6548300799197,1468.6548300799197,1.0005260244057306,0.00026230770321255186
1468.6617746465774,1468.6617746465774,1.0002700560331743,0.0002622583228194481
1468.6687192130958,1468.6687192130958,0.9995001802440866,0.000262177422676232
1468.6756637795202,1468.6756637795202,1.0000213553645974,0.0002622348224254424
1468.682608345852,1468.682608345852,0.9995080704194356,0.0002622385011531685
1468.6895529121837,1468.6895529121837,1.0002229589245186,0.0002622790387086512
1468.6964974783757,1468.6964974783757,0.999981779910137,0.00026229326314811585
1468.7034420444747,1468.7034420444747,1.0000223072236054,0.0002623766126412196
1468.710386610434,1468.710386610434,1.000251672259258,0.00026228866746106803
1468.7173311763465,1468.7173311763465,1.0005014376080168,0.00026234611686722976
1468.7242757421664,1468.7242757421664,0.9999217207711901,0.00026225129132330675
1468.7312203079393,1468.7312203079393,0.999862783224755,0.00026233836303321263
1468.7381648735723,1468.7381648735723,0.9996763327502404,0.00026217517858591127
1468.7451094391126,1468.7451094391126,1.0000134625271073,0.0002622187871398357
1468.7520540046523,1468.7520540046523,0.9997132336001195,0.000262183475918388
1468.758998570053,1468.758998570053,1.000310345068149,0.00026224263937643194
1468.7659431353607,1468.7659431353607,1.000045454115698,0.0002622591761037762
1468.7728877005745,1468.7728877005745,1.0001708476153146,0.0002622426452889326
1468.7798322656956,1468.7798322656956,1.0002035366469617,0.00026229412242543946
1468.7867768308165,1468.7867768308165,0.9997827748570141,0.00026221875245914793
1468.793721395798,1468.793721395798,1.000032660032311,0.0002622527705077454
1468.8006659605467,1468.8006659605467,0.9997755952701727,0.00026222038374062274
1468.807610525388,1468.807610525388,0.9997751359481724,0.00026228737133094146
1468.8145550901368,1468.8145550901368,1.0001680065737146,0.00026232745193833807
1468.821499654699,1468.821499654699,0.9999627372184822,0.00026230095201048177
1468.8284442192612,1468.8284442192612,1.0000419335194777,0.00026218498289083534
1468.8353887836377,1468.8353887836377,1.0004033329809938,0.00026222588722081146
1468.8423333480596,1468.8423333480596,0.9999458232202064,0.00026223540592312995
1468.8492779122957,1468.8492779122957,0.9999580795667429,0.0002621038580618218
1468.856222476486,1468.856222476486,0.9996027715203006,0.000262161376351485
1468.8631670405825,1468.8631670405825,0.9995025192730193,0.0002620954933496474
1468.8701116045395,1468.8701116045395,1.0004046969830007,0.0002623116038457472
1468.8770561685892,1468.8770561685892,0.9999905224032396,0.0002621949293382191
1468.8840007324063,1468.8840007324063,0.9998395747726769,0.0002622584155048724
1468.8909452960845,1468.8909452960845,1.0000343620845678,0.00026209372867553747
1468.8978898597618,1468.8978898597618,1.0000329132586616,0.0002622707931420233
1468.9048344232992,1468.9048344232992,1.0003679892927337,0.00026224684738818295
1468.911778986837,1468.911778986837,0.9999535272275925,0.0002621872490854487
1468.9187235502352,1468.9187235502352,0.9999179508221261,0.00026219268656075254
1468.9256681134937,1468.9256681134937,0.9999416280643612,0.00026221379753035016
1468.9326126767523,1468.9326126767523,0.9999051190103001,0.000262224798861538
1468.9395572399176,1468.9395572399176,0.9996773480955901,0.00026213659282483756
1468.946501802943,1468.946501802943,0.9999809602197522,0.00026218339577631914
1468.9534463658752,1468.9534463658752,1.0002234819585993,0.0002622152089788624
1468.961224276326,1468.961224276326,0.9999794706035751,0.00026222619305459803
1468.9687244041777,1468.9687244041777,1.000005782776665,0.0002622252471720775
1468.975668966877,1468.975668966877,0.9999868670964783,0.0002622489948997352
1468.982613529437,1468.982613529437,1.0001603008083415,0.000262201252862228
1468.9895580919506,1468.9895580919506,0.9999725737167218,0.000262171208337136
1468.996502654371,1468.996502654371,0.9999470232436973,0.00026216743127773623
1469.0034472166979,1469.0034472166979,1.0000545032873358,0.00026217870930962445
1469.0103917789784,1469.0103917789784,1.000094777738588,0.0002622152739897101
1469.017336341119,1469.017336341119,1.000319029834926,0.0002622570427979808
1469.0242809032138,1469.0242809032138,0.9996771314776535,0.00026223148644938146
1469.031225465215,1469.031225465215,1.0000983258718985,0.00026229505541573554
1469.0381700271223,1469.0381700271223,0.9998123514086007,0.000262283596130454
1469.0451145889374,1469.0451145889374,0.9997744674519105,0.000262270346740821
1469.0520591507054,1469.0520591507054,0.9998650762536501,0.0002621765335340415
1469.059003712381,1469.059003712381,0.9997326764038185,0.00026217950585425646
1469.0659482739163,1469.0659482739163,1.0001892316512386,0.00026226946528694334
1469.072892835405,1469.072892835405,1.000085106174541,0.0002621853086528645
1469.0798373968014,1469.0798373968014,1.000609091327058,0.00026224699619032196
1469.086781958103,1469.086781958103,0.9996398252013883,0.000262181466621259
1469.093726519313,1469.093726519313,1.0000518748118525,0.00026219516707947775
1469.1006710804295,1469.1006710804295,1.0000864788892538,0.0002621826491437866
1469.1076156414993,1469.1076156414993,1.0000188488871427,0.00026219801018426207
1469.1145602024296,1469.1145602024296,1.000010848518031,0.0002621338127016229
1469.1215047633127,1469.1215047633127,1.000023204272819,0.00026215601894729083
1469.1284493241499,1469.1284493241499,0.9999796960823882,0.000262122084819792
1469.1353938848006,1469.1353938848006,1.0000293231872124,0.0002621521604527067
1469.1423384454515,1469.1423384454515,0.9998089652273455,0.00026209921152654163
1469.1492830059626,1469.1492830059626,0.9997774864556808,0.0002621608787566378
1469.1562275664733,1469.1562275664733,1.0003080635352855,0.0002622328319608151
1469.1631721268445,1469.1631721268445,0.9998096455024348,0.0002621253177790537
1469.1701166870296,1469.1701166870296,1.0000177567844366,0.00026218272535235226
1469.1770612472615,1469.1770612472615,0.9994679192894704,0.0002621360445065723
1469.184005807307,1469.184005807307,1.0004501543749211,0.0002621479160493824
1469.190950367352,1469.190950367352,1.0004276279922637,0.0002622081588274735
1469.1978949272575,1469.1978949272575,1.0004119181759017,0.0002621155827044858
1469.2048394871163,1469.2048394871163,0.9997565187388696,0.0002621210509336393
1469.2117840468363,1469.2117840468363,0.9997785616618909,0.0002621528252872181
1469.2187286065555,1469.2187286065555,0.9998447265244383,0.0002620767783049593
1469.225673166135,1469.225673166135,1.0000540102560855,0.0002621704556880457
1469.232617725575,1469.232617725575,0.9998895395501656,0.00026210582397964336
1469.239562285015,1469.239562285015,1.0000516156519523,0.00026218931720994654
1469.246506844362,1469.246506844362,1.0000827665410266,0.00026220487447178235
1469.2534514036156,1469.2534514036156,1.000007184790304,0.00026224665219057536
1469.2603959627759,1469.2603959627759,0.9994091489542101,0.00026212930518374616
1469.267340521797,1469.267340521797,1.000364093879155,0.00026215500078479673
1469.2742850807717,1469.2742850807717,0.9997011991184703,0.0002621572551821217
1469.2812296396528,1469.2812296396528,0.9997118798410611,0.00026208864066069187
1469.2881741984875,1469.2881741984875,1.0000116148773774,0.0002620892034832833
1469.295118757182,1469.295118757182,1.0002210556138877,0.000262095977901263
1469.3020633158305,1469.3020633158305,1.0000967967041052,0.0002621020698990065
1469.3090078743858,1469.3090078743858,1.0000839787772269,0.00026208644082378397
1469.315952432848,1469.315952432848,1.000162560035831,0.000262112796805902
1469.3228969912168,1469.3228969912168,0.999726794396157,0.00026213196738663225
1469.3298415494926,1469.3298415494926,0.9999225329453314,0.00026224012967493763
1469.3367861077218,1469.3367861077218,0.9999272195649531,0.0002621329738214361
1469.3437306658118,1469.3437306658118,1.000190373760005,0.0002621549132136332
1469.3506752239475,1469.3506752239475,1.0001182983528512,0.00026216951796688437
1469.3576197817579,1469.3576197817579,1.0000247676103644,0.00026207722326135693
1469.364564339708,1469.364564339708,0.9996341434590523,0.00026212720994529283
1469.3715088974245,1469.3715088974245,1.0001135587361605,0.0002621514585877318
1469.3784534551419,1469.3784534551419,1.0004890806964806,0.0002622138591152428
1469.3853980127192,1469.3853980127192,0.9997286096546567,0.0002620796524085311
1469.39234257025,1469.39234257025,0.9997349417768658,0.00026207431663082106
1469.3992871276412,1469.3992871276412,1.0002453241698888,0.00026215482372123376
1469.4062316850318,1469.4062316850318,0.9996464487783111,0.00026206443597957786
1469.4131762422835,1469.4131762422835,0.9998235519491668,0.0002622030217086386
1469.4201207994415,1469.4201207994415,1.000205811519859,0.00026213009260375866
1469.4270653565532,1469.4270653565532,1.0001774764696936,0.0002621693688169435
1469.4340099135723,1469.4340099135723,1.0002526024427292,0.00026215657607231896
1469.4409544704506,1469.4409544704506,1.0000013378946497,0.0002620523744401488
1469.4478990272833,1469.4478990272833,0.9998588013853575,0.0002621796054820511
1469.4548435840686,1469.4548435840686,0.9996662615452208,0.00026204637729588745
1469.4617881407146,1469.4617881407146,1.0001771523465024,0.00026213352276516244
1469.468732697268,1469.468732697268,0.9999860044644098,0.00026214568180616467
1469.4756772537742,1469.4756772537742,1.0002002349043453,0.00026211023104314184
1469.4826218101402,1469.4826218101402,1.0002895122232758,0.00026210724326182293
1469.4895663664606,1469.4895663664606,0.9997988024684469,0.00026218671096773724
1469.4965109227342,1469.4965109227342,0.9996780098003286,0.0002621354692869792
1469.5034554788217,1469.5034554788217,1.0000087023590125,0.00026212802368688083
1469.5104000349088,1469.5104000349088,0.9999887747757479,0.00026214855665622624
1469.517344590856,1469.517344590856,1.0002145020162323,0.00026225011162042764
1469.5242891467574,1469.5242891467574,0.999825387632397,0.00026214769091878053
1469.5312337025184,1469.5312337025184,1.0001363547385385,0.0002620825917514003
1469.5381782581867,1469.5381782581867,0.9999214791679684,0.0002621168677645416
1469.5451228138547,1469.5451228138547,1.0005957596684318,0.0002621565028428672
1469.5520673694762,1469.5520673694762,0.9999816798473997,0.0002620873524239707
1469.5590119249114,1469.5590119249114,1.0001647436306111,0.000262094614720645
1469.5659564802536,1469.5659564802536,0.9999844785791672,0.0002620941059945556
1469.5729010355494,1469.5729010355494,0.9997046269412456,0.00026203994600175587
1469.5798455907516,1469.5798455907516,1.0000685223246149,0.00026219034997933055
1469.5867901458146,1469.5867901458146,1.0006906366994421,0.00026216575987139326
1469.5937347008771,1469.5937347008771,0.9998787409042634,0.0002621308206394818
1469.600679255847,1469.600679255847,0.9999902660553485,0.00026206823918055797
1469.6076238107235,1469.6076238107235,0.9996042756338221,0.0002621129663157011
1469.6145683654602,1469.6145683654602,0.9997328862586301,0.00026201720952064586
1469.6215129201505,1469.6215129201505,1.000068528771708,0.0002621707067438742
1469.628457474701,1469.628457474701,1.0001550129003038,0.000262152482158124
1469.6354020292517,1469.6354020292517,0.9999242899974708,0.0002620927758422378
1469.6423465836622,1469.6423465836622,1.000250059590893,0.0002620794279225911
1469.6492911380265,1469.6492911380265,1.0001094023209993,0.0002621342384697222
1469.6562356922982,1469.6562356922982,0.9998916124540802,0.0002620127681702669
1469.6631802464763,1469.6631802464763,0.9999516548933638,0.00026212134929147165
1469.6701248005606,1469.6701248005606,0.9998574807886756,0.00026202673960012333
1469.6770693545525,1469.6770693545525,1.0002502049887199,0.00026208530749368086
1469.684013908451,1469.684013908451,0.9998894584456715,0.0002620560948363874
1469.6909584623036,1469.6909584623036,0.9999434126047742,0.0002621037164050843
1469.6979030160626,1469.6979030160626,1.0001232488691192,0.00026220234181922896
1469.7048475696813,1469.7048475696813,1.00020417170964,0.00026202232316243333
1469.7117921233003,1469.7117921233003,0.9997942573382694,0.00026205542382777694
1469.718736676687,1469.718736676687,1.000333689242939,0.0002621580150805866
1469.7256812302596,1469.7256812302596,0.9999397744435807,0.00026210371499585985
1469.7326257834598,1469.7326257834598,0.9997385941979356,0.00026209035231075455
1469.7395703367063,1469.7395703367063,0.9993229981371818,0.00026208618674593027
1469.74651488986,1469.74651488986,1.0002299087962072,0.00026215070499496687
1469.7534594429203,1469.7534594429203,1.000176353993829,0.0002621887436801338
1469.7604039958878,1469.7604039958878,1.0000813527288432,0.00026209442687913544
1469.7673485487624,1469.7673485487624,1.0004049139606543,0.00026216345514054953
1469.7742931015896,1469.7742931015896,0.9999878685051602,0.00026207148723060006
1469.7812376542774,1469.7812376542774,1.0001478460909954,0.0002621618851159486
1469.7881822069187,1469.7881822069187,0.9997263531201492,0.0002621291068119352
1469.795126759467,1469.795126759467,0.9996950290734834,0.0002621389022950299
1469.8020713119222,1469.8020713119222,0.9999470139464268,0.0002621526104981013
1469.809015864284,1469.809015864284,0.9997336215073073,0.0002621644745793143
1469.8159604166462,1469.8159604166462,1.0004773339078703,0.0002621627417314745
1469.8229049688682,1469.8229049688682,1.0001318087619577,0.00026212658055377015
1469.8298495209037,1469.8298495209037,1.000167659992296,0.00026212374286699184
1469.83679407294,1469.83679407294,0.9999269213805109,0.0002620703787972378
1469.843738624883,1469.843738624883,0.9997945303039233,0.00026206853742456114
1469.8506831767795,1469.8506831767795,0.9997172157840961,0.00026207946975708915
1469.857627728536,1469.857627728536,1.0002468571015868,0.0002621770264962866
1469.8645722802457,1469.8645722802457,1.0002559327180982,0.00026208251381034016
1469.871516831816,1469.871516831816,0.999997377793125,0.0002621056777480646
1469.87846138334,1469.87846138334,0.9998210201816862,0.00026208726480313806
1469.885405934817,1469.885405934817,0.9999050628515584,0.00026214299357172786
1469.8923504861082,1469.8923504861082,0.999937845125738,0.00026209669097186297
1469.8992950373984,1469.8992950373984,0.9998780592692516,0.0002620436014206821
1469.9062395885499,1469.9062395885499,0.9998658034031507,0.00026206543951991907
1469.9131841397016,1469.9131841397016,1.0002311541243658,0.00026212220125567304
1469.920128690713,1469.920128690713,1.0000198521926038,0.00026221579754601414
1469.9270732415848,1469.9270732415848,1.0003807285839266,0.0002622451294598839
1469.9340177924103,1469.9340177924103,0.9997433460242922,0.0002621020027714801
1469.9409623431886,1469.9409623431886,1.000265841643959,0.0002621975705296495
1469.9479068938276,1469.9479068938276,1.0000924782231537,0.00026212420303386573
1469.9548514444202,1469.9548514444202,0.9998482790353961,0.0002620624657796978
1469.961795994873,1469.961795994873,0.9997239807905869,0.0002620182166831376
1469.9687405452792,1469.9687405452792,0.9999211601354693,0.0002620164433461018
1469.9756850956387,1469.9756850956387,1.0000831268258614,0.00026218086967402386
1469.9826296458582,1469.9826296458582,0.9996104058950882,0.00026200575836647644
1469.9895741960318,1469.9895741960318,1.0004165268610379,0.0002620767331572778
1469.996518746112,1469.996518746112,1.0001042987051534,0.0002620753446872852
1470.0034632960992,1470.0034632960992,1.0003450621838308,0.0002621977230918001
1470.0104078459467,1470.0104078459467,0.9999982591323979,0.00026207824939842076
1470.017352395794,1470.017352395794,0.9996404821137659,0.00026211834909899574
1470.0242969455016,1470.0242969455016,0.9998768288913009,0.0002620873674296948
1470.0312414951627,1470.0312414951627,0.9998373669889766,0.0002621202800367001
1470.0381860447305,1470.0381860447305,1.0002169667164666,0.0002622125754923682
1470.045130594159,1470.045130594159,0.9997468010064333,0.00026198165127442263
