time,time,flux,flux_err
1570.3185804901464,1570.3185804901464,0.9997864622176363,0.0005105244010417628
1570.3266362672662,1570.3266362672662,1.0001458778278027,0.0005094638051155105
1570.3335809028072,1570.3335809028072,1.0011407111897241,0.0005087827352726682
1570.3405255384182,1570.3405255384182,0.9995150492490523,0.0005076973124245943
1570.3488591012533,1570.3488591012533,0.9997556344373646,0.0005066120000681916
1570.3558037370035,1570.3558037370035,0.9999881036518588,0.0005066635246520812
1570.3635817291997,1570.3635817291997,0.999371220583873,0.0005053308767029207
1570.3710819359621,1570.3710819359621,1.0010063026162068,0.0005048253061844387
1570.3794154991695,1570.3794154991695,0.9998283805590283,0.0005035165663704309
1570.3874712770344,1570.3874712770344,1.0004352917825536,0.0005028389421244732
1570.395249269557,1570.395249269557,0.9999759898126163,0.0005022134870238391
1570.4044161893985,1570.4044161893985,0.9998256516493438,0.0005014338225346236
1570.411360825707,1570.411360825707,0.9998562291053534,0.0005013084942052843
1570.4183054621094,1570.4183054621094,1.0005380209450172,0.0005001867456795001
1570.4263612404168,1570.4263612404168,0.9992413448287385,0.000499028970716363
1570.4349725897123,1570.4349725897123,1.0002426575537833,0.0004998466457018287
1570.4460840083007,1570.4460840083007,0.9995223493375871,0.0004989618027451154
1570.4530286450286,1570.4530286450286,1.0005124561198155,0.0004987557269566222
1570.45997328178,1570.45997328178,0.9994428590842327,0.000498363339636177
1570.466917918625,1570.466917918625,1.0003546717546583,0.0004981286860568121
1570.4738625555399,1570.4738625555399,1.0004351391012114,0.0004978724837603345
1570.480807192454,1570.480807192454,1.000385655523333,0.0004978042492253906
1570.4877518295075,1570.4877518295075,0.999079091240547,0.0004971210330327248
1570.4946964665617,1570.4946964665617,1.000233805724543,0.000496876259943768
1570.5016411036634,1570.5016411036634,1.000012451813579,0.0004965791161821936
1570.5085857408571,1570.5085857408571,1.0005682579431443,0.0004962966642766501
1570.5155303780741,1570.5155303780741,1.0005691051402876,0.0004966536993699164
1570.5230305863713,1570.5230305863713,0.9997572641509341,0.0004958573910267414
1570.530808580198,1570.530808580198,0.9995040585217108,0.0004959663703316758
1570.5380310031082,1570.5380310031082,1.0002152631807673,0.0004956460653272715
1570.54747571006,1570.54747571006,0.9997960164229381,0.0004958445097566226
1570.5544203475797,1570.5544203475797,0.9994271455122273,0.0004952342570973961
1570.5613649851923,1570.5613649851923,1.0014764264094267,0.0004954142510940569
1570.5683096228292,1570.5683096228292,0.9999618971163773,0.0004955230292402274
1570.575254260489,1570.575254260489,1.000550860646715,0.0004951392723873523
1570.5821988982411,1570.5821988982411,1.0002328214827394,0.000494879984262352
1570.5891435360172,1570.5891435360172,0.9994976368957758,0.0004946536541219316
1570.5960881738624,1570.5960881738624,1.0000604741705232,0.0004944865878433195
1570.6030328117326,1570.6030328117326,0.9996097629316816,0.0004944788326554077
1570.611366377245,1570.611366377245,0.9994949544031119,0.0004941229093644132
1570.6183110152538,1570.6183110152538,1.0016682472802398,0.0004940575689620386
1570.6252556532622,1570.6252556532622,0.9998387151421971,0.000493597850523656
1570.633589218961,1570.633589218961,0.9997313884226472,0.0004934805947337776
1570.6405338570871,1570.6405338570871,0.999752423469203,0.0004934136699389721
1570.6474784952584,1570.6474784952584,1.0007725674866699,0.0004934052700828256
1570.6544231334765,1570.6544231334765,0.9992147757734322,0.0004931972382697697
1570.6613677717182,1570.6613677717182,0.9999969615055356,0.0004927859710387005
1570.6683124100298,1570.6683124100298,1.0002617200291173,0.0004927378526258837
1570.6752570483882,1570.6752570483882,1.0001337375432273,0.0004924547412346856
1570.6822016867695,1570.6822016867695,0.9997686844560123,0.0004922915959349651
1570.6891463251968,1570.6891463251968,0.9989971518209877,0.0004921315313613037
1570.6960909636477,1570.6960909636477,0.9989234703608127,0.0004917983504548892
1570.703035602146,1570.703035602146,1.0013389689595436,0.0004916772900049063
1570.7099802406906,1570.7099802406906,1.0004902023279378,0.0004912831960716123
1570.716924879258,1570.716924879258,1.0002970285826984,0.000491022851431552
1570.723869517895,1570.723869517895,1.0003089834835552,0.0004908868076706909
1570.7308141565552,1570.7308141565552,0.9999917686151818,0.0004907246871617034
1570.73775879524,1570.73775879524,0.9998964396652396,0.0004902849832560613
1570.7447034339707,1570.7447034339707,1.0003788155978532,0.0004898906886024157
1570.751648072724,1570.751648072724,1.0003269141267446,0.0004896777730127248
1570.7585927115244,1570.7585927115244,0.9995008837901171,0.0004893690029079076
1570.765537350371,1570.765537350371,0.9997028751841395,0.0004890770992319356
1570.7724819892421,1570.7724819892421,0.9989542115177678,0.0004889582464026379
1570.779426628159,1570.779426628159,1.0000840943833327,0.0004888946672003147
1570.7863712670987,1570.7863712670987,1.0000294424597993,0.000488474210635631
1570.793315906062,1570.793315906062,0.9996463824489472,0.0004884187538886309
1570.8002605450715,1570.8002605450715,0.9997487183881878,0.0004882416598437937
1570.8072051841286,1570.8072051841286,1.0015647365222113,0.00048816876846261546
1570.8141498231855,1570.8141498231855,1.0001546685515648,0.00048762315644689864
1570.8210944622883,1570.8210944622883,0.9998046034235811,0.0004875526794438574
1570.8280391014143,1570.8280391014143,0.9996225536217096,0.00048733330843609053
1570.8349837405872,1570.8349837405872,1.0002000688781012,0.00048738650371037167
1570.8419283797607,1570.8419283797607,1.0006302891993477,0.0004870606289913513
1570.8488730190036,1570.8488730190036,0.999800860046486,0.0004867149664794429
1570.8558176582694,1570.8558176582694,0.9994966817116774,0.0004867935702061949
1570.8627622975353,1570.8627622975353,0.9991199651122337,0.0004864739432341836
1570.8697069368707,1570.8697069368707,1.0002063220513184,0.0004866081437478923
1570.8772071473345,1570.8772071473345,1.0003526812213897,0.00048649998386069766
1570.8849851433965,1570.8849851433965,1.0002711552789696,0.0004864001918672517
1570.8919297828252,1570.8919297828252,0.999999087984933,0.00048630526926944135
1570.8988744222777,1570.8988744222777,1.000118478981572,0.0004861164347871205
1570.905819061706,1570.905819061706,1.0003181740847675,0.0004859607422172768
1570.9127637011825,1570.9127637011825,0.9993528310625986,0.0004858418931106494
1570.9197083407048,1570.9197083407048,0.999741965545059,0.00048559517512444935
1570.9266529802267,1570.9266529802267,0.9996521524424621,0.0004854097475649459
1570.933597619772,1570.933597619772,1.0006782529597145,0.00048546402915018483
1570.9405422593404,1570.9405422593404,0.9998745827353291,0.00048530283685788
1570.9474868989564,1570.9474868989564,1.0006507709032644,0.00048524741018247003
1570.9544315385951,1570.9544315385951,1.000898618827721,0.0004852781536533285
1570.9613761782568,1570.9613761782568,0.9996765892804816,0.0004849101072528715
1570.9683208179413,1570.9683208179413,0.9994314231887111,0.00048457150837907424
1570.975265457603,1570.975265457603,0.9995219839157781,0.0004843446062423296
1570.9822100973356,1570.9822100973356,0.9990800075017603,0.0004844410128086878
1570.9891547370905,1570.9891547370905,0.9997986949685348,0.00048410946810995107
1570.9960993768455,1570.9960993768455,1.0004459251165485,0.0004841253426019096
1571.0030440166233,1571.0030440166233,1.0002659310003774,0.00048386520385093325
1571.0099886564246,1571.0099886564246,1.0010631276382302,0.00048370835419561794
1571.01693329625,1571.01693329625,1.000305943893136,0.0004834508118977233
1571.0238779360984,1571.0238779360984,0.9996926879886636,0.0004832624291434027
1571.0308225759695,1571.0308225759695,0.9997637529308095,0.0004829694857512266
1571.037767215864,1571.037767215864,0.9993888482557269,0.0004831541660619304
1571.0447118557352,1571.0447118557352,0.999499300005016,0.00048261215151275015
1571.0516564956765,1571.0516564956765,1.0001773685033313,0.00048220101317534344
1571.0586011356418,1571.0586011356418,0.9997648672013562,0.00048227934736540907
1571.065545775606,1571.065545775606,0.9999366232721536,0.000481897102557055
1571.0724904155709,1571.0724904155709,1.0001821221665241,0.00048178792590377527
1571.0794350555348,1571.0794350555348,1.0002411837871907,0.0004817118892998757
1571.0863796955923,1571.0863796955923,1.0003495520112793,0.0004816496277633774
1571.0933243356042,1571.0933243356042,0.9995970778855117,0.0004812097565133726
1571.100268975662,1571.100268975662,1.000008975658668,0.0004811193071114467
1571.1072136157195,1571.1072136157195,0.999474880874183,0.00048089123922591767
1571.1141582557998,1571.1141582557998,1.000006813935026,0.00048084533965307897
1571.121102895904,1571.121102895904,0.9996024759880561,0.0004806316032286384
1571.1280475360322,1571.1280475360322,1.000417252184381,0.0004806553554927952
1571.1349921761366,1571.1349921761366,1.0005099091689726,0.00048057998871188447
1571.1419368163106,1571.1419368163106,1.0002251725144469,0.00048031278002305417
1571.148881456461,1571.148881456461,0.999837338382461,0.0004802122948372459
1571.1558260966112,1571.1558260966112,1.0004250181421024,0.00048010141009105674
1571.1627707368093,1571.1627707368093,0.999437044002579,0.00048013557174225176
1571.169715377007,1571.169715377007,0.9996385894436935,0.00047991020357870517
1571.1766600172273,1571.1766600172273,0.9998524303802435,0.0004796949261642869
1571.1836046574479,1571.1836046574479,1.000384683257326,0.000479694546369539
1571.190549297668,1571.190549297668,0.9998150226134502,0.0004797829547001555
1571.1974939379356,1571.1974939379356,1.000046721255766,0.0004796729344269065
1571.2044385782035,1571.2044385782035,1.0000900079299568,0.00047960693079381213
1571.2113832184937,1571.2113832184937,1.0002244065122141,0.0004795093251010895
1571.218327858784,1571.218327858784,1.0001347016815594,0.00047932359849701435
1571.225272499074,1571.225272499074,0.9993321506583659,0.00047904808845763123
1571.2322171393878,1571.2322171393878,0.9999401709382667,0.0004790616459088899
1571.239161779726,1571.239161779726,1.0004056387566722,0.0004790274208917816
1571.2461064200627,1571.2461064200627,1.0003748969913207,0.00047932770954094855
1571.2530510603997,1571.2530510603997,0.9998869877165752,0.00047904854879919303
1571.2599957007365,1571.2599957007365,1.0000797903166538,0.00047878473670729895
1571.2669403411433,1571.2669403411433,0.9992273492956782,0.0004788103060703582
1571.2738849815037,1571.2738849815037,0.9996174771526418,0.000478536905381234
1571.2808296218877,1571.2808296218877,1.0009889147215092,0.00047882038460658435
1571.2877742622945,1571.2877742622945,1.0000810219340888,0.000478539459525857
1571.2947189026777,1571.2947189026777,1.0003637920524173,0.00047849048186747337
1571.301663543108,1571.301663543108,0.9998148383712827,0.0004782174660171756
1571.3086081835381,1571.3086081835381,0.999697183179497,0.0004781087857855512
1571.315552823969,1571.315552823969,0.9998826068306694,0.00047797350591351407
1571.3224974644224,1571.3224974644224,0.99979376733082,0.00047793430325718386
1571.3294421048522,1571.3294421048522,1.0000961582104704,0.00047796923503172885
1571.3363867453052,1571.3363867453052,1.000057567839138,0.00047773611184239687
1571.343331385782,1571.343331385782,0.9999102934771553,0.0004778500655126525
1571.3502760262595,1571.3502760262595,0.9998649983024549,0.00047732214684372926
1571.357220666713,1571.357220666713,1.0003168114966725,0.00047744553561931074
1571.3641653072364,1571.3641653072364,1.0000244475239621,0.0004771673412986116
1571.371109947666,1571.371109947666,1.0001109774864718,0.0004770249999420439
1571.3780545882125,1571.3780545882125,0.9999073877265555,0.0004771737844824639
1571.3849992287128,1571.3849992287128,0.9999397233252687,0.0004767585561677755
1571.3919438691898,1571.3919438691898,0.9996120476991829,0.0004765966103629221
1571.3988885097365,1571.3988885097365,1.0003319653444738,0.00047672171007845994
1571.405833150283,1571.405833150283,1.0001024453126033,0.000476509346912647
1571.4127777908293,1571.4127777908293,1.000229675938001,0.00047647223505896494
1571.4197224312827,1571.4197224312827,0.9998524287934394,0.0004766154053262316
1571.4266670718064,1571.4266670718064,1.000299295347115,0.0004763820853464063
1571.4336117123535,1571.4336117123535,0.9997283595685114,0.0004761192656884132
1571.4405563528999,1571.4405563528999,1.0003851305083713,0.0004764584908003312
1571.447500993446,1571.447500993446,0.999291440146302,0.0004762169006206146
1571.4544456340388,1571.4544456340388,0.9998893683962915,0.0004764842915342511
1571.4613902746555,1571.4613902746555,0.9997680300510087,0.0004760567966520745
1571.4683349152028,1571.4683349152028,1.000263290429625,0.00047604034569205663
1571.4752795557492,1571.4752795557492,1.0000716097670623,0.00047624898667205805
1571.4822241962954,1571.4822241962954,1.000138226084713,0.0004761265467257382
1571.489168836842,1571.489168836842,1.0001153995032055,0.0004764244909927915
1571.4961134775047,1571.4961134775047,1.0002788899676573,0.0004763366839113805
1571.5030581180522,1571.5030581180522,1.000486689048246,0.00047619726394537547
1571.510002758599,1571.510002758599,0.9996555004254519,0.0004759693833491718
1571.5169473992146,1571.5169473992146,0.999506040503538,0.0004758883772829987
1571.5238920398078,1571.5238920398078,0.9998325344236447,0.0004763393630388086
1571.5308366803542,1571.5308366803542,0.9994109034683223,0.0004759163433220658
1571.537781321017,1571.537781321017,0.9995897494247681,0.00047596134179550754
1571.5447259615648,1571.5447259615648,1.0004961319708623,0.00047605073935000065
1571.5516706021574,1571.5516706021574,1.0008782291478042,0.0004761711687443613
1571.5586152427738,1571.5586152427738,1.0006960698843077,0.0004761180061186103
1571.5655598833205,1571.5655598833205,1.0000590090143782,0.00047603140415098614
1571.5725045239828,1571.5725045239828,0.9995005955601688,0.0004759613694721364
1571.57944916453,1571.57944916453,0.9995963942655608,0.000476001780971554
1571.5863938051702,1571.5863938051702,1.0001853292878617,0.00047583703471691836
1571.5933384457398,1571.5933384457398,0.9996447071868779,0.00047598462544537365
1571.600283086356,1571.600283086356,0.999670568851428,0.000475816626064669
1571.607227726949,1571.607227726949,1.0000808886750643,0.00047621903085978874
1571.6141723675416,1571.6141723675416,1.0004590115321426,0.00047600752820872494
1571.6211170081594,1571.6211170081594,1.0001315244368523,0.00047597492361401594
1571.6280616487295,1571.6280616487295,0.9994044398747144,0.0004757405363883216
1571.6350062893684,1571.6350062893684,1.0008818302261164,0.0004759088104002452
1571.641950929915,1571.641950929915,0.9993014507662696,0.0004757912194711512
1571.6488955705543,1571.6488955705543,0.9996257769881891,0.00047596848937075205
1571.655840211124,1571.655840211124,1.0003150896764788,0.0004759472545407854
1571.6627848517187,1571.6627848517187,1.0004028834982683,0.0004758975928949958
1571.6697294923347,1571.6697294923347,1.0000864501161597,0.0004758518718918117
1571.6766741328809,1571.6766741328809,0.9999082127515837,0.0004757883978426869
1571.6836187735203,1571.6836187735203,0.9999845993845173,0.0004759725490425286
1571.6905634140899,1571.6905634140899,1.00014484790654,0.00047568852011795596
1571.697508054637,1571.697508054637,0.9995593992050449,0.00047566258377580126
1571.7044526953005,1571.7044526953005,1.0005636183390272,0.0004757022243050909
1571.7113973358469,1571.7113973358469,0.9995630280411438,0.00047559896719806625
1571.718341976393,1571.718341976393,0.9997658647722059,0.0004755890143277603
1571.7252866169863,1571.7252866169863,1.0001078319970653,0.000475461897393016
1571.7322312576027,1571.7322312576027,1.0006033957331981,0.00047537625664308467
1571.7391758981498,1571.7391758981498,0.9992219558736192,0.00047531768669793577
1571.7461205386967,1571.7461205386967,0.9998319661839796,0.00047541193657567934
1571.7530651792429,1571.7530651792429,1.0001943693945319,0.0004752928512217859
1571.7600098197893,1571.7600098197893,0.9996739591777531,0.00047505365554517535
1571.7669544603357,1571.7669544603357,1.000391367949602,0.0004755073134975256
1571.7738991009517,1571.7738991009517,1.000889817107621,0.00047523218241721926
1571.780843741546,1571.780843741546,1.0002644122522046,0.0004751067648356009
1571.7877883820927,1571.7877883820927,1.0004288266162393,0.00047495179463721257
1571.7947330225456,1571.7947330225456,0.9995541088751544,0.0004750032874709669
1571.8016776630686,1571.8016776630686,1.0001930800090544,0.000474872369638733
1571.808622303615,1571.808622303615,0.999505323828241,0.00047469771399544415
1571.8155669441614,1571.8155669441614,0.9996137384790046,0.0004746013453057193
1571.8225115847092,1571.8225115847092,0.999607631056794,0.00047475651465841723
1571.8294562252554,1571.8294562252554,1.0001500359341429,0.0004746344140504746
1571.8364008657086,1571.8364008657086,1.000505765347488,0.00047466994599611753
1571.843345506232,1571.843345506232,1.000328753507038,0.00047473760154018955
1571.8502901467782,1571.8502901467782,1.0001475902314316,0.0004749609070714697
1571.8572347872084,1571.8572347872084,1.0000414153227486,0.00047438809016121374
1571.864179427756,1571.864179427756,1.000075925421907,0.0004745061135642438
1571.871124068209,1571.871124068209,0.9993191528471905,0.00047430635436617775
1571.8780687087324,1571.8780687087324,1.0001739713167839,0.00047434692581170833
1571.8850133491624,1571.8850133491624,0.9995989757738016,0.0004743313643970185
1571.891957989662,1571.891957989662,1.0009557255910173,0.0004745375559625514
1571.8989026301156,1571.8989026301156,1.0001655934014022,0.00047466041581558033
1571.9058472705697,1571.9058472705697,1.0003573758801623,0.0004744474074917463
1571.9127919110229,1571.9127919110229,0.9996249328270693,0.00047433780565269025
1571.9197365514763,1571.9197365514763,1.0005796708895824,0.00047441374293169406
1571.926681191906,1571.926681191906,1.0001641157467929,0.0004745015398035242
1571.933625832336,1571.933625832336,0.9995776964179879,0.00047428810930270915
1571.9405704727662,1571.9405704727662,1.0004509263716626,0.00047440268144106933
1571.9475151131742,1571.9475151131742,0.9989654830841559,0.00047414698259182485
1571.9544597536042,1571.9544597536042,1.0004480731120808,0.0004744602007088259
1571.961404393987,1571.961404393987,0.9997838807907004,0.00047433735945282717
1571.968349034394,1571.968349034394,1.0002552603960826,0.0004743847122285369
1571.9752936747775,1571.9752936747775,1.0006310464073906,0.00047425649348368376
1571.982238315138,1571.982238315138,0.9997748617157487,0.00047429174162841634
1571.9891829555456,1571.9891829555456,0.9995396680581997,0.0004743569871097977
1571.996127595882,1571.996127595882,1.0001523045570777,0.00047420779116329133
1572.0030722362424,1572.0030722362424,1.000228922808059,0.00047427627475202905
1572.0100168766025,1572.0100168766025,0.9998783236024457,0.00047420195771153263
1572.0169615169393,1572.0169615169393,0.9997484222509614,0.00047425760416723036
1572.0239061572534,1572.0239061572534,0.999659611689115,0.0004740333392413273
1572.030850797591,1572.030850797591,1.0003277673025224,0.00047403749876805763
1572.0377954379044,1572.0377954379044,1.0000693694283862,0.0004742163003417286
1572.0447400782182,1572.0447400782182,1.0004496058762262,0.0004743822689455204
1572.0516847185086,1572.0516847185086,0.9992160921044843,0.00047368777580434495
1572.0586293587983,1572.0586293587983,1.0001316664924338,0.00047400222043597975
1572.0655739990893,1572.0655739990893,1.0004779480042718,0.0004741272641829102
1572.072518639357,1572.072518639357,0.9999612348299463,0.00047421838861882667
1572.0794632796008,1572.0794632796008,0.9998642138494723,0.0004736696998261428
1572.0864079198677,1572.0864079198677,0.9999872793493608,0.00047407966895985
1572.0933525601113,1572.0933525601113,0.9999324914382794,0.000473847710053353
1572.1002972003316,1572.1002972003316,1.0002682017876139,0.00047377728528957873
