time,time,flux,flux_err
1410.9110175658793,1410.9110175658793,0.9998005477008312,0.0006596028767598836
1410.9179621376104,1410.9179621376104,1.0005812688223716,0.0006597670426242953
1410.924906709157,1410.924906709157,1.0003668391175018,0.0006594925547667553
1410.9318512805153,1410.9318512805153,1.00075173220971,0.0006597943367497666
1410.9387958516886,1410.9387958516886,0.9987099516871343,0.0006593355807914946
1410.945740422582,1410.945740422582,1.0002624027169205,0.0006596224921730545
1410.952684993103,1410.952684993103,0.9999447648541342,0.0006594763609064807
1410.959629563438,1410.959629563438,1.000701243088899,0.0006595079015616456
1410.9676852648213,1410.9676852648213,1.0004954826308003,0.0006594452640354203
1410.982129969851,1410.982129969851,0.9995118100963373,0.0006592718587476729
1410.9915745840908,1410.9915745840908,1.000135611361395,0.0006595773660292078
1411.0001858496485,1411.0001858496485,0.9998054099491483,0.0006590197545266033
1411.0110193769308,1411.0110193769308,0.9998187723851494,0.0006592963067891275
1411.0179639452165,1411.0179639452165,0.999135950991425,0.0006592725279845847
1411.024908513316,1411.024908513316,1.0008700899892957,0.0006594558182759426
1411.0318530812297,1411.0318530812297,1.000771851245162,0.0006595535098853332
1411.0387976488632,1411.0387976488632,1.0004758435732382,0.0006593108972470119
1411.0457422163113,1411.0457422163113,0.9994398310643332,0.000659129517614616
1411.0535201314167,1411.0535201314167,1.0009319337628138,0.0006593633971561107
1411.0610202636904,1411.0610202636904,1.0009181827671156,0.0006590943670936669
1411.0679648303928,1411.0679648303928,0.9998597483328556,0.000659080527151551
1411.0749093966292,1411.0749093966292,0.9986741476812069,0.0006587760378509472
1411.0818539627737,1411.0818539627737,0.9995079145877135,0.0006591211093307652
1411.0887985289176,1411.0887985289176,0.9999951827671781,0.0006592260538348545
1411.0957430945023,1411.0957430945023,0.9991579063904918,0.0006590472538163875
1411.1026876600877,1411.1026876600877,1.000899847679337,0.0006596069746864348
1411.1096322253002,1411.1096322253002,1.0004936988643418,0.0006592694371817
1411.1165767902337,1411.1165767902337,1.0004063609037932,0.000659343004237886
1411.12352135498,1411.12352135498,0.9993387708196104,0.000659160541040893
1411.1304659195407,1411.1304659195407,0.9998715695209268,0.0006590704378547899
1411.137410483822,1411.137410483822,1.0005616481311495,0.0006592093800025718
1411.1443550478236,1411.1443550478236,0.99904817182442,0.000658867473338815
1411.1512996116396,1411.1512996116396,1.0006595363352488,0.0006592676168819593
1411.1582441751752,1411.1582441751752,1.000178709353602,0.000659112288518841
1411.165188738525,1411.165188738525,0.9996049836383563,0.0006590774398578077
1411.1721333016892,1411.1721333016892,1.0003011014157224,0.000659074771132381
1411.1790778644797,1411.1790778644797,0.9999582960655318,0.0006592382382799246
1411.1860224270854,1411.1860224270854,1.0000865532222485,0.0006592181232285966
1411.1929669895965,1411.1929669895965,1.0008847540758852,0.0006595380830148062
1411.1999115516423,1411.1999115516423,0.9998824412487266,0.0006592773474194623
1411.206856113689,1411.206856113689,0.999112304982197,0.0006590155693910105
1411.2138006752687,1411.2138006752687,0.9991396135498668,0.0006590291625919899
1411.2207452367568,1411.2207452367568,0.9999001246578313,0.0006590228370308588
1411.2276897980569,1411.2276897980569,1.0005670884827824,0.000659388173013329
1411.2346343590789,1411.2346343590789,1.000033745625969,0.0006590223867575598
1411.241578919821,1411.241578919821,0.999684326662719,0.0006590645009193605
1411.2485234802832,1411.2485234802832,1.000486952678356,0.0006591408228375097
1411.2554680405606,1411.2554680405606,1.000295666390009,0.000659120647306243
1411.2624126007436,1411.2624126007436,0.999863050839531,0.000658989679268468
1411.2693571605544,1411.2693571605544,1.001002005322477,0.0006591460104673409
1411.2763017202726,1411.2763017202726,0.999623662905555,0.0006588556524232713
1411.2832462795236,1411.2832462795236,1.0000178562895896,0.000659121089541405
1411.2901908387767,1411.2901908387767,1.0007075476447853,0.0006591383247702793
1411.2971353977487,1411.2971353977487,0.9984646872848769,0.0006588031239847372
1411.3040799565354,1411.3040799565354,0.9996984581563275,0.0006591677280422468
1411.3110245149496,1411.3110245149496,1.000105327228562,0.000659268475797867
1411.3179690732698,1411.3179690732698,1.0000585163741007,0.0006591368076241224
1411.3249136312186,1411.3249136312186,0.9996898781149997,0.0006590842829989278
1411.3318581890735,1411.3318581890735,0.9998127123021078,0.0006590668612888869
1411.3388027466492,1411.3388027466492,0.9997721199936643,0.0006589931304161759
1411.3457473040385,1411.3457473040385,1.00110458389963,0.000659399090579086
1411.3526918612413,1411.3526918612413,0.9997933059548922,0.0006591231991899006
1411.3596364180726,1411.3596364180726,1.001178342765533,0.0006593060394383691
1411.366580974903,1411.366580974903,1.0003945768826132,0.0006592303628024214
1411.3735255312681,1411.3735255312681,0.998588819803642,0.0006587431626189444
1411.3804700874466,1411.3804700874466,0.9992488246271242,0.0006591040640553142
1411.3874146435317,1411.3874146435317,1.000044785346297,0.0006592802858619419
1411.3943591993389,1411.3943591993389,1.0000502603336017,0.0006590998265141939
1411.401303754958,1411.401303754958,1.0002224222129315,0.0006591946379668197
1411.4082483102989,1411.4082483102989,1.00131619663635,0.0006595579632669184
1411.415192865453,1411.415192865453,0.9997326119389,0.000659299155045255
1411.4221374204208,1411.4221374204208,0.9999680108303373,0.0006591773541787352
1411.429081975203,1411.429081975203,0.9995028966288508,0.0006591921177568244
1411.4360265297048,1411.4360265297048,1.0003060734722815,0.0006593176142650828
1411.4429710839281,1411.4429710839281,0.9988252914310145,0.000659076516410977
1411.4499156379643,1411.4499156379643,0.9998680989542684,0.0006593410260421716
1411.456860191815,1411.456860191815,0.9994299453633149,0.0006593363962735047
1411.4638047454794,1411.4638047454794,1.0010783792288844,0.0006595952184237372
1411.4707492988634,1411.4707492988634,1.000104807170461,0.0006592363422081624
1411.4776938520629,1411.4776938520629,0.9999378166007208,0.0006591259281627157
1411.4846384049815,1411.4846384049815,1.0007353756412427,0.0006594061503403555
1411.4915829578074,1411.4915829578074,1.0004338552087604,0.0006593227737052381
1411.4985275104475,1411.4985275104475,0.9996071472494643,0.0006593010839458508
1411.5054720626206,1411.5054720626206,1.000194085605791,0.0006593017736040387
1411.5124166147955,1411.5124166147955,0.999223819355128,0.0006590307329359186
1411.5193611667826,1411.5193611667826,1.0003617353767822,0.0006591455392096762
1411.5263057184911,1411.5263057184911,0.9996866509511939,0.000659154795222419
1411.5332502699205,1411.5332502699205,0.9993656024345254,0.0006587951633791469
1411.5401948212557,1411.5401948212557,1.0000448179068417,0.0006589843793394552
1411.5471393723128,1411.5471393723128,0.9996628869671442,0.0006589488860664559
1411.5540839231828,1411.5540839231828,1.0001833973481076,0.0006588800025725873
1411.5610284737736,1411.5610284737736,1.0011503586385828,0.000659305136304841
1411.5679730242712,1411.5679730242712,0.9997280333515397,0.0006588211721827059
1411.5749175745825,1411.5749175745825,1.0008581788439748,0.000659104987974493
1411.5818621244284,1411.5818621244284,1.0000512802998842,0.0006590391852216336
1411.5888066742739,1411.5888066742739,0.9994867210859898,0.0006590251949357227
1411.595751224027,1411.595751224027,0.9999268837939514,0.0006592234429173918
1411.6026957734064,1411.6026957734064,1.0001039815021506,0.0006592714460835105
1411.6096403226006,1411.6096403226006,1.0004863496719962,0.0006592740445281506
1411.6165848716082,1411.6165848716082,0.9991685156927895,0.0006591238544650033
1411.6235294203357,1411.6235294203357,0.9999835057645932,0.0006593671047604836
1411.6304739690645,1411.6304739690645,0.9987930834033278,0.0006591180593663427
1411.6374185174195,1411.6374185174195,0.9994384449839588,0.0006593354711475249
1411.644363065589,1411.644363065589,1.0009959982413028,0.0006594350306037532
1411.6513076135723,1411.6513076135723,1.0011660215075495,0.0006594226749682691
1411.6582521614619,1411.6582521614619,0.9993671306633276,0.000659104458183021
1411.6651967090731,1411.6651967090731,0.9998112354443552,0.0006594481555406396
1411.6721412563104,1411.6721412563104,0.9996975267673,0.0006590318200609766
1411.679085803456,1411.679085803456,1.000806868520789,0.0006593234619348402
1411.6860303505073,1411.6860303505073,0.99965805188607,0.0006590552141931539
1411.6929748972796,1411.6929748972796,1.0006056957219205,0.0006593497839363165
1411.699919443773,1411.699919443773,1.0008109632175235,0.0006594578190051695
1411.7068639900792,1411.7068639900792,0.9989718462804614,0.0006589619958213659
1411.7138085363863,1411.7138085363863,1.000413039749252,0.0006594911459587833
1411.7207530824135,1411.7207530824135,0.9998405686218799,0.0006592667443885817
1411.7276976281614,1411.7276976281614,0.9996004746701633,0.0006592374841618151
1411.7346421736297,1411.7346421736297,0.9993481510596987,0.000659014956302573
1411.741586719191,1411.741586719191,0.9991993198150079,0.0006590770961098084
1411.7485312643807,1411.7485312643807,1.000226759184676,0.0006592679200758682
1411.755475809197,1411.755475809197,1.0008604212271672,0.0006593430368123241
1411.762420354107,1411.762420354107,1.0001093946937576,0.0006592656443763737
1411.7693648987372,1411.7693648987372,1.000206175746237,0.0006593317387200594
1411.776309443088,1411.776309443088,1.0001003529060593,0.0006592324932918208
1411.7832539872531,1411.7832539872531,0.9999366809083291,0.0006591959466876156
1411.790198531324,1411.790198531324,1.0007950117139932,0.0006593810217969747
1411.7971430751168,1411.7971430751168,1.0002493703178588,0.0006592121780264293
1411.804087618722,1411.804087618722,0.9991332002116262,0.0006590089390841433
1411.8110321622348,1411.8110321622348,0.9989147271579059,0.0006589460593050033
1411.8179767055615,1411.8179767055615,0.9999291887948678,0.0006591809530685008
1411.824921248422,1411.824921248422,1.0002670248388406,0.000659346349839426
1411.8318657912837,1411.8318657912837,1.0002286420455828,0.0006591766411131744
1411.8388103341438,1411.8388103341438,1.0002565623458377,0.0006592401102255515
1411.8457548765393,1411.8457548765393,1.0004664476856282,0.0006592502527482843
1411.8526994188412,1411.8526994188412,0.9995873563334043,0.0006591389066842872
1411.8596439609569,1411.8596439609569,1.0007047870224497,0.0006594188227115911
1411.8665885028865,1411.8665885028865,1.0001078418714253,0.0006592269135922366
1411.8735330446293,1411.8735330446293,0.9999451356224357,0.0006592388290809863
1411.8804775861868,1411.8804775861868,0.9999820904504142,0.0006591506815886012
1411.887422127464,1411.887422127464,0.9992308345319648,0.0006590547694212286
1411.8943666686487,1411.8943666686487,0.9992605284229439,0.0006590395694794097
1411.9013112096468,1411.9013112096468,0.9997831967641566,0.000659068596941871
1411.9082557504585,1411.9082557504585,0.9999282369770774,0.0006591149831137624
1411.9152002911778,1411.9152002911778,0.9998174079897704,0.0006591786610248345
1411.9221448314304,1411.9221448314304,1.000510173685713,0.000659341309046833
1411.9290893716839,1411.9290893716839,1.0018671748612291,0.0006595463527954491
1411.9360339117502,1411.9360339117502,1.0003704569054301,0.0006591597342698369
1411.942978451631,1411.942978451631,0.9994130815975032,0.0006589774073331126
1411.9499229913256,1411.9499229913256,0.9995833043904984,0.0006590333114498522
1411.9568675307396,1411.9568675307396,0.9999982634517195,0.0006591330444597591
1411.9638120701557,1411.9638120701557,0.9986216369822856,0.0006590490077631608
1411.970756609197,1411.970756609197,1.0001128149340606,0.0006591166149429681
1411.9777011482402,1411.9777011482402,0.9994869126721546,0.0006589791665779569
1411.9846456869095,1411.9846456869095,1.0009581442485647,0.0006593597931549611
1411.9915902254863,1411.9915902254863,1.000744076058022,0.0006594760959861012
1411.9985347640636,1411.9985347640636,1.0003636142053978,0.0006592114627531711
1412.0054793022675,1412.0054793022675,1.0000477791346152,0.0006591322196541772
1412.0124238401927,1412.0124238401927,0.9995312533013838,0.0006590281752576966
1412.019368378117,1412.019368378117,0.9995349251210005,0.0006590141132616071
1412.0263129157627,1412.0263129157627,0.9994110031869228,0.0006591424905133758
1412.0332574532217,1412.0332574532217,1.0006782255731812,0.000659198067188356
1412.0402019905875,1412.0402019905875,1.0002268643144652,0.0006590355008501847
1412.0471465276742,1412.0471465276742,0.9995433374794294,0.0006589782299658669
1412.0540910646675,1412.0540910646675,1.0004076762103689,0.0006590561298434384
1412.0610356015682,1412.0610356015682,1.000141789454601,0.0006589795614801354
1412.0679801380961,1412.0679801380961,0.9998195218121946,0.0006591459283247106
1412.074924674531,1412.074924674531,1.0010836620296946,0.0006595516407932589
1412.0818692108724,1412.0818692108724,0.999604177251495,0.0006591198961292459
1412.0888137467482,1412.0888137467482,0.9994785072897173,0.0006590789230318851
1412.0957582826243,1412.0957582826243,1.001171367713741,0.0006594141805533566
1412.1027028184994,1412.1027028184994,0.9996011764271635,0.000659200715186357
1412.1096473540968,1412.1096473540968,1.00037422611245,0.000659387669110983
1412.1165918895065,1412.1165918895065,0.9994861828503752,0.0006592090055925442
1412.1235364247307,1412.1235364247307,0.9994669436225794,0.0006592852803188709
1412.1304809596754,1412.1304809596754,0.9998511066501952,0.0006593724947288127
1412.1374254945263,1412.1374254945263,1.0002463777959683,0.0006593415784106177
1412.1443700291925,1412.1443700291925,1.000527995507484,0.0006593939203839627
1412.1513145637634,1412.1513145637634,0.999464035378663,0.0006591930732784969
1412.158259098057,1412.158259098057,1.000706130086896,0.0006596114218797053
1412.165203632256,1412.165203632256,1.0008518217382907,0.0006596173832312806
1412.1721481662694,1412.1721481662694,0.9996804395990949,0.0006593768568055543
1412.1790927000964,1412.1790927000964,0.9998143335699229,0.0006593298205059017
1412.1860372336437,1412.1860372336437,0.9991035279469365,0.000659149061217143
1412.192981767192,1412.192981767192,0.9990579228443863,0.0006592794761113294
1412.1999263005525,1412.1999263005525,1.0001579044986362,0.0006593512058496231
1412.2068708336353,1412.2068708336353,1.0006251428577502,0.0006595497919548254
1412.2138153666233,1412.2138153666233,0.9998813963663986,0.0006593559881004835
1412.2207598995196,1412.2207598995196,1.0004680254633027,0.0006593966513413675
1412.2277044320424,1412.2277044320424,1.000792683843005,0.000659630022824969
1412.2346489646588,1412.2346489646588,1.0000291680713496,0.000659511267816427
1412.2415934968096,1412.2415934968096,0.9990215427413103,0.0006590591495508036
1412.2485380289595,1412.2485380289595,0.9999919576023633,0.000659364274792734
1412.256038123422,1412.256038123422,1.000451713503,0.0006594528407334617
1412.2646493427856,1412.2646493427856,1.0008461198991563,0.0006591985369609486
1412.2743716870518,1412.2743716870518,0.9997262175123455,0.0006590430589870023
1412.285205155754,1412.285205155754,0.9989747588288236,0.0006589384814351177
1412.29437193687,1412.29437193687,0.9994455663735327,0.0006591457213206565
1412.3013164676236,1412.3013164676236,1.0013256645888577,0.0006596348743949235
1412.3082609982844,1412.3082609982844,1.000344246179091,0.0006593536194698529
1412.3152055289445,1412.3152055289445,0.9998056004824105,0.0006593180901835934
1412.3221500592329,1412.3221500592329,1.0002588697605939,0.0006596757960102047
1412.329094589427,1412.329094589427,1.0005852652263463,0.0006593222005209724
1412.3360391195292,1412.3360391195292,1.0001375664681116,0.000659418994212684
1412.3429836493515,1412.3429836493515,1.000882012678291,0.0006593886745286659
1412.3499281790807,1412.3499281790807,0.9992278238794483,0.0006590801866806551
1412.3568727085308,1412.3568727085308,0.9985668004177255,0.0006588220767000263
1412.3638172379801,1412.3638172379801,1.0001306104307435,0.0006589831806735822
1412.370761767244,1412.370761767244,1.0010110081126842,0.0006593870818810459
1412.3777062962276,1412.3777062962276,1.0050530466544276,0.0006604409607184989
1412.3846508251193,1412.3846508251193,1.0002652485496415,0.0006592926294087287
1412.3915953539163,1412.3915953539163,1.0004795938364557,0.0006594173925730518
1412.3985398824354,1412.3985398824354,1.0003667020148943,0.0006593561987670577
1412.4054844107673,1412.4054844107673,0.9991803218839902,0.0006590593942525069
1412.4124289390998,1412.4124289390998,0.9995720457168045,0.0006592663917430683
1412.4193734671528,1412.4193734671528,0.9997222381647966,0.0006589376580031695
1412.4263179951115,1412.4263179951115,0.9999327948752255,0.0006593872864081794
1412.433262522793,1412.433262522793,0.9997003853567122,0.0006594862712073056
1412.4402070504723,1412.4402070504723,1.000445223765361,0.0006595380514148274
1412.447151577874,1412.447151577874,1.000434052133937,0.0006595139259788464
1412.454096105088,1412.454096105088,1.0002050996487544,0.000659480526317566
1412.4610406323025,1412.4610406323025,0.9991390301080397,0.0006589908765411337
1412.467985159238,1412.467985159238,1.0004645559851875,0.0006592752668773132
1412.4749296860798,1412.4749296860798,0.9998106336991686,0.0006591712226662074
1412.481874212829,1412.481874212829,1.0002165911248562,0.0006590297554800591
1412.4888187392983,1412.4888187392983,0.999646976708713,0.0006593504434608583
1412.4957632654891,1412.4957632654891,1.0005469631456674,0.000659541310053278
1412.5027077916784,1412.5027077916784,0.999809452533589,0.000659205620019407
1412.5096523177763,1412.5096523177763,0.9994514495129302,0.0006593228729670477
1412.5165968435936,1412.5165968435936,1.0006437713376592,0.0006593281337670381
1412.523541369318,1412.523541369318,0.9995103571483025,0.0006592339851516783
1412.5304858948564,1412.5304858948564,0.9993435915420745,0.0006591468018469056
1412.537430420301,1412.537430420301,1.0003468997746268,0.0006594298818600045
1412.5443749454676,1412.5443749454676,0.9999505028699796,0.0006592635764713525
1412.5513194705393,1412.5513194705393,1.00006778447881,0.0006592682799459799
1412.5582639955194,1412.5582639955194,0.9999957669918705,0.0006592395105346723
1412.565208520219,1412.565208520219,0.9992376940851653,0.0006589541024266169
1412.572153044826,1412.572153044826,1.0008353875625342,0.0006593575804141165
1412.5790975693399,1412.5790975693399,1.0002525409673517,0.0006592024420529471
1412.5860420935744,1412.5860420935744,0.9992206385909375,0.0006589855803431609
1412.5929866178087,1412.5929866178087,0.9993747867250177,0.0006591389965430261
1412.5999311417636,1412.5999311417636,0.9998444414801874,0.0006592471398968083
1412.606875665626,1412.606875665626,1.0007870816205076,0.0006593879745326189
1412.613820189301,1412.613820189301,0.999398008227087,0.000659062088326393
1412.6207647128838,1412.6207647128838,1.0007438600514045,0.0006592677769482088
1412.6277092362793,1412.6277092362793,0.9993805702689343,0.0006590600940072463
1412.6346537594895,1412.6346537594895,1.0003670979630757,0.0006593484699868879
1412.6415982826065,1412.6415982826065,1.0004653320675132,0.0006593536062377627
1412.648542805537,1412.648542805537,0.9997779996428589,0.000659324332335993
1412.6554873282817,1412.6554873282817,1.0004917306165728,0.0006594704734398132
1412.6624318509323,1412.6624318509323,0.9995336852233583,0.0006594952491986211
1412.6693763733974,1412.6693763733974,0.9994070767173676,0.0006595092794545173
1412.6763208956759,1412.6763208956759,1.0003731528973883,0.0006595475609923282
1412.6832654179548,1412.6832654179548,0.9998542614395239,0.0006593555087843448
1412.6902099398606,1412.6902099398606,0.9996241902158621,0.0006593242003267018
1412.6971544617668,1412.6971544617668,1.0003691539591024,0.0006595507596663444
1412.7040989835796,1412.7040989835796,0.9999307144324858,0.0006594807331864161
