time,time,flux,flux_err
1354.1196876880488,1354.1196876880488,1.0002318462466542,0.0011149233495558416
1354.128484086496,1354.128484086496,1.0000283803982237,0.0011145674635482331
1354.1361230638188,1354.1361230638188,0.998429341661471,0.0010167930593441388
1354.1430675882375,1354.1430675882375,1.0023285139989002,0.0010174836902327813
1354.1500121124695,1354.1500121124695,1.0002723381653316,0.0010169021920324512
1354.1569566361434,1354.1569566361434,0.9996744015832588,0.0010164022991523258
1354.1639011598165,1354.1639011598165,0.9978135301989143,0.0010159287658123778
1354.1708456830245,1354.1708456830245,0.9986881140399166,0.0010162326049773197
1354.1777902060458,1354.1777902060458,1.0000938673577957,0.0010166513568765682
1354.1847347287885,1354.1847347287885,0.9998810962112674,0.001016451549199953
1354.191679251251,1354.191679251251,1.0002470861362678,0.00101649135971243
1354.1986237732478,1354.1986237732478,1.0012017814082395,0.001016704975137141
1354.205568295152,1354.205568295152,1.0003421700324682,0.0010169636404160055
1354.2125128168698,1354.2125128168698,1.0002659623999413,0.0010167373976681495
1354.2194573382149,1354.2194573382149,0.9997452798981328,0.001017138079542884
1354.2264018592807,1354.2264018592807,0.9992115231411809,0.0010168114918396318
1354.2333463800667,1354.2333463800667,1.0008524607156124,0.0010171589327621585
1354.240290900667,1354.240290900667,0.9995069872679228,0.0010169615746288391
1354.2472354208946,1354.2472354208946,0.9989629463144636,0.0010169224715667596
1354.254179940936,1354.254179940936,0.9998833408751542,0.001017271539277388
1354.2611244606046,1354.2611244606046,1.000033007497959,0.0010171867049987324
1354.2680689801805,1354.2680689801805,1.0001654986015194,0.0010176846687979435
1354.2750134993835,1354.2750134993835,1.0008433933832284,0.001017821828555716
1354.2819580184005,1354.2819580184005,0.9993722901608975,0.0010173594557306201
1354.2889025371378,1354.2889025371378,0.9998875456877169,0.0010174129591231705
1354.2958470555961,1354.2958470555961,1.0024809666760017,0.0010183181777895548
1354.3027915737744,1354.3027915737744,0.9995969540098576,0.0010174720254539646
1354.3097360917668,1354.3097360917668,1.000753846353298,0.0010173982522699576
1354.31668060948,1354.31668060948,0.9988020028150997,0.0010169281720999426
1354.3236251270066,1354.3236251270066,1.0002923206645296,0.0010176068091689108
1354.330569644254,1354.330569644254,0.9997168247559675,0.001017363511664411
1354.337514161222,1354.337514161222,0.9989583461970202,0.0010171590489054705
1354.3444586780035,1354.3444586780035,1.0007208740405935,0.0010175594096778085
1354.3514031944133,1354.3514031944133,0.9998419122608071,0.0010175002649178474
1354.3583477108218,1354.3583477108218,1.000299622061834,0.0010176004289624806
1354.3652922268586,1354.3652922268586,1.0028135037775983,0.0010181862344889844
1354.372236742616,1354.372236742616,0.9989997721515234,0.001017238486247901
1354.37918125828,1354.37918125828,0.9978967991619916,0.0010168104759746977
1354.3861257735716,1354.3861257735716,0.9999799149563945,0.001017283099138395
1354.39307028877,1354.39307028877,1.0011648599701524,0.0010177200142275089
1354.400014803689,1354.400014803689,1.0004911839297799,0.0010178454507838125
1354.4069593182355,1354.4069593182355,0.9995617182309473,0.001017383582297366
1354.4139038327821,1354.4139038327821,1.0006444066758196,0.0010175296454100417
1354.4208483470493,1354.4208483470493,1.0006066040693797,0.0010173052067855288
1354.427792860944,1354.427792860944,1.0009651418720946,0.001017326966820316
1354.4347373748383,1354.4347373748383,1.0001176652839177,0.0010171974562652641
1354.4416818883606,1354.4416818883606,0.9993349412629355,0.0010168110484395458
1354.4486264017892,1354.4486264017892,1.0003191054549903,0.0010167829116856024
1354.4555709148458,1354.4555709148458,0.9986810101244543,0.0010164750860766948
1354.462515427716,1354.462515427716,0.9998617344867663,0.0010169103809822418
1354.4694599403067,1354.4694599403067,1.0008899084989031,0.0010169240058384421
1354.476404452897,1354.476404452897,0.9997571441335069,0.0010170189544311038
1354.4833489653952,1354.4833489653952,1.0000844079421582,0.0010168681131797325
1354.4902934774266,1354.4902934774266,1.0013642490539088,0.0010172015654450885
1354.4972379892727,1354.4972379892727,0.999589098395796,0.001016807840228371
1354.5041825010253,1354.5041825010253,0.999586964744074,0.0010165991354533707
1354.5111270124983,1354.5111270124983,0.9996707629381018,0.0010168036887988458
1354.5180715237852,1354.5180715237852,1.0000471670908804,0.0010173863264820223
1354.5250160347928,1354.5250160347928,0.9997263864503365,0.00101680647349514
1354.5319605457069,1354.5319605457069,1.0008135749448077,0.00101744353912882
1354.5389050564354,1354.5389050564354,1.000080624458867,0.001017047285708233
1354.545849566884,1354.545849566884,1.0002675345776257,0.0010171424994398096
1354.5527940773325,1354.5527940773325,0.9985132612443431,0.0010169444703411038
1354.5597385872227,1354.5597385872227,0.999845634439601,0.001017331679499096
1354.5666830972054,1354.5666830972054,0.9998438579744899,0.0010167863513902888
1354.5736276070024,1354.5736276070024,1.0015888889491469,0.0010178951566806045
1354.5805721164265,1354.5805721164265,0.9995887141249098,0.0010170840320238217
1354.5875166258506,1354.5875166258506,0.9994894313896626,0.001016904092872435
1354.5944611349028,1354.5944611349028,1.0003259225078642,0.0010170318767706
1354.601405643954,1354.601405643954,0.9998034695915934,0.0010172340002815128
1354.6083501527264,1354.6083501527264,1.0003273334120433,0.0010175075588672055
1354.6152946613124,1354.6152946613124,0.999952702916171,0.0010171571050211154
1354.622239169712,1354.622239169712,1.0007605661697192,0.0010174972614974491
1354.629183678019,1354.629183678019,1.0003405061548367,0.0010174418745698961
1354.6361281861396,1354.6361281861396,0.998522834410988,0.0010172634797948556
1354.6430726939802,1354.6430726939802,1.0003100681606232,0.00101753447411038
1354.6500172015421,1354.6500172015421,0.999654788374805,0.001016986956397029
1354.6569617091036,1354.6569617091036,1.0004586979070547,0.0010175220084841859
1354.663906216479,1354.663906216479,0.9996190923218187,0.0010171062828427683
1354.670850723668,1354.670850723668,0.9988242942127421,0.0010170618074968301
1354.6777952305777,1354.6777952305777,1.000303466130276,0.001017277053921031
1354.6847397374875,1354.6847397374875,1.0013477448048231,0.0010174287938638563
1354.6916842441178,1354.6916842441178,0.9996356529297821,0.001017407601638765
1354.6986287505613,1354.6986287505613,1.001708323978554,0.0010175271461008006
1354.7055732569127,1354.7055732569127,0.9996370566003296,0.001016890911528099
1354.7125177630774,1354.7125177630774,0.9983973114391583,0.0010166367102814899
1354.7194622691486,1354.7194622691486,0.9994098355768652,0.0010166864830362878
1354.7264067748479,1354.7264067748479,0.999822713879756,0.0010170129383952307
1354.7333512804532,1354.7333512804532,1.0008233574303802,0.0010172993323347775
1354.7402957860593,1354.7402957860593,1.0007106516640425,0.001017322639458749
1354.7472402913859,1354.7472402913859,0.9996728003429347,0.0010171040751772943
1354.7541847965258,1354.7541847965258,1.00028354720053,0.0010171006703255097
1354.761129301573,1354.761129301573,1.000358446480124,0.0010174261593636955
1354.7680738063405,1354.7680738063405,0.9996635948673761,0.0010170134060713668
1354.7750183111082,1354.7750183111082,1.0000856967822809,0.0010171309959974386
1354.7819628155962,1354.7819628155962,0.9991082048136726,0.0010170122929695827
1354.7889073199917,1354.7889073199917,1.0000206300620085,0.0010175839017118604
1354.7958518242006,1354.7958518242006,0.999300977315686,0.0010173700246642451
1354.802796328223,1354.802796328223,1.0009135927435222,0.0010175669991309424
1354.8097408321523,1354.8097408321523,1.0007208005283064,0.0010178222072264001
1354.8166853358955,1354.8166853358955,1.0009919122617608,0.001017765767062981
1354.8236298393592,1354.8236298393592,0.9984795638372065,0.001016993777102454
1354.8305743430094,1354.8305743430094,0.9999979552883534,0.0010174668073581706
1354.8375188463804,1354.8375188463804,0.9989544915803904,0.0010171146605454664
1354.844463349192,1354.844463349192,1.0008386782358796,0.0010179616646005109
1354.8514078523765,1354.8514078523765,1.0001536943035823,0.001017460880258512
1354.8583523551881,1354.8583523551881,1.0006397955618458,0.0010176193410949281
1354.8652968579067,1354.8652968579067,0.9985612538537969,0.0010172245057829038
1354.8722413604396,1354.8722413604396,1.0006042938504607,0.0010179858002881356
1354.8791858627856,1354.8791858627856,1.0003875769040582,0.0010175954921076693
1354.8861303650388,1354.8861303650388,1.000764353256784,0.0010176590801814472
1354.8930748671055,1354.8930748671055,0.9984715541908455,0.0010173085234319273
1354.9000193691725,1354.9000193691725,1.0001029804803,0.0010176745633060842
1354.9069638709602,1354.9069638709602,1.000621452484678,0.0010178215714160869
1354.913908372654,1354.913908372654,1.0010690639907212,0.001017845227576728
1354.9208528741617,1354.9208528741617,0.9988270572649801,0.0010173981806332632
1354.9277973755768,1354.9277973755768,1.0011543682126274,0.0010181626813778482
1354.9347418768987,1354.9347418768987,0.9993374700103264,0.0010173826592154527
1354.9430752780374,1354.9430752780374,0.9991806034230887,0.0010177113779339943
1354.9500197789869,1354.9500197789869,0.9996778350149447,0.0010175031727426072
1354.956964279936,1354.956964279936,0.9994308574935065,0.0010171975665999892
1354.9639087806058,1354.9639087806058,0.9994347348580304,0.0010174873907295716
1354.9708532811828,1354.9708532811828,1.0018172549863085,0.0010182493052343171
1354.9777977815731,1354.9777977815731,0.9995576588296183,0.0010174254295985971
1354.9847422818707,1354.9847422818707,0.9998661766685452,0.0010175177943028038
1354.9916867819816,1354.9916867819816,1.0009545802021713,0.001017959542784694
1354.9986312819992,1354.9986312819992,0.9999279817760012,0.001017512722906132
1355.0055757818309,1355.0055757818309,1.0008208664619822,0.0010175068103709611
1355.0125202815693,1355.0125202815693,0.9983618717186673,0.0010165236658616732
1355.0194647811218,1355.0194647811218,1.000391640089393,0.00101723408571163
1355.0264092805805,1355.0264092805805,0.9987144195846648,0.0010169817367931945
1355.033353779947,1355.033353779947,1.0006065638188582,0.0010176224479076206
1355.040298279127,1355.040298279127,1.0013224198020505,0.0010176534089027414
1355.0472427783063,1355.0472427783063,1.0003107782320708,0.0010174124987836915
1355.0541872772997,1355.0541872772997,0.999477820428709,0.0010174843373807938
1355.0611317760136,1355.0611317760136,0.9996411466243545,0.0010175845271344097
1355.0680762746347,1355.0680762746347,0.9997700351134426,0.0010174630396905314
1355.0750207732556,1355.0750207732556,0.9990758164226191,0.0010176252724331905
1355.0819652717832,1355.0819652717832,1.0010455551971245,0.0010177544848329798
1355.0889097700315,1355.0889097700315,1.0002479955293127,0.0010177229760362067
1355.09585426828,1355.09585426828,1.0001874226838967,0.0010177573801916386
1355.102798766249,1355.102798766249,1.0002281418819106,0.0010179668887687922
1355.109743264218,1355.109743264218,0.9995935358247824,0.001017641703176501
1355.116687762001,1355.116687762001,1.0017443890456366,0.0010182851656210298
1355.1236322597838,1355.1236322597838,0.9996512348650827,0.0010175421527505051
1355.13057675738,1355.13057675738,1.0005309673429255,0.001017744545094435
1355.1375212547903,1355.1375212547903,0.9988146377517465,0.0010173725846301927
1355.144465752107,1355.144465752107,0.9998417434043038,0.0010179174769568277
1355.1514102493315,1355.1514102493315,0.9994300686428612,0.0010179829160013201
1355.158354746369,1355.158354746369,1.0012198960936878,0.0010184050809343716
1355.1652992434065,1355.1652992434065,1.000767483982875,0.001017974386341749
1355.1722437402582,1355.1722437402582,0.999466354608481,0.0010177070905282456
1355.179188236923,1355.179188236923,1.0004532884408563,0.0010180925632008162
1355.186132733495,1355.186132733495,1.0008719149018872,0.001018327251873345
1355.1930772300673,1355.1930772300673,0.9989463536143784,0.0010179005046210272
1355.2000217265459,1355.2000217265459,0.9994230397980406,0.0010179520681251944
1355.2069662228387,1355.2069662228387,0.999963511773554,0.0010183067618720117
1355.2139107186654,1355.2139107186654,0.999275086330216,0.0010181276240302365
1355.2208552148652,1355.2208552148652,1.000230246978977,0.0010181151202322616
1355.2277997107853,1355.2277997107853,1.0004963072885042,0.0010188087154934212
1355.234744206519,1355.234744206519,1.000489325749695,0.0010188411552573588
1355.241688702253,1355.241688702253,0.9992388222882441,0.0010180975423203045
1355.2486331978002,1355.2486331978002,0.9999266494732151,0.0010179878308917748
1355.2555776931617,1355.2555776931617,1.0010012664242416,0.001018020397142099
1355.2625221885232,1355.2625221885232,0.9993529613394918,0.0010176208988054718
1355.269466683791,1355.269466683791,1.0003162116362008,0.001018325210599315
1355.2764111788729,1355.2764111788729,1.0003477559715972,0.001018414891824144
1355.2833556738615,1355.2833556738615,1.0004334173374734,0.0010178632561646174
1355.2903001687573,1355.2903001687573,0.9995004798785943,0.0010179217643117573
1355.297244663467,1355.297244663467,1.000008469580006,0.0010176974632214596
1355.304189158176,1355.304189158176,0.9988202988824003,0.0010176661393945501
1355.3111336526993,1355.3111336526993,0.9994902827656439,0.0010178587374902028
1355.3180781472224,1355.3180781472224,1.000913313390753,0.0010183853681376325
1355.3250226415591,1355.3250226415591,0.9994142114535578,0.0010178196939918658
1355.3319671356167,1355.3319671356167,1.0006508057502916,0.001018362896493822
1355.339744969229,1355.339744969229,1.0018084729154588,0.0010187625894619425
1355.347245022804,1355.347245022804,1.0006177203520834,0.001018354753938167
1355.3541895164885,1355.3541895164885,0.9995215682885735,0.001018283117391149
1355.3611340102668,1355.3611340102668,0.9985438209009736,0.0010176021200603428
1355.368078503952,1355.368078503952,0.9990835238718903,0.0010182123474106047
1355.3750229974503,1355.3750229974503,1.000245857012959,0.0010183821146646144
1355.381967490949,1355.381967490949,1.0003338797444046,0.0010181552378326852
1355.3889119842613,1355.3889119842613,0.9984040869368137,0.0010175783459814218
1355.3958564774805,1355.3958564774805,1.0000726924761558,0.0010179554975179614
1355.4039120894547,1355.4039120894547,1.0018822933327494,0.0010185785424659595
1355.411134362246,1355.411134362246,0.9996724282981864,0.001018063676083262
1355.418078855093,1355.418078855093,0.9990592452856053,0.0010176066004058616
1355.4250233478465,1355.4250233478465,1.0018470422647103,0.0010183142477402304
1355.4319678406002,1355.4319678406002,0.9991268466999615,0.0010175784968825313
1355.4389123331678,1355.4389123331678,1.0013878524663444,0.0010182203039716723
1355.4458568256418,1355.4458568256418,0.9995843317213323,0.0010175185981256259
1355.452801318023,1355.452801318023,0.9994527325105347,0.0010176484515191807
1355.4597458103108,1355.4597458103108,1.0001530228234092,0.0010179576847326101
1355.4666903025054,1355.4666903025054,0.9977217285066201,0.0010175900617720196
1355.4736347946075,1355.4736347946075,1.0017326907132647,0.0010187794622521682
1355.4805792864297,1355.4805792864297,0.9995393118872119,0.001017972283169066
1355.4875237785313,1355.4875237785313,1.0010984829111969,0.0010185036114474333
1355.4944682701673,1355.4944682701673,0.9998326262403323,0.0010181587595858147
1355.5014127618033,1355.5014127618033,1.0009751904399693,0.0010186209587142376
1355.508357253439,1355.508357253439,0.9989688846086434,0.0010176997641917144
1355.5153017448888,1355.5153017448888,0.9989494590176239,0.0010177259164400813
1355.5222462362458,1355.5222462362458,0.999854039215186,0.0010179493318089252
1355.5291907274157,1355.5291907274157,1.000070404681022,0.0010180292032909133
1355.5361352186792,1355.5361352186792,0.999523727898292,0.0010176328878512195
1355.5430797096637,1355.5430797096637,1.001096420650866,0.0010179980448347633
1355.5500242006476,1355.5500242006476,1.0011953651094516,0.001018463102442458
1355.5569686914455,1355.5569686914455,0.9992443080888362,0.0010177695701885565
1355.5639131823364,1355.5639131823364,0.9997676272010612,0.001017831002934629
1355.5708576729476,1355.5708576729476,0.9998849108117888,0.001017975829863309
1355.5778021635592,1355.5778021635592,0.9998581137872871,0.0010181079220768431
1355.5847466540777,1355.5847466540777,1.0000376191237486,0.0010181502310047774
1355.5916911443169,1355.5916911443169,1.001122661323356,0.0010184624545718098
1355.598635634649,1355.598635634649,0.9997902463638697,0.001018440045528732
1355.6055801248879,1355.6055801248879,1.0009975114741818,0.0010185222672908548
1355.6125246149409,1355.6125246149409,0.9994479285669758,0.001018364449228897
1355.6194691049004,1355.6194691049004,0.9981838692840517,0.0010181145363183182
1355.6264135947667,1355.6264135947667,0.9985611184984868,0.001018113055479852
1355.6333580846335,1355.6333580846335,1.0001025300543687,0.0010184072157435702
1355.6403025743136,1355.6403025743136,1.0016407306914779,0.0010189548293018775
1355.6472470638073,1355.6472470638073,1.0002780438164822,0.0010186211522156894
1355.654191553581,1355.654191553581,1.0006466524877755,0.0010187385199939317
1355.6611360428888,1355.6611360428888,1.0003175572585457,0.0010182993825588811
1355.6680805321962,1355.6680805321962,0.9999193490013546,0.0010181117846875323
1355.6750250215043,1355.6750250215043,0.9990972425166609,0.0010183581242077895
1355.6819695105323,1355.6819695105323,1.0000696532595101,0.0010181403374386303
1355.688913999654,1355.688913999654,0.9995229557382921,0.001018236177063044
1355.695858488496,1355.695858488496,1.0009937979315167,0.0010184513968795644
1355.702802977431,1355.702802977431,0.9998636291821829,0.0010183487116794234
1355.709747466087,1355.709747466087,0.9987180398767654,0.0010178731843666319
1355.7166919548358,1355.7166919548358,1.0008492179930315,0.0010185692673453641
1355.7236364433984,1355.7236364433984,0.9992619934444388,0.001017953927448588
1355.7305809318682,1355.7305809318682,0.9997560628315858,0.0010182614550028556
1355.7375254202445,1355.7375254202445,1.0005925858188924,0.0010181743307513106
1355.7444699086209,1355.7444699086209,1.0008074137117806,0.0010186429543768566
1355.752803294393,1355.752803294393,1.0004769732076348,0.0010185142971240128
1355.759747782583,1355.759747782583,1.000368085570724,0.0010182410743677084
1355.7666922704939,1355.7666922704939,1.0004538650296986,0.00101843183158644
1355.7736367584046,1355.7736367584046,0.9988004356004743,0.0010180063421738842
1355.7805812462218,1355.7805812462218,0.9996629089637243,0.001018414131389053
1355.7875257340397,1355.7875257340397,0.99917588092085,0.0010183287383331674
1355.794470221578,1355.794470221578,0.9998135525484286,0.001018585408012796
1355.8014147092094,1355.8014147092094,0.9989622344663391,0.0010182757562526624
1355.8083591966545,1355.8083591966545,1.0006171988840165,0.0010189421696881957
1355.8153036840995,1355.8153036840995,1.0022816499554335,0.0010192665369884392
1355.8222481713585,1355.8222481713585,0.9997782722072494,0.0010186451701184773
1355.8291926585239,1355.8291926585239,1.0001993497279291,0.00101892536360697
1355.836137145503,1355.836137145503,0.9994276252090692,0.0010185497158424297
1355.843081632483,1355.843081632483,0.999741180578047,0.001019042953809348
1355.850026119462,1355.850026119462,0.9994832382576719,0.0010188698447536136
1355.8569706064416,1355.8569706064416,0.9997350462218975,0.0010189330402947364
1355.8639150931417,1355.8639150931417,1.0016844980123008,0.0010195506232271324
1355.8708595798414,1355.8708595798414,0.9978936911879467,0.001018615105396051
1355.8778040664486,1355.8778040664486,0.9993297693834615,0.0010187775914882262
1355.8847485528693,1355.8847485528693,0.9989918020494761,0.001019008405192285
1355.8916930392895,1355.8916930392895,1.0011006056788063,0.0010192651111870976
