time,time,flux,flux_err
1517.3486114145473,1517.3486114145473,,
1517.3500003347515,1517.3500003347515,,
1517.3513892550725,1517.3513892550725,,
1517.3527781752757,1517.3527781752757,,
1517.355556015915,1517.355556015915,,
1517.356944936236,1517.356944936236,,
1517.358333856556,1517.358333856556,,
1517.3597227769926,1517.3597227769926,5444.639,22.580135
1517.361111697313,1517.361111697313,5440.5474,22.517824
1517.3638895381853,1517.3638895381853,5465.243,22.376753
1517.3652784585063,1517.3652784585063,5442.604,22.297585
1517.3666673789428,1517.3666673789428,5444.5835,22.214577
1517.3680562993788,1517.3680562993788,5477.609,22.142563
1517.3708341403697,1517.3708341403697,5410.8,21.995586
1517.3722230608057,1517.3722230608057,5442.4795,21.916302
1517.3736119813586,1517.3736119813586,5422.501,21.863546
1517.3750009019116,1517.3750009019116,5440.3965,21.779879
1517.376389822348,1517.376389822348,5460.753,21.737558
1517.377778742901,1517.377778742901,5432.69,21.63814
1517.379167663454,1517.379167663454,5464.851,21.59909
1517.3805565841235,1517.3805565841235,5428.665,21.504704
1517.3819455046757,1517.3819455046757,5412.6597,21.453465
1517.3833344252296,1517.3833344252296,5463.7285,21.379042
1517.3847233458996,1517.3847233458996,5431.24,21.314123
1517.3861122664518,1517.3861122664518,5461.5767,21.250134
1517.3875011871207,1517.3875011871207,5440.0776,21.205755
1517.3888901077908,1517.3888901077908,5422.3926,21.120274
1517.3902790284608,1517.3902790284608,5431.295,21.093637
1517.3916679491297,1517.3916679491297,5454.695,21.003057
1517.393056869799,1517.393056869799,5432.0884,20.95469
1517.3944457905848,1517.3944457905848,5408.5835,20.88358
1517.395834711254,1517.395834711254,5427.985,20.828445
1517.3986125528259,1517.3986125528259,5442.46,20.739582
1517.4000014734954,1517.4000014734954,5401.573,20.65377
1517.4013903942803,1517.4013903942803,5391.0337,20.612295
1517.402779315067,1517.402779315067,5439.422,20.543161
1517.4041682358536,1517.4041682358536,5427.8867,20.529287
1517.4055571567549,1517.4055571567549,5408.082,20.451464
1517.4069460775406,1517.4069460775406,5430.1465,20.38874
1517.4083349984437,1517.4083349984437,5434.99,20.339579
1517.4097239192295,1517.4097239192295,5426.3496,20.291721
1517.4111128401312,1517.4111128401312,5432.1113,20.256182
1517.4125017610334,1517.4125017610334,5431.6616,20.188599
1517.4138906819355,1517.4138906819355,5405.67,20.136488
1517.4152796028377,1517.4152796028377,5435.0127,20.10538
1517.4166685237408,1517.4166685237408,5455.884,20.04517
1517.418057444643,1517.418057444643,5424.565,20.04635
1517.4194463655447,1517.4194463655447,5443.12,19.953003
1517.4208352865624,1517.4208352865624,5424.7188,19.906553
1517.4222242074654,1517.4222242074654,5447.7026,19.88563
1517.423613128485,1517.423613128485,5412.8765,19.840258
1517.4250020495026,1517.4250020495026,5416.0283,19.788273
1517.4263909705214,1517.4263909705214,5461.2646,19.794765
1517.4277798915407,1517.4277798915407,5433.197,19.717405
1517.4291688125593,1517.4291688125593,5410.066,19.669853
1517.4305577335774,1517.4305577335774,5420.914,19.625397
1517.431946654596,1517.431946654596,5414.5635,19.578024
1517.433335575731,1517.433335575731,5426.024,19.5437
1517.4347244967496,1517.4347244967496,5427.204,19.52553
1517.4361134178855,1517.4361134178855,5414.344,19.463245
1517.4375023390205,1517.4375023390205,5452.8286,19.448996
1517.438891260155,1517.438891260155,5425.3804,19.439814
1517.44028018129,1517.44028018129,5431.2544,19.353605
1517.441669102426,1517.441669102426,5415.9814,19.324661
1517.443058023561,1517.443058023561,5438.2866,19.302221
1517.444446944695,1517.444446944695,5412.6514,19.264053
1517.4458358658303,1517.4458358658303,5418.0586,19.239355
1517.4472247870824,1517.4472247870824,5437.708,19.219822
1517.4486137082174,1517.4486137082174,5431.094,19.165125
1517.450002629469,1517.450002629469,5428.1465,19.138737
1517.4513915507207,1517.4513915507207,5445.19,19.109346
1517.4527804719712,1517.4527804719712,5441.6323,19.075596
1517.4541693932226,1517.4541693932226,5455.18,19.08047
1517.455558314475,1517.455558314475,5447.0537,19.04277
1517.4569472357264,1517.4569472357264,5414.0537,18.973694
1517.4583361569773,1517.4583361569773,5405.73,19.00073
1517.4597250782288,1517.4597250782288,5455.7705,18.944029
1517.4611139995975,1517.4611139995975,5437.152,18.897083
1517.462502920849,1517.462502920849,5465.584,18.888378
1517.463891842216,1517.463891842216,5438.626,18.835562
1517.4652807635841,1517.4652807635841,5425.1416,18.877861
1517.4666696849524,1517.4666696849524,5448.5996,18.78693
1517.4680586062038,1517.4680586062038,5454.177,18.781355
1517.469447527572,1517.469447527572,5446.7227,18.746168
1517.4708364490564,1517.4708364490564,5411.7783,18.7068
1517.4722253704233,1517.4722253704233,5456.2534,18.674982
1517.473614291792,1517.473614291792,5430.6294,18.661228
1517.4750032131608,1517.4750032131608,5426.9033,18.634537
1517.4763921346441,1517.4763921346441,5444.13,18.60843
1517.477781056128,1517.477781056128,5455.0845,18.59241
1517.4791699774958,1517.4791699774958,5442.172,18.577747
1517.480558898981,1517.480558898981,5425.99,18.535763
1517.4819478204652,1517.4819478204652,5463.455,18.513735
1517.4833367419494,1517.4833367419494,5469.7134,18.489363
1517.4847256634337,1517.4847256634337,5452.6177,18.493654
1517.486114584918,1517.486114584918,5483.157,18.44775
1517.4875035064024,1517.4875035064024,5434.168,18.432302
1517.4888924278869,1517.4888924278869,5464.2354,18.401615
1517.4902813494875,1517.4902813494875,5470.9565,18.39152
1517.4916702709709,1517.4916702709709,5464.719,18.345692
1517.4930591925724,1517.4930591925724,5462.5347,18.348778
1517.494448114174,1517.494448114174,5474.9287,18.310663
1517.4958370356574,1517.4958370356574,5490.7896,18.311775
1517.4972259572576,1517.4972259572576,5459.5674,18.277504
1517.4986148788582,1517.4986148788582,5471.4126,18.239975
1517.5000038004598,1517.5000038004598,5481.2563,18.221294
1517.5013927220605,1517.5013927220605,5472.814,18.18706
1517.5027816436611,1517.5027816436611,5467.469,18.163134
1517.5041705653782,1517.5041705653782,5485.98,18.153856
1517.5055594869789,1517.5055594869789,5484.4414,18.13585
1517.5069484085805,1517.5069484085805,5462.0835,18.135723
1517.5083373302975,1517.5083373302975,5463.812,18.088835
1517.5097262520142,1517.5097262520142,5441.967,18.084322
1517.5111151736141,1517.5111151736141,5504.4775,18.055687
1517.512504095332,1517.512504095332,5475.4727,18.037516
1517.51389301705,1517.51389301705,5491.986,18.004892
1517.5152819387663,1517.5152819387663,5474.223,17.991173
1517.5166708604836,1517.5166708604836,5508.1753,17.96415
1517.5180597822007,1517.5180597822007,5468.323,17.952154
1517.5194487039178,1517.5194487039178,5478.3633,17.922636
1517.5208376257513,1517.5208376257513,5485.3105,17.918884
1517.5222265474683,1517.5222265474683,5458.574,17.921894
1517.5236154691854,1517.5236154691854,5453.0454,17.846941
1517.5250043910191,1517.5250043910191,5478.433,17.835045
1517.526393312737,1517.526393312737,5503.766,17.836964
1517.5277822345704,1517.5277822345704,5472.4316,17.807228
1517.5291711564034,1517.5291711564034,5475.664,17.820864
1517.5305600782362,1517.5305600782362,5462.5054,17.749178
1517.5319490000704,1517.5319490000704,5472.5137,17.761711
1517.5333379219048,1517.5333379219048,5463.969,17.712067
1517.5347268437376,1517.5347268437376,5486.5933,17.69903
1517.5361157655714,1517.5361157655714,5455.614,17.67961
1517.5375046874049,1517.5375046874049,5477.946,17.679333
1517.5388936093548,1517.5388936093548,5459.236,17.66474
1517.5402825311883,1517.5402825311883,5499.9375,17.634163
1517.5416714530218,1517.5416714530218,5482.4014,17.61496
1517.5430603749717,1517.5430603749717,5482.824,17.598013
1517.5444492969218,1517.5444492969218,5503.2944,17.579784
1517.545838218756,1517.545838218756,5445.68,17.558168
1517.547227140706,1517.547227140706,5505.4307,17.570448
1517.5486160626554,1517.5486160626554,5461.5703,17.534143
1517.5500049846053,1517.5500049846053,5469.703,17.515497
1517.551393906556,1517.551393906556,5487.264,17.49398
1517.552782828506,1517.552782828506,5489.909,17.510092
1517.5541717504555,1517.5541717504555,5488.144,17.463236
1517.5555606725218,1517.5555606725218,5516.4375,17.457458
1517.5569495944717,1517.5569495944717,5490.4946,17.446178
1517.5583385164216,1517.5583385164216,5497.1357,17.406359
1517.5597274384888,1517.5597274384888,5496.2686,17.397264
1517.5611163604387,1517.5611163604387,5475.499,17.425852
1517.5625052825044,1517.5625052825044,5482.2803,17.371246
1517.563894204571,1517.563894204571,5482.203,17.33896
1517.5652831265213,1517.5652831265213,5500.909,17.36538
1517.5666720485879,1517.5666720485879,5522.212,17.320906
1517.5680609706535,1517.5680609706535,5476.0586,17.30999
1517.5694498927198,1517.5694498927198,5498.84,17.294376
1517.570838814787,1517.570838814787,5511.617,17.280077
1517.5722277368534,1517.5722277368534,5483.37,17.260618
1517.5736166589193,1517.5736166589193,5504.214,17.243738
1517.575005581102,1517.575005581102,5481.3667,17.214228
1517.5763945031683,1517.5763945031683,5476.662,17.227951
1517.5777834252347,1517.5777834252347,5473.3916,17.21382
1517.5791723474183,1517.5791723474183,5503.778,17.20111
1517.5805612694846,1517.5805612694846,5496.8765,17.178205
1517.5819501916667,1517.5819501916667,5487.778,17.179665
1517.5833391138501,1517.5833391138501,5480.746,17.200579
1517.5847280359174,1517.5847280359174,5503.342,17.196236
1517.5861169580994,1517.5861169580994,5465.6855,17.189024
1517.5875058802815,1517.5875058802815,5481.8286,17.084528
1517.5888948024642,1517.5888948024642,5491.909,17.088833
1517.5902837246479,1517.5902837246479,5501.289,17.089052
1517.5916726468306,1517.5916726468306,5504.8677,17.072035
1517.5930615690133,1517.5930615690133,5490.9414,17.05655
1517.5944504913125,1517.5944504913125,5500.558,17.039007
1517.5958394134948,1517.5958394134948,5520.6196,17.017563
1517.5972283356775,1517.5972283356775,5499.9087,17.026909
1517.5986172579776,1517.5986172579776,5509.449,17.009241
1517.6000061801603,1517.6000061801603,5492.5913,17.016222
1517.601395102459,1517.601395102459,5501.101,17.000195
1517.6027840246422,1517.6027840246422,5505.3223,16.965965
1517.6041729469423,1517.6041729469423,5508.5728,16.966555
1517.605561869241,1517.605561869241,5489.581,16.943922
1517.6069507915392,1517.6069507915392,5513.9844,16.984297
1517.6083397138384,1517.6083397138384,5505.6274,16.945467
1517.6097286361385,1517.6097286361385,5500.823,16.917091
1517.6111175584376,1517.6111175584376,5518.7676,16.893414
1517.6125064807368,1517.6125064807368,5518.8184,16.907751
1517.6138954030362,1517.6138954030362,5498.6587,16.872671
1517.6152843253346,1517.6152843253346,5504.6797,16.860668
1517.6166732476347,1517.6166732476347,5492.3276,16.841722
1517.618062170051,1517.618062170051,5515.889,16.83681
1517.6194510923494,1517.6194510923494,5548.6445,16.855091
1517.6208400146481,1517.6208400146481,5494.445,16.813362
1517.6222289370642,1517.6222289370642,5517.5703,16.806715
1517.6236178594806,1517.6236178594806,5485.0005,16.80696
1517.6250067817793,1517.6250067817793,5517.9253,16.790554
1517.626395704195,1517.626395704195,5528.0684,16.792284
1517.6277846266105,1517.6277846266105,5511.005,16.810898
1517.629173549026,1517.629173549026,5520.603,16.776114
1517.6305624713252,1517.6305624713252,5506.6914,16.742022
1517.6319513937408,1517.6319513937408,5547.118,16.743402
1517.6333403161566,1517.6333403161566,5509.395,16.757528
1517.6347292385715,1517.6347292385715,5513.73,16.760916
1517.6361181611044,1517.6361181611044,5520.7544,16.711998
1517.6375070835206,1517.6375070835206,5521.48,16.7059
1517.6388960059355,1517.6388960059355,5528.444,16.692333
1517.6402849283506,1517.6402849283506,5507.686,16.671581
1517.6416738508833,1517.6416738508833,5528.1196,16.660921
1517.6430627732996,1517.6430627732996,5526.2607,16.689913
1517.644451695831,1517.644451695831,5562.248,16.674864
1517.6458406182467,1517.6458406182467,5511.2764,16.634523
1517.6472295407787,1517.6472295407787,5529.1055,16.637815
1517.6486184631942,1517.6486184631942,5511.414,16.621523
1517.6500073857271,1517.6500073857271,5522.0405,16.618753
1517.651396308259,1517.651396308259,5548.606,16.62576
1517.6527852307906,1517.6527852307906,5515.979,16.60346
1517.6541741533217,1517.6541741533217,5519.177,16.607868
1517.6555630758546,1517.6555630758546,5528.2144,16.605043
1517.6569519983875,1517.6569519983875,5531.58,16.565748
1517.6583409209186,1517.6583409209186,5559.4014,16.58373
1517.6597298434506,1517.6597298434506,5519.0728,16.540525
1517.6611187659835,1517.6611187659835,5526.7085,16.532373
1517.6625076885155,1517.6625076885155,5522.4697,16.51393
1517.663896611047,1517.663896611047,5503.85,16.515024
1517.6652855336954,1517.6652855336954,5520.925,16.507984
1517.6666744562274,1517.6666744562274,5548.7236,16.518522
1517.6680633787594,1517.6680633787594,5541.577,16.511398
1517.6694523014087,1517.6694523014087,5547.706,16.493286
1517.670841224057,1517.670841224057,5542.2256,16.479118
1517.6722301465886,1517.6722301465886,5560.594,16.49596
1517.673619069236,1517.673619069236,5523.8013,16.469164
1517.6750079918854,1517.6750079918854,5528.8647,16.469763
1517.6763969144183,1517.6763969144183,5540.104,16.452454
1517.6777858370658,1517.6777858370658,5583.6304,16.435858
1517.6791747597144,1517.6791747597144,5558.486,16.407656
1517.6805636823635,1517.6805636823635,5538.181,16.396278
1517.681952605012,1517.681952605012,5558.3896,16.43243
1517.6833415276599,1517.6833415276599,5540.052,16.386156
1517.6847304503083,1517.6847304503083,5546.5806,16.364386
1517.6861193729567,1517.6861193729567,5553.4473,16.371181
1517.687508295605,1517.687508295605,5545.187,16.36494
1517.6888972183708,1517.6888972183708,5560.783,16.341764
1517.6902861410192,1517.6902861410192,5535.033,16.330784
1517.6916750636672,1517.6916750636672,5540.699,16.318855
1517.693063986432,1517.693063986432,5568.3916,16.316647
1517.6944529090813,1517.6944529090813,5527.3516,16.300243
1517.6958418317297,1517.6958418317297,5539.498,16.286499
1517.6972307544936,1517.6972307544936,5548.6714,16.27671
1517.6986196772586,1517.6986196772586,5591.7935,16.288395
1517.7000085999077,1517.7000085999077,5533.836,16.245394
1517.7013975226726,1517.7013975226726,5552.325,16.249432
1517.7027864454376,1517.7027864454376,5528.0024,16.232367
1517.7041753680862,1517.7041753680862,5567.331,16.23719
1517.7055642908501,1517.7055642908501,5547.4956,16.204573
1517.706953213615,1517.706953213615,5545.436,16.204489
1517.7083421363807,1517.7083421363807,5529.248,16.185211
1517.7097310591455,1517.7097310591455,5553.4526,16.196903
1517.7111199819099,1517.7111199819099,5539.472,16.180721
1517.7125089046747,1517.7125089046747,5526.711,16.161072
1517.7138978274404,1517.7138978274404,5557.4106,16.138344
1517.7152867503216,1517.7152867503216,5529.9795,16.135645
1517.7166756730858,1517.7166756730858,5546.93,16.129808
1517.7180645958508,1517.7180645958508,5531.883,16.133694
1517.719453518616,1517.719453518616,5542.5063,16.101286
1517.7208424414973,1517.7208424414973,5541.5757,16.106623
1517.7222313642624,1517.7222313642624,5534.677,16.085781
1517.7236202871438,1517.7236202871438,5552.1333,16.141056
1517.7250092099077,1517.7250092099077,5563.764,16.06877
1517.7263981327899,1517.7263981327899,5554.016,16.099327
1517.7277870555556,1517.7277870555556,5555.3096,16.04887
1517.729175978436,1517.729175978436,5548.7954,16.03444
1517.7305649013167,1517.7305649013167,5567.2666,16.07002
1517.7319538240815,1517.7319538240815,5551.0254,16.003616
1517.7333427469637,1517.7333427469637,5560.9014,16.001135
1517.734731669845,1517.734731669845,5556.0503,16.000025
1517.7361205927261,1517.7361205927261,5552.275,15.981516
1517.7375095156074,1517.7375095156074,5571.008,16.038275
1517.7388984384886,1517.7388984384886,5552.613,15.967096
1517.74028736137,1517.74028736137,5536.624,15.990682
1517.7416762842515,1517.7416762842515,5552.416,15.953478
1517.7430652071328,1517.7430652071328,5563.5234,15.92367
1517.744454130013,1517.744454130013,5558.0366,15.913121
1517.7458430528952,1517.7458430528952,5570.282,15.906261
1517.7472319757774,1517.7472319757774,5554.7153,15.92931
1517.748620898774,1517.748620898774,5556.2466,15.913784
1517.7500098216549,1517.7500098216549,5563.008,15.875567
1517.7513987445361,1517.7513987445361,5551.168,15.862766
1517.7527876675347,1517.7527876675347,5562.005,15.891114
1517.754176590416,1517.754176590416,5562.8247,15.861779
1517.7555655134136,1517.7555655134136,5563.444,15.85114
1517.7569544362948,1517.7569544362948,5543.432,15.834644
1517.7583433592924,1517.7583433592924,5546.3975,15.875114
1517.759732282174,1517.759732282174,5530.765,15.800363
1517.7611212051718,1517.7611212051718,5568.3447,15.795794
1517.7625101281694,1517.7625101281694,5546.0654,15.78183
1517.76389905105,1517.76389905105,5567.349,15.794392
1517.7652879740483,1517.7652879740483,5578.5234,15.7943125
1517.7666768970469,1517.7666768970469,5572.7925,15.783117
1517.7680658200438,1517.7680658200438,5572.6455,15.744668
1517.7694547430417,1517.7694547430417,5546.973,15.730829
1517.7708436660394,1517.7708436660394,5561.8423,15.732153
1517.772232589037,1517.772232589037,5583.4434,15.730933
1517.7736215120347,1517.7736215120347,5558.5693,15.701013
1517.7750104350323,1517.7750104350323,5581.8887,15.760623
1517.77639935803,1517.77639935803,5572.247,15.686349
1517.7777882810278,1517.7777882810278,5573.8076,15.670525
1517.7791772040262,1517.7791772040262,5549.9834,15.661952
1517.7805661270238,1517.7805661270238,5571.4697,15.673802
1517.7819550501374,1517.7819550501374,5562.0757,15.638495
1517.7833439731344,1517.7833439731344,5556.792,15.619708
1517.7847328961327,1517.7847328961327,5573.216,15.633288
1517.7861218192477,1517.7861218192477,5578.366,15.635637
1517.7875107422446,1517.7875107422446,5551.6987,15.607603
1517.788899665359,1517.788899665359,5597.7344,15.656476
1517.7902885883566,1517.7902885883566,5591.9214,15.612503
1517.7916775114707,1517.7916775114707,5572.6396,15.582961
1517.7930664344683,1517.7930664344683,5564.637,15.597108
1517.7944553575824,1517.7944553575824,5572.8994,15.55381
1517.79584428058,1517.79584428058,5588.587,15.566264
1517.7972332036943,1517.7972332036943,5579.434,15.593594
1517.798622126809,1517.798622126809,5587.821,15.569464
1517.8000110499231,1517.8000110499231,5548.581,15.544165
1517.8013999729203,1517.8013999729203,5571.247,15.557449
1517.802788896034,1517.802788896034,5565.0376,15.5093
1517.8041778191484,1517.8041778191484,5535.934,15.505206
1517.8055667422634,1517.8055667422634,5575.0933,15.494292
1517.806955665377,1517.806955665377,5573.0234,15.489731
1517.808344588491,1517.808344588491,5583.0938,15.488683
1517.8097335116051,1517.8097335116051,5589.2466,15.494097
1517.8111224347192,1517.8111224347192,5579.665,15.455987
1517.8125113578342,1517.8125113578342,5550.9995,15.440623
1517.8139002809482,1517.8139002809482,5585.1924,15.455528
1517.8152892040616,1517.8152892040616,5573.2935,15.443842
1517.8166781272923,1517.8166781272923,5554.97,15.4996605
1517.8180670504069,1517.8180670504069,5578.4146,15.424844
1517.8194559735211,1517.8194559735211,5569.2974,15.418537
1517.8208448966345,1517.8208448966345,5577.8696,15.414462
1517.822233819865,1517.822233819865,5548.0,15.380817
1517.82362274298,1517.82362274298,5596.8105,15.384773
1517.8250116662105,1517.8250116662105,5571.4478,15.396973
1517.826400589324,1517.826400589324,5550.6587,15.360744
1517.8277895124381,1517.8277895124381,5578.904,15.363358
1517.8291784356686,1517.8291784356686,5586.536,15.367763
1517.830567358899,1517.830567358899,5571.553,15.332528
1517.831956282014,1517.831956282014,5562.0513,15.340864
1517.8333452052445,1517.8333452052445,5586.98,15.325221
1517.834734128358,1517.834734128358,5575.15,15.335192
1517.8361230515886,1517.8361230515886,5569.776,15.315972
1517.8375119748196,1517.8375119748196,5559.641,15.298669
1517.8389008980503,1517.8389008980503,5582.2227,15.290413
1517.8402898211637,1517.8402898211637,5569.84,15.310818
1517.8416787443941,1517.8416787443941,5572.105,15.296885
1517.8430676676255,1517.8430676676255,5558.004,15.295903
