time,time,flux,flux_err
1325.298554105945,1325.298554105945,0.9994498653818756,0.00043752231688573014
1325.3068872712968,1325.3068872712968,1.0003852579291233,0.0004377978284550673
1325.315220437027,1325.315220437027,1.0004325147268116,0.0004379710615428428
1325.3235536031061,1325.3235536031061,0.9995168453285294,0.00043795827135538967
1325.3311923389838,1325.3311923389838,1.0003190055454245,0.0003999865635649472
1325.3381366445767,1325.3381366445767,1.0004410117304796,0.00040018115818479555
1325.345080950426,1325.345080950426,0.9991962871147354,0.0004001742437080041
1325.3520252564845,1325.3520252564845,1.0004549154737548,0.00040045594152631153
1325.3589695628107,1325.3589695628107,1.000022373323328,0.00040057650938053773
1325.3659138693467,1325.3659138693467,1.0004163998838564,0.0004009001691596376
1325.372858176115,1325.372858176115,1.000005124717599,0.00040091826393755985
1325.379802483117,1325.379802483117,1.000150942011237,0.0004011424308950096
1325.3867467903744,1325.3867467903744,0.9996026008354566,0.00040132616070433214
1325.3936910978296,1325.3936910978296,1.0000199549402953,0.00040165952817184086
1325.4006354055068,1325.4006354055068,0.9994231022508815,0.0004017911867614971
1325.4075797134278,1325.4075797134278,1.0000866132766424,0.00040203993629478013
1325.4145240215587,1325.4145240215587,0.999704461998423,0.00040226049672168395
1325.4214683298987,1325.4214683298987,1.0003637259066716,0.0004025591396023784
1325.4284126384603,1325.4284126384603,1.0007715006268902,0.0004028058420287737
1325.4353569472546,1325.4353569472546,1.000122308282227,0.0004029330932999787
1325.4423012562468,1325.4423012562468,0.9995054712983518,0.000403034273246635
1325.4492455654602,1325.4492455654602,0.9997044491038578,0.00040328286794224995
1325.4561898748598,1325.4561898748598,0.9995311039055037,0.0004035181762036681
1325.4631341844806,1325.4631341844806,0.9998465616461163,0.0004038230050106158
1325.4700784942993,1325.4700784942993,1.0004004148930696,0.00040414981547397976
1325.4770228043396,1325.4770228043396,1.000256916883743,0.0004044238493509888
1325.4839671145655,1325.4839671145655,1.0006561897019794,0.00040479885750962195
1325.4909114250133,1325.4909114250133,1.0001310744035776,0.0004049293551408365
1325.4978557356467,1325.4978557356467,0.9998322837245581,0.00040518172003573395
1325.504800046455,1325.504800046455,0.9996907829454635,0.00040540540558506674
1325.5117443574845,1325.5117443574845,0.9999056373914617,0.00040571321858103867
1325.5186886687002,1325.5186886687002,0.9996600356740035,0.0004059424140943501
1325.5256329800907,1325.5256329800907,1.0002240178209085,0.0004063271670835997
1325.5325772917022,1325.5325772917022,1.000006417475828,0.0004065715240404477
1325.5395216034647,1325.5395216034647,0.9999526868861522,0.0004068736366156985
1325.5464659154495,1325.5464659154495,1.0001326130383155,0.00040706870185391674
1325.5534102275963,1325.5534102275963,1.0003681994865752,0.00040733399275319466
1325.56035453993,1325.56035453993,0.9997874647081322,0.00040745367745200135
1325.5672988524377,1325.5672988524377,0.9995377544359141,0.00040763528063896253
1325.574243165132,1325.574243165132,1.0001001756593177,0.000407958326749478
1325.5811874780009,1325.5811874780009,1.0001102602371197,0.00040800383479504536
1325.588131791044,1325.588131791044,0.9999148042799236,0.00040820067925330703
1325.595076104274,1325.595076104274,0.9999341155801513,0.0004083258563873585
1325.6020204176432,1325.6020204176432,1.0005920257282206,0.0004084284915204477
1325.6089647312106,1325.6089647312106,0.99968217850938,0.0004084233222870208
1325.6159090449526,1325.6159090449526,0.9998905975304794,0.0004085287971345343
1325.622853358846,1325.622853358846,0.9994318520861046,0.0004084664227025891
1325.6297976729256,1325.6297976729256,1.0006367394977562,0.0004086677971101983
1325.6367419871333,1325.6367419871333,1.0000287965453396,0.0004085644886462953
1325.6436863015385,1325.6436863015385,0.9999797692071161,0.0004085200373873414
1325.6506306160722,1325.6506306160722,1.0001548680640227,0.000408534944684367
1325.6575749307917,1325.6575749307917,1.0001005208113534,0.0004085295948748932
1325.6645192456517,1325.6645192456517,0.9998679078163164,0.0004085165107183094
1325.6714635606627,1325.6714635606627,0.9998250310806969,0.00040841186435218853
1325.6784078758483,1325.6784078758483,0.9998211634654567,0.00040835666846958575
1325.6853521911848,1325.6853521911848,0.9998726813776889,0.00040847009204316364
1325.6922965066728,1325.6922965066728,1.000656596235844,0.00040864624564687847
1325.6992408223011,1325.6992408223011,1.0005076509273922,0.0004086389465313012
1325.7061851380804,1325.7061851380804,0.9992844860516218,0.0004085256946404103
1325.7131294540109,1325.7131294540109,0.999686094302523,0.00040862738050164647
1325.720073770081,1325.720073770081,1.0003801325114945,0.0004087944721457747
1325.7270180863145,1325.7270180863145,0.9999038216174132,0.0004088730196352538
1325.7339624026874,1325.7339624026874,0.9999577870030668,0.00040893280534554907
1325.7409067191882,1325.7409067191882,0.9995789785045774,0.000408954555898174
1325.7478510358173,1325.7478510358173,1.0000605930327828,0.0004091235140492136
1325.7547953526096,1325.7547953526096,1.0001486011510912,0.00040929469750021686
1325.761739669541,1325.761739669541,1.0001511707861173,0.00040932554704255897
1325.768683986601,1325.768683986601,1.0002873543993542,0.0004094562918323081
1325.7756283038002,1325.7756283038002,0.9996614763664031,0.00040948670980357163
1325.7825726211397,1325.7825726211397,0.9997397303083387,0.00040962272400396334
1325.7895169385836,1325.7895169385836,1.0007716862309237,0.00040981146459376065
1325.7964612561557,1325.7964612561557,1.0005099512299507,0.0004099313152298027
1325.8034055739026,1325.8034055739026,1.0001129327922218,0.0004099950791571546
1325.8103498917537,1325.8103498917537,1.0000414731943894,0.0004100014503198832
1325.8172942097215,1325.8172942097215,1.000046520905961,0.0004100721877843579
1325.8242385278409,1325.8242385278409,0.9993288516796938,0.0004099813639669001
1325.8311828460648,1325.8311828460648,0.9996061056781904,0.00041007989810392715
1325.8381271644284,1325.8381271644284,0.9997344873031583,0.0004100795162357989
1325.8450714828853,1325.8450714828853,0.9999955620079627,0.0004101393016812136
1325.8520158015046,1325.8520158015046,1.0003227241536436,0.0004100927149427486
1325.858960120218,1325.858960120218,1.0007901771872967,0.00041013553028900726
1325.8659044390588,1325.8659044390588,1.0007697205104076,0.00040995723964859005
1325.8728487580047,1325.8728487580047,1.0000772724602556,0.00040977426129305513
1325.8797930770786,1325.8797930770786,1.0001228105695275,0.0004096043393944473
1325.8867373962805,1325.8867373962805,0.9996767551714181,0.0004094955496289828
1325.8936817155868,1325.8936817155868,0.9998649225020451,0.0004093841703118188
1325.9006260349984,1325.9006260349984,0.999780471223378,0.0004092468128195488
1325.9075703545261,1325.9075703545261,0.9999982368335891,0.000409157222309315
1325.9145146741935,1325.9145146741935,0.9992512213960737,0.0004089734391049821
1325.9214589939309,1325.9214589939309,0.999903440967634,0.0004090223382122196
1325.9284033137847,1325.9284033137847,1.0003137795353094,0.00040899369054796383
1325.9353476337549,1325.9353476337549,1.0000559926273955,0.00040892341334513427
1325.9422919538415,1325.9422919538415,1.0006215466013768,0.0004089590790339371
1325.9492362740095,1325.9492362740095,0.999876217758979,0.00040874766619427986
1325.9561805943058,1325.9561805943058,1.000193871671256,0.0004087876427155201
1325.9642360059738,1325.9642360059738,1.0001092100423754,0.00040876842333637507
1325.9714580993252,1325.9714580993252,0.9997526689658327,0.00040855711702187926
1325.978402419924,1325.978402419924,1.0002801995487334,0.00040881762803136835
1325.9853467406508,1325.9853467406508,0.9998261528456014,0.000408760723947252
1325.9922910614825,1325.9922910614825,1.0002542289972518,0.0004088316693252986
1325.999235382396,1325.999235382396,0.9999884616643577,0.00040879813978023734
1326.0061797034018,1326.0061797034018,0.9996979435440476,0.0004089209831280115
1326.0131240245132,1326.0131240245132,0.9995071947760146,0.00040895923608280665
1326.0200683457404,1326.0200683457404,1.0000516434640985,0.00040911896473462247
1326.0270126670496,1326.0270126670496,1.000297882383125,0.0004092724277988904
1326.033956988475,1326.033956988475,0.999227313470359,0.00040908568643209807
1326.0409013099465,1326.0409013099465,1.0004735119908166,0.00040922216405057786
1326.0478456315473,1326.0478456315473,1.0003916117029994,0.00040916939408505964
1326.0547899532164,1326.0547899532164,1.0001905566143763,0.0004091520898079097
1326.0617342750027,1326.0617342750027,0.9998243752279887,0.0004091052388016035
1326.068678596859,1326.068678596859,0.9999635526351242,0.00040912141519491103
1326.0756229188082,1326.0756229188082,1.0000669331956993,0.0004091311437825308
1326.0825672408507,1326.0825672408507,0.9999524999460917,0.0004090945222609527
1326.0895115629862,1326.0895115629862,1.0002687361899294,0.00040917406891832406
1326.0964558852033,1326.0964558852033,1.000840826477503,0.0004092414511096717
1326.1034002075016,1326.1034002075016,0.9995389320959026,0.000409125359654979
1326.1103445298932,1326.1103445298932,1.0000704918874042,0.00040919653047139036
1326.1172888523781,1326.1172888523781,1.0002263023115685,0.0004091713355851703
1326.124233174944,1326.124233174944,1.0001443365379326,0.0004092112302390138
1326.1311774975804,1326.1311774975804,1.0002241281671265,0.00040914959499055247
1326.1381218202978,1326.1381218202978,1.0000492855890666,0.000409129854316984
1326.1450661431088,1326.1450661431088,0.9992750922176974,0.0004090078125398275
1326.1520104660012,1326.1520104660012,1.0006107078793733,0.0004091369182908949
1326.1589547889514,1326.1589547889514,0.999764031497115,0.0004090575653535935
1326.1658991119953,1326.1658991119953,0.9994911643252695,0.00040897820939102703
1326.172843435143,1326.172843435143,0.9995856667035283,0.0004089275290875811
1326.1797877583383,1326.1797877583383,1.0004153304527734,0.0004090684738411102
1326.1867320816143,1326.1867320816143,1.0009189212960306,0.0004090605748773172
1326.1936764049606,1326.1936764049606,1.0000264616001622,0.00040894451895558966
1326.2006207284003,1326.2006207284003,1.0005623657885112,0.00040909751815136
1326.2075650519096,1326.2075650519096,0.9991501391775686,0.0004088547782033328
1326.2145093755116,1326.2145093755116,0.9995635121777673,0.000408897449457723
1326.2214536991492,1326.2214536991492,1.00060438904115,0.00040905729794676654
1326.2283980228792,1326.2283980228792,0.9998204116833411,0.0004088975072041762
1326.2353423466914,1326.2353423466914,0.9998413048022868,0.0004088983414418804
1326.2422866705729,1326.2422866705729,1.00027632687299,0.0004089996611493483
1326.2492309945133,1326.2492309945133,0.9996524725095707,0.00040885515662931495
1326.2561753185225,1326.2561753185225,0.9998368840296102,0.0004088891346791898
1326.2631196426141,1326.2631196426141,0.9996645521036308,0.00040876241956309966
1326.2700639667753,1326.2700639667753,0.9997612235182032,0.0004087784497998566
1326.277008291006,1326.277008291006,1.0001640512815495,0.0004087329902269083
1326.2839526152957,1326.2839526152957,1.0004599571863961,0.0004087535366500609
1326.2908969396776,1326.2908969396776,1.0000080512893548,0.00040875558040820296
1326.297841264095,1326.297841264095,1.0005157205538353,0.00040870306948981696
1326.3047855885936,1326.3047855885936,1.0000768186959799,0.00040861529001920643
1326.3117299131507,1326.3117299131507,1.0006087852244494,0.00040871329691494353
1326.3186742377775,1326.3186742377775,0.9997862716542036,0.0004086097889658559
1326.325618562486,1326.325618562486,1.0000312377561265,0.0004087045376844271
1326.3325628872292,1326.3325628872292,0.9992302485919262,0.0004086165764109463
1326.3395072120538,1326.3395072120538,1.0003840881801433,0.0004089099184985157
1326.3475626289487,1326.3475626289487,1.0000859893226253,0.0004089010032332067
1326.3561735918843,1326.3561735918843,1.0004260376812055,0.00040893968536555536
1326.363117916919,1326.363117916919,0.9997178499915005,0.00040888151930088755
1326.3700622420113,1326.3700622420113,1.000329699628701,0.0004090217866717581
1326.3770065671736,1326.3770065671736,0.9995010123491885,0.0004089387884026161
1326.3839508923938,1326.3839508923938,0.9994391502611937,0.00040894150270096485
1326.3908952176494,1326.3908952176494,1.0006096078483029,0.00040921332068704144
1326.3978395429983,1326.3978395429983,1.0000625561215581,0.00040915008462653473
1326.4047838683814,1326.4047838683814,1.0000826668029075,0.0004091553429897696
1326.4117281938356,1326.4117281938356,0.9998349780334215,0.00040913529745633634
1326.4186725193465,1326.4186725193465,1.0003771266263863,0.0004092385531657996
1326.4256168449047,1326.4256168449047,0.9995802562744821,0.0004091557941380039
1326.4325611705326,1326.4325611705326,1.0003329599004214,0.0004092696606105813
1326.439505496219,1326.439505496219,0.9996198087837922,0.0004092694568627083
1326.44644982194,1326.44644982194,0.9998390672885563,0.00040928846842226317
1326.4533941477425,1326.4533941477425,1.0003083878365437,0.000409389619441684
1326.4603384735801,1326.4603384735801,0.9999884114799183,0.0004093457481732679
1326.4672827994875,1326.4672827994875,0.9995469618023207,0.0004093051186711396
1326.4742271254413,1326.4742271254413,1.0002436592163477,0.0004094783541470283
1326.4811714514422,1326.4811714514422,1.0000901210795652,0.0004094633485133228
1326.4881157775123,1326.4881157775123,1.0005574621222357,0.0004095361198881727
1326.4950601036178,1326.4950601036178,0.9997395555885202,0.00040945251611043253
1326.5020044297808,1326.5020044297808,0.9996378623528267,0.0004094950535490648
1326.5089487560144,1326.5089487560144,1.000399940955714,0.0004096541610899041
1326.515893082271,1326.515893082271,0.9997216971259105,0.0004095618121217434
1326.5228374085978,1326.5228374085978,0.9999942083829358,0.00040972806049492904
1326.5297817349476,1326.5297817349476,1.0000552631749309,0.00040979459093050077
1326.5367260613898,1326.5367260613898,0.9997920485032689,0.0004098154378341304
1326.5436703878565,1326.5436703878565,1.0002053745135684,0.0004099559103057952
1326.5506147143808,1326.5506147143808,0.9998322053382797,0.0004100165594370946
1326.55755904094,1326.55755904094,0.9999131621079215,0.0004100158813316669
1326.564503367569,1326.564503367569,1.000233405197556,0.00041009662179540004
1326.571447694245,1326.571447694245,0.9999649497726881,0.0004100199643136975
1326.5783920209324,1326.5783920209324,1.0006713367719606,0.00041012826541728873
1326.5853363476892,1326.5853363476892,0.999407167738509,0.0004099783011699331
1326.5922806744934,1326.5922806744934,0.9995719228179192,0.0004100072667115222
1326.5992250013553,1326.5992250013553,0.9996333108534661,0.00041002646273849343
1326.6061693282522,1326.6061693282522,1.000666514597565,0.00041019373589567653
1326.6131136551726,1326.6131136551726,1.0002918912513814,0.0004101752022854741
1326.6200579821855,1326.6200579821855,0.9997725581508909,0.00041010508506533777
1326.6270023092225,1326.6270023092225,1.000121712629085,0.00041017570050141125
1326.6339466362936,1326.6339466362936,1.0001286329582222,0.0004101752898039661
1326.6408909634233,1326.6408909634233,1.0002149160433305,0.0004102138446082642
1326.6478352906,1326.6478352906,1.0001382480052217,0.0004101493511113631
1326.6547796177879,1326.6547796177879,0.9996749334576499,0.0004100325049979734
1326.6617239450457,1326.6617239450457,0.9994096448267363,0.0004099555142070066
1326.6686682723498,1326.6686682723498,0.9997478410125307,0.0004099653934105104
1326.675612599701,1326.675612599701,0.9998776068974868,0.00040991154931143683
1326.6825569270636,1326.6825569270636,1.000395246960108,0.0004099010036555855
1326.690890119994,1326.690890119994,1.000436856265439,0.00040983093239808834
1326.6978344474614,1326.6978344474614,1.0004363923732862,0.00040982109906491663
1326.7047787749752,1326.7047787749752,1.0001457394935975,0.00040961533219875754
1326.7125564218418,1326.7125564218418,0.999807870291427,0.0004096208556426044
1326.7200562956527,1326.7200562956527,0.9995864630858167,0.0004094820701365134
1326.7270006232945,1326.7270006232945,0.9998221042030841,0.00040945413252546956
1326.7339449509832,1326.7339449509832,0.9991213772842193,0.00040930900454728915
1326.7408892787068,1326.7408892787068,1.0008157203643788,0.00040950719000974284
1326.7478336064646,1326.7478336064646,1.00032744105259,0.0004095051792164542
1326.754777934258,1326.754777934258,0.9998450543473432,0.00040923578224245856
1326.761722262098,1326.761722262098,1.000104978690336,0.0004092819931129525
1326.7686665899844,1326.7686665899844,1.0000702220871716,0.00040928932484896854
1326.7756109179059,1326.7756109179059,0.9996300744035682,0.00040910773610263715
1326.782555245862,1326.782555245862,1.000269258960716,0.0004092213364860518
1326.7894995738534,1326.7894995738534,0.9998963072210548,0.00040914285192511534
1326.7964439018792,1326.7964439018792,1.0002204346602201,0.00040920131460312273
1326.8033882299526,1326.8033882299526,0.9997352584117174,0.00040922255065325525
1326.8103325580246,1326.8103325580246,1.0000922807082193,0.0004092101309893652
1326.8172768861791,1326.8172768861791,0.9996459789639254,0.0004091903932126474
1326.8242212143564,1326.8242212143564,1.0006278477136334,0.00040926433417267554
1326.831165542569,1326.831165542569,0.9995319953593096,0.0004090653076887266
1326.8381098708046,1326.8381098708046,1.0000016335016044,0.00040917354510839894
1326.8450541990867,1326.8450541990867,0.9994988558656347,0.0004091231830495575
1326.8519985274156,1326.8519985274156,1.0010865288002095,0.0004093186432556063
1326.8589428557564,1326.8589428557564,0.9995582036325956,0.00040901679712744825
1326.865887184132,1326.865887184132,1.0001435408396233,0.0004090900177503941
1326.8728315125422,1326.8728315125422,1.0003187110199905,0.00040900081619690083
1326.8797758410103,1326.8797758410103,0.9995403648660451,0.00040877570617532536
1326.8867201694907,1326.8867201694907,0.9997491961063563,0.0004087309449943952
1326.8936644980172,1326.8936644980172,1.000219980901623,0.00040872899972227585
1326.9006088265676,1326.9006088265676,0.9999590800645585,0.00040852932318898537
1326.907553155152,1326.907553155152,1.0000163393740171,0.0004084633064221104
1326.9144974837604,1326.9144974837604,0.999973210491213,0.0004083054435956472
1326.921441812427,1326.921441812427,1.000353085755394,0.0004081677469482798
1326.9283861410818,1326.9283861410818,0.9997551786792073,0.00040795666738967543
1326.935330469795,1326.935330469795,0.9995522849475537,0.0004077769104297883
1326.9422747985657,1326.9422747985657,1.000037373782884,0.00040766185119430414
1326.9492191273257,1326.9492191273257,1.000611223885031,0.0004076281454446386
1326.9561634561314,1326.9561634561314,0.999848470550653,0.00040742384260373425
1326.9631077849845,1326.9631077849845,0.9996354490076204,0.0004072775799025437
1326.9700521138486,1326.9700521138486,1.0007857272470164,0.00040732278194387266
1326.9769964427478,1326.9769964427478,0.9998675233840709,0.00040703867026737446
1326.9839407716706,1326.9839407716706,0.9999195273423698,0.0004069939957535737
1326.990885100628,1326.990885100628,0.9995075536756675,0.0004069422218514602
1326.9978294296086,1326.9978294296086,0.9996427765308484,0.00040685013098629207
1327.004773758636,1327.004773758636,1.0004794227050582,0.0004069431076842594
1327.0117180876864,1327.0117180876864,0.9990514004482497,0.00040683695875355267
1327.0186624167604,1327.0186624167604,1.0010133397871657,0.00040695080651746376
1327.0256067458693,1327.0256067458693,1.0005924766451892,0.0004069939804097981
1327.0325510749901,1327.0325510749901,1.0002474288446161,0.0004069359439537663
1327.039495404168,1327.039495404168,0.9998757165232977,0.0004068546949335723
1327.0464397333585,1327.0464397333585,0.9999086481246893,0.00040686177292146723
1327.0533840625721,1327.0533840625721,0.9991087268210258,0.000406779025954901
1327.0614394844965,1327.0614394844965,0.9998014613201427,0.0004069430743149533
