time,time,flux,flux_err
1517.3641210248868,1517.3641210248868,1.0006878396493868,0.0020099560461075494
1517.3743064416158,1517.3743064416158,0.998660372660502,0.0019643777249941817
1517.3826399649724,1517.3826399649724,1.0012663982456382,0.0019298037966266693
1517.390973488814,1517.390973488814,0.9997941201730948,0.0018976562112295796
1517.3997236893847,1517.3997236893847,0.9982813586300396,0.0017028982968105174
1517.4069460775645,1517.4069460775645,0.9995064823953884,0.0016807318348127955
1517.4138906819358,1517.4138906819358,1.0009421602872766,0.0016601910817208086
1517.4208352865403,1517.4208352865403,1.000751476766246,0.0016421934507322618
1517.4277798915405,1517.4277798915405,1.0002837731245533,0.0016250446160957065
1517.4347244967964,1517.4347244967964,0.999863870919208,0.001607673119206397
1517.4416691024255,1517.4416691024255,0.9990150503281313,0.0015925715661431646
1517.448613708264,1517.448613708264,0.9999073958214046,0.0015784736338013924
1517.4555583144745,1517.4555583144745,0.9992156465408991,0.0015656769181104431
1517.462502920895,1517.462502920895,1.0004072164407842,0.001552164453281885
1517.4694475276415,1517.4694475276415,0.9993229216277829,0.00153849342844507
1517.4763921346444,1517.4763921346444,0.9980093935686583,0.0015273163540560737
1517.4833367419494,1517.4833367419494,1.0007268525028603,0.0015163472278784543
1517.4902813494639,1517.4902813494639,0.9999619919568181,0.0015059157300649992
1517.4972259572814,1517.4972259572814,1.0020381710269843,0.0014954136266190098
1517.5041705653318,1517.5041705653318,1.001096082791483,0.0014847092173116048
1517.5111151736614,1517.5111151736614,1.000498966088384,0.0014753160685532893
1517.518059782224,1517.518059782224,1.0011670451887,0.001465794637791566
1517.525004390996,1517.525004390996,0.998935381462878,0.0014569254150073314
1517.5319490000704,1517.5319490000704,0.9983591264745707,0.001448107633172316
1517.5388936093082,1517.5388936093082,0.998487865395003,0.0014398892581089782
1517.5458382188021,1517.5458382188021,0.9990578379237414,0.0014324171636421355
1517.552782828529,1517.552782828529,1.0007723860258608,0.0014255972752049585
1517.559727438465,1517.559727438465,1.0002096704788164,0.0014188915712942441
1517.5666720486106,1517.5666720486106,1.001309926376539,0.0014116603102982696
1517.573616658966,1517.573616658966,1.0000310089229782,0.00140447332252878
1517.5805612695308,1517.5805612695308,0.9990459675022729,0.0013997156344661003
1517.587505880282,1517.587505880282,0.9985978338726683,0.0013937195988648944
1517.594450491266,1517.594450491266,1.0006210182057047,0.001385755547149321
1517.6013951024365,1517.6013951024365,1.0001817498490002,0.001381013651916598
1517.6083397138389,1517.6083397138389,1.000231041062751,0.001376041439276739
1517.615284325359,1517.615284325359,0.9997654613976323,0.0013694002934322995
1517.6222289370644,1517.6222289370644,1.0004448925772835,0.0013646704038239833
1517.6291735489795,1517.6291735489795,1.0014617585963328,0.0013602175298707147
1517.6361181610578,1517.6361181610578,0.9999579635889736,0.0013553189065003443
1517.643062773322,1517.643062773322,1.0006165666378009,0.0013493517608332505
1517.65000738575,1517.65000738575,0.9996466207386018,0.0013448223281119353
1517.6569519983866,1517.6569519983866,1.0002253253391535,0.001340822511662552
1517.6638966110936,1517.6638966110936,0.99857018619341,0.0013351930211289798
1517.67084122401,1517.67084122401,1.0013506081890722,0.001332163040251694
1517.6777858370895,1517.6777858370895,1.0021164431058787,0.0013269467945747568
1517.6847304503083,1517.6847304503083,1.0014552905039589,0.001322417801639652
1517.6916750637142,1517.6916750637142,1.0005306449871205,0.0013167237087386367
1517.6986196772127,1517.6986196772127,1.0015755574872685,0.0013122671899337354
1517.7055642908738,1517.7055642908738,0.9995485327978713,0.001307350733156408
1517.7125089046986,1517.7125089046986,0.9988020505525824,0.0013028206833130957
1517.7194535186625,1517.7194535186625,0.9982037821706443,0.0012983658954469092
1517.7263981327665,1517.7263981327665,1.0007365475444383,0.0012954262815435325
1517.7333427469866,1517.7333427469866,1.0008259029446527,0.001289496812284105
1517.74028736137,1517.74028736137,1.0002105619600337,0.0012862826233856134
1517.747231975823,1517.747231975823,1.000670445004959,0.0012802675981496885
1517.754176590439,1517.754176590439,0.9994770160701044,0.0012758280307596185
1517.7611212051713,1517.7611212051713,0.9981213954944733,0.001271115869108245
1517.768065820044,1517.768065820044,1.000288110511243,0.0012662756123314283
1517.7750104350323,1517.7750104350323,1.00118118435274,0.0012619306971441554
1517.781955050091,1517.781955050091,0.9989231782811899,0.0012564618791345928
1517.788899665336,1517.788899665336,1.0016451594369977,0.0012542047944829823
1517.7958442806269,1517.7958442806269,1.0015554580537198,0.0012505942548381374
1517.8027888960578,1517.8027888960578,0.9978052300173184,0.0012459504683275122
1517.8097335116054,1517.8097335116054,1.0003760428731048,0.0012416967226623681
1517.8166781272462,1517.8166781272462,0.9995729398951635,0.0012393295358728337
1517.823622743003,1517.823622743003,0.9988467722497034,0.0012342691051164042
1517.830567358853,1517.830567358853,1.0001879730843743,0.0012307617572784777
1517.837511974796,1517.837511974796,0.9990891061900286,0.001227841002143369
1517.8444565908558,1517.8444565908558,0.9986842051715076,0.0012252331351416954
1517.8514012070084,1517.8514012070084,1.0011957873189938,0.0012222082774692763
1517.858345823231,1517.858345823231,1.0011637698848506,0.0012202749244998442
1517.8652904395472,1517.8652904395472,1.001242644567874,0.0012166234764482307
1517.8722350559556,1517.8722350559556,1.0003568525706545,0.0012142111049592925
1517.879179672481,1517.879179672481,0.999203396798128,0.0012114373561348504
1517.886124289076,1517.886124289076,0.9980914660059605,0.0012086777287793162
1517.893068905788,1517.893068905788,1.0014241439099067,0.0012073880824582087
1517.9000135225226,1517.9000135225226,0.9980117662520476,0.0012050782632290677
1517.9069581393508,1517.9069581393508,1.0005781475111903,0.0012040494489014637
1517.9139027562717,1517.9139027562717,1.0010532583885738,0.001204121541547552
1517.9208473732858,1517.9208473732858,1.0009452089297497,0.0012020827355578919
1517.9277919903466,1517.9277919903466,0.9988235765700955,0.0011997079599897805
1517.9347366075003,1517.9347366075003,1.0005134350872282,0.0011974449360985175
1517.942514578779,1517.942514578779,0.9994650994185589,0.001195527354217621
1517.9500147654583,1517.9500147654583,0.9997920138868231,0.0011945446016298346
1517.9569593828446,1517.9569593828446,0.9983767202549034,0.0011923642935674607
1517.963904000278,1517.963904000278,0.999289560570325,0.001191686933149182
1517.970848617805,1517.970848617805,1.0029587611058055,0.0011911402949308302
1517.977793235401,1517.977793235401,1.0026043419041737,0.0011894925866282784
1517.9847378530208,1517.9847378530208,0.999541812327805,0.0011888111245328165
1517.9916824707102,1517.9916824707102,0.9995495173620312,0.0011880815025992063
1517.9986270884924,1517.9986270884924,1.0013908073239821,0.0011874429155808571
1518.0055717063217,1518.0055717063217,0.9992219200727603,0.0011844733040092322
1518.0125163242208,1518.0125163242208,0.9987910675065802,0.0011842465676372717
1518.0194609421428,1518.0194609421428,1.00161070128877,0.0011838558180574394
1518.0264055601585,1518.0264055601585,1.000331960956899,0.0011827616054093338
1518.033350178197,1518.033350178197,0.9993710179902164,0.0011817145860818453
1518.0402947963057,1518.0402947963057,1.000026978579867,0.0011822786585161003
1518.0472394144376,1518.0472394144376,0.9998036562972107,0.001181913595507734
1518.0541840326857,1518.0541840326857,0.9984211333999697,0.0011809275021048525
1518.0611286509572,1518.0611286509572,0.9979059151533096,0.0011788770365333307
1518.068073269252,1518.068073269252,1.0001790946781872,0.0011781916622684732
1518.0750178876165,1518.0750178876165,1.0003854591200165,0.0011788592107128285
1518.0819625060046,1518.0819625060046,1.0009737475141784,0.0011771795651794753
1518.0889071244856,1518.0889071244856,1.0026837121042607,0.0011768628074550838
1518.0958517429667,1518.0958517429667,1.0004838347187917,0.0011756959313787077
1518.1027963614943,1518.1027963614943,1.0008297040521295,0.001175563463240798
1518.1097409800684,1518.1097409800684,0.9994537913677363,0.0011749759629096322
1518.1166855986892,1518.1166855986892,1.000266055051147,0.0011765124075625473
1518.1236302173568,1518.1236302173568,0.9982456809554033,0.001173148907623784
1518.1305748360705,1518.1305748360705,0.9984448103029034,0.0011720102030683623
1518.1375194548077,1518.1375194548077,0.9992080511978984,0.0011722736726997745
1518.1444640735913,1518.1444640735913,0.9997427247833468,0.0011712613382556475
1518.1514086923985,1518.1514086923985,1.0011045527855313,0.0011720420645513763
1518.1583533112753,1518.1583533112753,1.0006065956711532,0.0011707874461916895
1518.165297930152,1518.165297930152,1.0008591909833549,0.0011709216572081637
1518.1722425490757,1518.1722425490757,1.000490811137697,0.0011691997113415168
1518.1791871680225,1518.1791871680225,0.9998852322286698,0.001169553742298298
1518.1861317870157,1518.1861317870157,0.9987679652550362,0.001169195556887027
1518.1930764060091,1518.1930764060091,0.9999483830291227,0.0011670318223898101
1518.2000210250721,1518.2000210250721,1.0006818563034257,0.0011705678412275585
1518.2069656441352,1518.2069656441352,0.9987245204017061,0.0011665922060143147
1518.2139102632918,1518.2139102632918,1.0010748020254367,0.0011672704467054677
1518.220854882401,1518.220854882401,1.0004289259999215,0.0011674778893048159
1518.2277995015806,1518.2277995015806,1.0003971099772235,0.0011669599458971674
1518.2347441207605,1518.2347441207605,0.9988656460199264,0.0011673528126800385
1518.2416887399863,1518.2416887399863,0.9981989257241517,0.0011663548761061328
1518.2486333592126,1518.2486333592126,1.0026620589517736,0.001166810794589251
1518.2555779784852,1518.2555779784852,1.001050224057406,0.0011656989581361106
1518.262522597781,1518.262522597781,0.9986955123647767,0.001166157733109793
1518.2708561409368,1518.2708561409368,0.9990735927988549,0.001165379555920563
1518.2778007603024,1518.2778007603024,0.9997586046423003,0.0011669897519904695
1518.2847453796444,1518.2847453796444,1.0094450402039086,0.0011678956062145013
1518.2916899990341,1518.2916899990341,1.0044107233661974,0.0011679386797794366
1518.2986346184462,1518.2986346184462,1.0021587938236913,0.0011669544076492783
1518.3055792378586,1518.3055792378586,1.000461942759955,0.001165514732623303
1518.313634996414,1518.313634996414,0.9987142820171744,0.001166789481360616
1518.320857400659,1518.320857400659,0.9984804353170228,0.0011658466399153927
1518.3278020201415,1518.3278020201415,1.0001281666617352,0.0011662375267065136
1518.3347466396235,1518.3347466396235,0.9997132060910344,0.0011667335346232694
1518.3416912591522,1518.3416912591522,0.9980662913021746,0.0011665395672203034
1518.3486358786813,1518.3486358786813,1.0004173496187767,0.0011687204985812668
1518.3555804982332,1518.3555804982332,1.0006390994978722,0.001166685991986079
1518.362525117785,1518.362525117785,1.0006375228452775,0.0011671933176709173
1518.3694697373373,1518.3694697373373,0.9996766050447258,0.00116732641819795
1518.3764143569592,1518.3764143569592,1.0003263176768074,0.001168271837604466
1518.3833589765113,1518.3833589765113,1.0009725903360356,0.001166556540497694
1518.3903035961332,1518.3903035961332,0.9995742226291707,0.0011675295104381094
1518.3972482157783,1518.3972482157783,0.9995824364066849,0.0011689395191464057
1518.4041928354236,1518.4041928354236,0.9996962412271791,0.0011660907602087894
1518.4116930246407,1518.4116930246407,1.000511488393085,0.0011668954410246949
1518.4194709986432,1518.4194709986432,0.9996228255945573,0.0011672979430045023
1518.4264156182885,1518.4264156182885,1.0009339496612149,0.0011667867310141593
1518.4333602379334,1518.4333602379334,0.9999594654746297,0.0011666231203274569
1518.4403048576253,1518.4403048576253,0.998730506173826,0.0011668853140074343
1518.4472494773404,1518.4472494773404,1.0007141529611479,0.0011691286363243003
1518.4541940969855,1518.4541940969855,0.9999204107332815,0.0011702849404472396
1518.4622498558906,1518.4622498558906,0.9988881816920676,0.0011656155702898887
1518.4694722603679,1518.4694722603679,1.0001502289690396,0.0011661123935357005
1518.4764168800832,1518.4764168800832,1.000281400117458,0.001168803195007124
1518.483361499822,1518.483361499822,1.0007535621550065,0.0011682537304697539
1518.4903061195364,1518.4903061195364,0.999360295479895,0.0011671847186858183
1518.4972507392747,1518.4972507392747,1.0005344762237396,0.0011673360095049742
1518.5041953590132,1518.5041953590132,1.0009482300246124,0.0011664168277918051
1518.5111399787515,1518.5111399787515,1.0008430221233269,0.0011685131700546257
1518.5180845984898,1518.5180845984898,0.9990460683159288,0.0011666848428461669
1518.5250292182284,1518.5250292182284,0.9994684244808312,0.001168595205130191
1518.5319738379899,1518.5319738379899,0.998792468697952,0.0011662039672278692
1518.538918457728,1518.538918457728,0.9997681599686373,0.0011687516193250205
1518.5458630774897,1518.5458630774897,1.0003409313286293,0.0011690104076098181
1518.5528076972282,1518.5528076972282,1.000387003785906,0.0011666551665353152
1518.5597523169902,1518.5597523169902,1.0001231067786855,0.0011671630664359894
1518.5666969367514,1518.5666969367514,0.9997794907349895,0.0011676431603582472
1518.57364155649,1518.57364155649,1.0013780823462912,0.0011668294445766343
1518.5805861762517,1518.5805861762517,1.0007222638843136,0.0011682341932689193
1518.587530796013,1518.587530796013,0.9989495281188094,0.001167426160895305
1518.5944754157513,1518.5944754157513,0.9998497354847753,0.0011659861236697233
1518.601420035513,1518.601420035513,0.9997293239551215,0.0011689149005454738
1518.6083646552513,1518.6083646552513,0.9998410124060101,0.001168533448834255
1518.6153092749894,1518.6153092749894,1.000014644329147,0.001166969196635333
1518.622253894728,1518.622253894728,0.9986695694597273,0.0011662951588778986
1518.6291985144896,1518.6291985144896,1.0007279638859807,0.0011660575121894422
1518.636143134228,1518.636143134228,1.0011335194288207,0.0011669765353301055
1518.643087753943,1518.643087753943,0.9996260558891997,0.001165265767175572
1518.6500323736582,1518.6500323736582,1.000515105046746,0.001165162883521326
1518.65697699342,1518.65697699342,0.9981601118610325,0.0011639492348214807
1518.6639216131114,1518.6639216131114,1.0006550191334078,0.0011643294801833006
1518.6708662328267,1518.6708662328267,1.0014251269457142,0.0011640404078628636
1518.677810852565,1518.677810852565,0.9985793490773537,0.0011632706882089964
1518.684755472233,1518.684755472233,1.0002647335961374,0.0011626715068742363
1518.6917000919486,1518.6917000919486,1.0009951816078837,0.0011622548054768308
1518.69864471164,1518.69864471164,0.9992935200617001,0.001161008213693264
1518.7055893312852,1518.7055893312852,0.9991005503937226,0.0011617513253547396
1518.712533951047,1518.712533951047,1.0014453925429656,0.0011595003805750321
1518.7194785706922,1518.7194785706922,0.9988361351914644,0.0011584390539774777
1518.7264231903375,1518.7264231903375,0.9987691618847336,0.0011589447528716956
1518.7333678099826,1518.7333678099826,1.0002556177418573,0.0011591315016427086
1518.7403124296277,1518.7403124296277,1.002108691651471,0.0011582293776366184
1518.7472570492732,1518.7472570492732,1.000372436811775,0.0011575693609512886
1518.7542016689183,1518.7542016689183,1.0003772487847578,0.0011572747800661107
1518.7611462885636,1518.7611462885636,1.000120259399497,0.0011560793918264044
1518.7680909081623,1518.7680909081623,0.9991283410754385,0.001156455512848752
1518.7750355277374,1518.7750355277374,0.9997871164240018,0.0011551061310981349
1518.7819801473827,1518.7819801473827,0.9995208652206509,0.0011544482687190591
1518.7889247669114,1518.7889247669114,0.997805370115828,0.0011529397042702298
1518.79586938651,1518.79586938651,0.9996253659636315,0.0011530730269633655
1518.8028140060856,1518.8028140060856,1.004507709747275,0.0011538519350768888
1518.809758625614,1518.809758625614,1.0026582705984526,0.0011544450429356674
1518.8167032451663,1518.8167032451663,1.000102105571748,0.0011521713990987426
1518.8236478646952,1518.8236478646952,0.999930249854056,0.0011508241183597477
1518.8305924842239,1518.8305924842239,0.9990540784601561,0.001150078862024661
1518.8375371037528,1518.8375371037528,1.0012837111543371,0.0011528524080359646
1518.8444817232353,1518.8444817232353,1.0008215848913928,0.0011507072739923264
1518.851426342717,1518.851426342717,1.0001100289580844,0.001150105797150006
1518.8583709621994,1518.8583709621994,0.9984269355240016,0.0011468969666887387
1518.8653155816585,1518.8653155816585,0.9994416123534136,0.0011479191385213893
1518.8722602010937,1518.8722602010937,1.0003390382301487,0.0011480230661329526
1518.8792048205296,1518.8792048205296,0.9997466887640971,0.0011465613963418373
1518.886149439965,1518.886149439965,0.9991960412250128,0.0011476949712054762
1518.893094059354,1518.893094059354,1.0000056898522507,0.0011455179791969713
1518.9000386787666,1518.9000386787666,1.001205597661716,0.00114516544419041
1518.906983298109,1518.906983298109,1.00141173176135,0.001144741965526509
1518.9139279175215,1518.9139279175215,1.0003911911727636,0.001144647127864985
1518.920872536864,1518.920872536864,0.9985148341012227,0.0011423507890573293
1518.9278171561832,1518.9278171561832,0.9982837278352912,0.0011425355149281757
1518.9347617755257,1518.9347617755257,0.9997173816490734,0.001143381210316237
1518.9417063948217,1518.9417063948217,1.000183556140426,0.0011418049306511405
1518.9486510141176,1518.9486510141176,1.0022443050341345,0.0011425355108293424
1518.9555956333909,1518.9555956333909,1.0002944046980624,0.0011413702236213329
1518.9625402526399,1518.9625402526399,1.0005467369571917,0.0011405649833717223
1518.9694848719125,1518.9694848719125,0.9986921438762841,0.0011400538402013495
1518.9764294911158,1518.9764294911158,0.9995394691724471,0.0011402166236790033
1518.9833741103414,1518.9833741103414,0.9993611281849484,0.0011400034650297236
1518.9903187295442,1518.9903187295442,1.0000070294016141,0.0011386021503506404
1518.997263348724,1518.997263348724,0.9998881984129723,0.0011379157723036793
1519.0042079678801,1519.0042079678801,1.000512348309115,0.0011375598819316345
1519.0111525870593,1519.0111525870593,1.0014434211692758,0.0011370526342666149
1519.018097206146,1519.018097206146,1.0002392317393685,0.001137616767912243
1519.0250418253022,1519.0250418253022,0.9989657377017391,0.0011361285954317047
1519.0319864443652,1519.0319864443652,1.000056575634435,0.0011361616338525144
1519.0389310634287,1519.0389310634287,0.998921754204299,0.001135772859454934
1519.0458756824917,1519.0458756824917,1.0007516709877518,0.0011356887036435485
1519.052820301555,1519.052820301555,0.998877571382032,0.0011342252807354355
1519.0597649206177,1519.0597649206177,1.000628472756687,0.0011353954150398122
1519.0667095395645,1519.0667095395645,0.9997775752392295,0.0011340199782156493
1519.0736541585813,1519.0736541585813,1.0007606718740816,0.001135085248285645
1519.080598777551,1519.080598777551,1.0017054709103967,0.0011339151196249275
1519.087543396498,1519.087543396498,0.9996288226003264,0.0011343207622658532
1519.0944880154211,1519.0944880154211,0.9991336041206076,0.0011324793530824405
1519.1014326343445,1519.1014326343445,1.0001686520721826,0.0011330374241516022
1519.1083772532445,1519.1083772532445,0.9998758613143263,0.0011348532695059455
1519.1153218721215,1519.1153218721215,0.9992679091899674,0.0011323467324187676
1519.122266490975,1519.122266490975,0.999830767250946,0.0011326565411773767
1519.129211109805,1519.129211109805,0.9997931795774392,0.0011338301875931948
1519.1361557286123,1519.1361557286123,0.999716084115063,0.0011316050001096945
1519.1431003474195,1519.1431003474195,1.0001033760332865,0.0011316380350070115
1519.1500449662033,1519.1500449662033,1.0003967203393291,0.0011310468761697528
