time,time,flux,flux_err
1385.9571086987055,1385.9571086987055,0.999599380711942,0.0015653181695866006
1385.965442110557,1385.965442110557,0.9995803627832834,0.0015657347622680551
1385.9730810712567,1385.9730810712567,0.9988709288800482,0.001428635231311547
1385.980025580961,1385.980025580961,0.9999625457431935,0.0014286285092439384
1385.98697009048,1385.98697009048,1.0013965702959537,0.001429352631845533
1385.9939145999986,1385.9939145999986,1.0021489158174528,0.0014294572420034508
1386.0008591093301,1386.0008591093301,1.002386820374968,0.0014295205062216294
1386.0078036186628,1386.0078036186628,0.9976941374519063,0.0014285229313507045
1386.0147481279018,1386.0147481279018,0.9984466974490565,0.001427964504836275
1386.021692636954,1386.021692636954,1.0012747768238133,0.0014301594371132883
1386.0286371460072,1386.0286371460072,1.0000903261044638,0.0014281788275192818
1386.035581654874,1386.035581654874,1.0005055713443867,0.0014293558132065598
1386.04252616374,1386.04252616374,0.9999531492286484,0.0014291182594603773
1386.0494706725135,1386.0494706725135,0.9998945369196305,0.0014289220186153987
1386.056415181101,1386.056415181101,0.9995060521550009,0.0014291491932415905
1386.063359689688,1386.063359689688,0.9969096453184007,0.0014279272612210431
1386.0703041980887,1386.0703041980887,1.0018608059811955,0.0014300197620974214
1386.0772487063969,1386.0772487063969,1.0002708856482516,0.001428339149473507
1386.0841932147973,1386.0841932147973,1.000889751645199,0.0014305259111386322
1386.0911377229186,1386.0911377229186,1.0010477154195674,0.0014301824884798149
1386.0980822311335,1386.0980822311335,1.0000095170208494,0.0014290530350537867
1386.1050267390688,1386.1050267390688,1.0011853197587703,0.0014301763552539738
1386.1119712470033,1386.1119712470033,0.9985473067689258,0.0014290654602596635
1386.118915754846,1386.118915754846,0.9980436021207668,0.0014291603352202156
1386.1258602624089,1386.1258602624089,0.9982004848962693,0.001429141015973135
1386.1328047701572,1386.1328047701572,1.0002910045295619,0.0014303858132343667
1386.13974927772,1386.13974927772,1.001976117933994,0.0014310552806401462
1386.146693785097,1386.146693785097,1.0028329586289038,0.0014314909464147308
1386.1536382924728,1386.1536382924728,0.9970213696444405,0.0014293327929364304
1386.1605827997562,1386.1605827997562,1.0013793058940785,0.0014312416028305032
1386.167527306947,1386.167527306947,1.0003086957827965,0.0014305236630220521
1386.1744718140433,1386.1744718140433,1.0002981601968475,0.001430400011419514
1386.181416321047,1386.181416321047,0.997605910300094,0.0014290657279118662
1386.1883608278652,1386.1883608278652,1.000634637165397,0.0014295251553239712
1386.195305334869,1386.195305334869,1.0009521579506357,0.0014302931366169723
1386.2022498414067,1386.2022498414067,0.9986443202328814,0.0014300765450975825
1386.2091943481319,1386.2091943481319,0.9997791083452776,0.001429449108564587
1386.2161388546701,1386.2161388546701,1.000378200691347,0.0014293558251254842
1386.2230833611145,1386.2230833611145,0.9997128731482692,0.0014284134508075925
1386.23002786756,1386.23002786756,1.0002734241860165,0.001429726913497768
1386.2369723738195,1386.2369723738195,0.9999785640216668,0.0014290633959541561
1386.2439168799842,1386.2439168799842,1.0022005990050906,0.0014297400420858592
1386.2508613860573,1386.2508613860573,0.9995926995491855,0.0014292726097540787
1386.25780589213,1386.25780589213,1.0003981606404906,0.0014291715252758683
1386.2647503980158,1386.2647503980158,1.0000858969399526,0.0014292956972977943
1386.2716949039022,1386.2716949039022,0.9981323329812776,0.0014290163109191788
1386.2786394095094,1386.2786394095094,0.9996647427369592,0.001429151029883518
1386.2855839151164,1386.2855839151164,0.9988814949089454,0.0014294131459872085
1386.2925284207226,1386.2925284207226,1.0027686472390216,0.0014302979004579832
1386.29947292633,1386.29947292633,0.9982730251770844,0.0014301298045118762
1386.3064174315648,1386.3064174315648,0.9989852744906657,0.0014303082757008174
1386.3133619369844,1386.3133619369844,1.0016193165118974,0.0014309049983649736
1386.3203064421261,1386.3203064421261,1.0003275258392141,0.0014305407268652916
1386.3272509471747,1386.3272509471747,1.000466368908359,0.0014306756479705268
1386.3341954522216,1386.3341954522216,1.0002888938178522,0.0014299217385278402
1386.3411399571773,1386.3411399571773,0.9994635355333837,0.0014294680605653489
1386.3480844620397,1386.3480844620397,0.9992070148906004,0.0014300041878734298
1386.355028966808,1386.355028966808,0.9994558779372678,0.0014295925636057662
1386.3619734714835,1386.3619734714835,0.9992661510861979,0.0014292419412104045
1386.3694735363285,1386.3694735363285,0.9991136325300681,0.001429539573609985
1386.3772513813042,1386.3772513813042,1.002335389566449,0.0014294263786160204
1386.3841958857934,1386.3841958857934,1.0010728246312317,0.0014290023066639806
1386.3911403900968,1386.3911403900968,1.0005737335679084,0.001428764533706554
1386.3980848943072,1386.3980848943072,0.9991754709992919,0.0014275197160035049
1386.4050293983298,1386.4050293983298,0.9983715337268901,0.001428401561442984
1386.411973902447,1386.411973902447,1.0009962265005687,0.0014280686239829905
1386.4189184062848,1386.4189184062848,0.9993264459844559,0.0014276063280863171
1386.4258629101214,1386.4258629101214,0.9996167199374522,0.001428501652689722
1386.4328074139592,1386.4328074139592,1.0028299397845575,0.0014290189136806372
1386.439751917611,1386.439751917611,0.9998447569649704,0.001428564492632216
1386.4466964211683,1386.4466964211683,0.9978231307452491,0.0014285384668369318
1386.4536409247262,1386.4536409247262,1.0017838308922138,0.0014306776887328403
1386.460585428005,1386.460585428005,1.000894322492019,0.0014293503919776624
1386.4675299312835,1386.4675299312835,0.9980837306309362,0.001429559919139314
1386.4744744345621,1386.4744744345621,1.0015634725337286,0.0014308565033603368
1386.4814189378408,1386.4814189378408,0.9980291179043075,0.0014294636841088591
1386.4883634407474,1386.4883634407474,0.9981393047421283,0.001429821304119919
1386.4953079437455,1386.4953079437455,1.0023692763422545,0.0014309197539697273
1386.502252446652,1386.502252446652,0.9983230882593187,0.0014300269472158405
1386.5091969493722,1386.5091969493722,1.000619104583058,0.0014299979841568664
1386.516141452092,1386.516141452092,0.9989411099160689,0.0014291225552554815
1386.523085954718,1386.523085954718,0.999867518937422,0.0014292811239022113
1386.5300304572522,1386.5300304572522,1.0008276937323715,0.0014286597861710285
1386.5369749596925,1386.5369749596925,1.0018109295138378,0.0014295229927178252
1386.5439194620394,1386.5439194620394,0.9992016827509529,0.0014283599330346141
1386.550863964201,1386.550863964201,1.0010977579046583,0.0014306889013853345
1386.5578084665485,1386.5578084665485,1.0007833188823452,0.0014300718105880474
1386.5650307486537,1386.5650307486537,1.0002882911449638,0.0014289315841693453
1386.5730863709673,1386.5730863709673,0.9994629980060532,0.0014292374993292317
1386.580030872849,1386.580030872849,0.999651377604731,0.0014295337581736248
1386.5869753746372,1386.5869753746372,0.9983501678200077,0.0014291547086738056
1386.5939198763324,1386.5939198763324,0.9995819708693879,0.0014292648555019752
1386.6008643780283,1386.6008643780283,0.998075052398421,0.0014304290277753397
1386.6078088795373,1386.6078088795373,1.000600774438868,0.0014312107378325648
1386.6147533809524,1386.6147533809524,1.002458998436897,0.0014308234606060038
1386.621697882369,1386.621697882369,1.0025818924887744,0.0014314070016992985
1386.628642383599,1386.628642383599,0.9988982844342246,0.001429595630275752
1386.635586884828,1386.635586884828,1.0029474807908372,0.0014305566794093722
1386.642531385965,1386.642531385965,0.9976403262789979,0.0014286305692354797
1386.6494758869155,1386.6494758869155,1.000586046291663,0.0014293808259628587
1386.6564203878652,1386.6564203878652,0.9962298754546612,0.0014282978551437482
1386.663364888816,1386.663364888816,0.9993029884111119,0.0014276491236049152
1386.6703093893939,1386.6703093893939,1.0011720712916294,0.0014279181493073918
1386.677253890158,1386.677253890158,1.0010877686074444,0.0014289095777409678
1386.684198390735,1386.684198390735,1.0035869737414513,0.0014301442527838053
1386.6911428912201,1386.6911428912201,0.998758517840961,0.0014278998867215853
1386.698087391612,1386.698087391612,1.0007467893962705,0.0014283193666251165
1386.7050318920024,1386.7050318920024,1.000791741734162,0.0014286970455171014
1386.711976392208,1386.711976392208,1.0020110236799677,0.001429104799011855
1386.718920892414,1386.718920892414,0.9967611414326871,0.0014276120345751964
1386.7258653924325,1386.7258653924325,0.997012431630553,0.001428282064849049
1386.7328098923583,1386.7328098923583,1.0002516806426616,0.0014296107578294433
1386.739754392284,1386.739754392284,1.0005143175312499,0.0014301368171105945
1386.7466988922104,1386.7466988922104,1.0006093102451998,0.0014291014422196011
1386.753643391763,1386.753643391763,1.0000211907010608,0.0014305054549056963
1386.760587891503,1386.760587891503,0.9996588090675559,0.0014289255456428032
1386.7675323909639,1386.7675323909639,1.0008063032849133,0.0014298383315733266
1386.7747546704613,1386.7747546704613,0.9993979540085146,0.0014286860693101446
1386.7828102897013,1386.7828102897013,1.0009611529377218,0.0014292628263144265
1386.7897547889756,1386.7897547889756,0.9979132673649748,0.0014279437502442301
1386.796699288156,1386.796699288156,1.0027397933905582,0.001429574109798643
1386.8036437872431,1386.8036437872431,1.0004141703890563,0.0014299079865127474
1386.810588286238,1386.810588286238,1.001089725699081,0.0014291468133948585
1386.8175327852332,1386.8175327852332,0.997463721213388,0.0014289985856397488
1386.8244772839473,1386.8244772839473,0.9978900520754224,0.001428021416495936
1386.8314217829425,1386.8314217829425,1.0007899180416164,0.0014289759988743208
1386.8383662815647,1386.8383662815647,1.002823850381049,0.0014299464153894987
1386.845310780186,1386.845310780186,0.999333335924614,0.001429835386181963
1386.8522552785291,1386.8522552785291,1.0012352227641177,0.0014300681325379026
1386.859199776965,1386.859199776965,0.9980473072982818,0.0014292801120983144
1386.866144275308,1386.866144275308,1.0005466774892626,0.001430319992867456
1386.8730887735564,1386.8730887735564,0.9993741533598811,0.0014296533139985944
1386.8800332717133,1386.8800332717133,0.9996614564475099,0.0014294317536968058
1386.8869777697769,1386.8869777697769,1.0009369527514456,0.0014289751608122275
1386.8939222677461,1386.8939222677461,0.9978943590850422,0.0014293143207187663
1386.900866765623,1386.900866765623,1.0008873359623303,0.001430643726663548
1386.9078112634074,1386.9078112634074,1.000332224978293,0.0014291828388093499
1386.9147557611914,1386.9147557611914,1.000500553324466,0.0014302631357543693
1386.9217002588816,1386.9217002588816,1.000444358351345,0.0014301646410871454
1386.928644756293,1386.928644756293,1.000377808305002,0.0014302532555984277
1386.9355892537978,1386.9355892537978,1.0000040215562318,0.0014293222528340224
1386.9425337512087,1386.9425337512087,0.9982163416340446,0.001428922101201621
1386.94947824862,1386.94947824862,1.001256190698891,0.0014311605437825337
1386.9564227458454,1386.9564227458454,0.9988540411356024,0.0014292256476261633
1386.9633672429773,1386.9633672429773,1.0008050783878617,0.0014303260382934032
1386.9703117400154,1386.9703117400154,1.0015577738188504,0.0014304572420242507
1386.9772562369612,1386.9772562369612,0.9988206480088884,0.0014296595527900672
1386.9850340733697,1386.9850340733697,1.0000872222552086,0.001428828231231429
1386.9925341300182,1386.9925341300182,0.9985932499729552,0.0014298581196635347
1386.9994786266843,1386.9994786266843,1.0010792332380183,0.0014309221381461443
1387.006423123258,1387.006423123258,0.9986274057410043,0.0014292145525912183
1387.0133676198304,1387.0133676198304,1.0004703775780923,0.0014297734623603768
1387.0203121161242,1387.0203121161242,1.0010246185735312,0.0014296855704863678
1387.0272566124183,1387.0272566124183,1.0004604297328796,0.001430303270784576
1387.0342011087123,1387.0342011087123,0.9999787283697058,0.001429532256909129
1387.0411456050056,1387.0411456050056,0.999285764800091,0.0014303269742291754
1387.0480901012063,1387.0480901012063,1.0015541223508162,0.001429967442630542
1387.0550345971276,1387.0550345971276,0.9975918866168756,0.0014293291038932042
1387.0619790931419,1387.0619790931419,1.001020140777392,0.0014302163130565971
1387.0689235889695,1387.0689235889695,0.999729361805605,0.0014293698499647095
1387.0758680847048,1387.0758680847048,0.9994935802007223,0.0014289258448731755
1387.0828125803469,1387.0828125803469,0.9991999798729145,0.0014292046065384964
1387.0897570759876,1387.0897570759876,1.001166247555697,0.001430567872694706
1387.0967015714436,1387.0967015714436,0.9999184163763285,0.001429193610893356
1387.1036460669925,1387.1036460669925,0.9983597084789994,0.001428148305016294
1387.110590562262,1387.110590562262,1.0017533853655871,0.0014294581028345805
1387.1175350576236,1387.1175350576236,1.0009568274159597,0.001429059064091331
1387.1244795527068,1387.1244795527068,0.9984391001709737,0.0014282682736781497
1387.131424047884,1387.131424047884,0.9986167804592279,0.0014279299115774091
1387.1383685427795,1387.1383685427795,1.003043953455506,0.0014297703887114275
1387.1453130377695,1387.1453130377695,1.0004208915009187,0.001428107905462536
1387.1522575325737,1387.1522575325737,0.9988569511887773,0.0014281293440947741
1387.1592020273772,1387.1592020273772,1.0001963143813983,0.0014297194769373525
1387.1661465219938,1387.1661465219938,1.000906756022688,0.0014293940023138582
1387.1730910166118,1387.1730910166118,1.0006242811457888,0.0014295847837714369
1387.180035511136,1387.180035511136,0.9981007346333902,0.0014290943773847412
1387.186980005567,1387.186980005567,0.9995394292352792,0.0014305933552960282
1387.1939244998116,1387.1939244998116,0.9973636141098068,0.001428370372994245
1387.20086899415,1387.20086899415,1.002560982026537,0.0014300579128701846
1387.2078134882088,1387.2078134882088,0.9994097719412064,0.001429381032372216
1387.2147579825455,1387.2147579825455,1.0009264999287766,0.0014300361464022106
1387.2217024765116,1387.2217024765116,0.9999613341579646,0.0014277761592831916
1387.2286469704773,1387.2286469704773,1.000732746732976,0.0014308044541843329
1387.2355914639768,1387.2355914639768,0.9992885912720902,0.0014283877206533282
1387.242535957942,1387.242535957942,1.0001698309596232,0.0014287028742895067
1387.249480451535,1387.249480451535,1.0008122301901012,0.0014292175314671318
1387.2564249451284,1387.2564249451284,1.0001909400440527,0.0014284494299319798
1387.2633694386273,1387.2633694386273,0.9976252651086881,0.0014282235413009545
1387.2703139321272,1387.2703139321272,1.002763220693672,0.0014303219608395412
1387.2772584254412,1387.2772584254412,0.9994511460307194,0.0014290098280430928
1387.2842029186613,1387.2842029186613,0.9988632799613913,0.0014293361813741726
1387.2911474117882,1387.2911474117882,0.9988423135065162,0.0014295483734937313
1387.2980919049157,1387.2980919049157,1.002629701198139,0.0014302069198641651
1387.3050363979503,1387.3050363979503,0.9983391751845945,0.0014288954025731345
1387.3128142299797,1387.3128142299797,0.9999779415273764,0.0014290590017759788
1387.3214254011934,1387.3214254011934,1.0000025229391993,0.0014287103719200077
1387.3286476735207,1387.3286476735207,1.0010255802565164,0.0014302937566527956
1387.336425505272,1387.336425505272,0.9984062232141445,0.0014297616677741575
1387.3439255572641,1387.3439255572641,1.001289704187853,0.0014297905888163796
1387.3511478294054,1387.3511478294054,1.000879922675343,0.0014306402738850337
1387.3592034405424,1387.3592034405424,1.0000671591470236,0.0014297248961523466
1387.366147932738,1387.366147932738,0.9989737796715268,0.0014295932139471606
1387.3730924250274,1387.3730924250274,0.9999411533054975,0.0014289323647320258
1387.3800369171306,1387.3800369171306,0.9996981415257762,0.0014300878336466728
1387.38698140914,1387.38698140914,0.9987386131972201,0.0014288458404397334
1387.393925901149,1387.393925901149,1.0002536982344972,0.00142865208505851
1387.4008703928796,1387.4008703928796,1.000326129661867,0.0014302997290070929
1387.4078148847034,1387.4078148847034,1.0001938846931653,0.0014297877191301296
1387.4147593766188,1387.4147593766188,1.0021005935089586,0.0014300999582080437
1387.4217038682564,1387.4217038682564,1.0009076288741572,0.0014301857729552394
1387.4286483594283,1387.4286483594283,0.9983257480506118,0.0014288505158290739
1387.4355928510652,1387.4355928510652,1.0011442356961768,0.0014303788171682137
1387.4425373424228,1387.4425373424228,0.998520750759968,0.0014293897531320293
1387.4494818336875,1387.4494818336875,0.9986256820699682,0.0014295290432876234
1387.4564263249526,1387.4564263249526,0.99863548834103,0.001429624511823841
1387.4633708160302,1387.4633708160302,1.000809772588339,0.0014301481310396897
1387.4703153071086,1387.4703153071086,1.0016789997473254,0.001430891682490179
1387.477259798001,1387.477259798001,1.0013350617029846,0.0014306717782865245
1387.4842042889863,1387.4842042889863,0.9996958937914595,0.001430097665329789
1387.4911487796912,1387.4911487796912,1.0024332728788987,0.0014310907950014166
1387.4980932703975,1387.4980932703975,0.9972590829572476,0.0014295176631565962
1387.5050377610105,1387.5050377610105,0.999485099997236,0.0014310832232919696
1387.5119822515296,1387.5119822515296,0.9993372380801947,0.0014299729342734304
1387.518926741956,1387.518926741956,1.0016473172537839,0.0014304824863398578
1387.5258712324755,1387.5258712324755,0.997972343368769,0.0014296894850684859
1387.5328157227164,1387.5328157227164,0.9974557366126628,0.0014305930865749815
1387.5397602129556,1387.5397602129556,1.002182776429601,0.0014300608961293807
1387.546704703103,1387.546704703103,1.0005718350062391,0.001430116415393443
1387.5536491932503,1387.5536491932503,0.9997700946333575,0.0014298938509654424
1387.560593683118,1387.560593683118,1.0021998284385145,0.0014299282138859767
1387.5675381729848,1387.5675381729848,1.0006459573552413,0.001429811074718144
1387.5744826628527,1387.5744826628527,0.9985039297656838,0.0014279769669821424
1387.5814271526274,1387.5814271526274,0.9995635959875895,0.0014289259891577216
1387.5883716423089,1387.5883716423089,0.9985913861379423,0.0014284631864406603
1387.5953161317102,1387.5953161317102,0.9998768308011406,0.00142887176286604
1387.6022606213917,1387.6022606213917,1.0006799049413069,0.0014285322854265805
1387.6092051107942,1387.6092051107942,0.9996268854655804,0.001428292016894309
1387.6161496001025,1387.6161496001025,1.0017846100271357,0.0014286063154825201
1387.623094089411,1387.623094089411,0.9994593239748808,0.0014280445168385174
1387.630038578348,1387.630038578348,1.001420620257679,0.0014295228679159677
1387.636983067564,1387.636983067564,0.9997878822977837,0.0014279299810094589
1387.6439275564062,1387.6439275564062,0.9984119559564126,0.0014270651988836753
1387.650872045436,1387.650872045436,0.998104719790945,0.0014269368605804977
1387.6578165342792,1387.6578165342792,1.0016192359535099,0.0014282465568167583
1387.6647610230295,1387.6647610230295,1.0001777079861351,0.0014282073884017582
1387.6717055116856,1387.6717055116856,1.0016487421736122,0.001428825666957605
1387.6786500003427,1387.6786500003427,0.9986246742639231,0.001428859101909289
1387.6855944888139,1387.6855944888139,1.001615799550836,0.0014283068739795498
1387.692538977191,1387.692538977191,0.9989239073119454,0.0014292068403640784
1387.6994834655682,1387.6994834655682,1.0009797504125995,0.001428567306506515
1387.7064279537597,1387.7064279537597,0.999008538406373,0.0014292886747895432
1387.7133724419514,1387.7133724419514,0.9998574849006798,0.0014286445641706839
1387.720316930049,1387.720316930049,0.99854277905761,0.0014285005386239307
1387.7272614181468,1387.7272614181468,0.9984882066854606,0.001429866817313972
1387.7342059060588,1387.7342059060588,0.9991486976185344,0.0014282447977059197
1387.7411503939716,1387.7411503939716,1.002242048710041,0.0014303679120353063
