time,time,flux,flux_err
1624.9628393240498,1624.9628393240498,1.0002224690515968,0.00031632374735955117
1624.971172767965,1624.971172767965,0.9997647456230322,0.0003168321048852653
1624.9795062119967,1624.9795062119967,1.0000642980192433,0.0003176201419118081
1624.987145202334,1624.987145202334,1.0001241946449295,0.00029047376313605323
1624.994089739053,1624.994089739053,1.0000238489710056,0.0002911165800492375
1625.001034275912,1625.001034275912,0.9995465822771321,0.000291771367807316
1625.007978812724,1625.007978812724,1.0001854323416228,0.0002923951277234145
1625.0149233496763,1625.0149233496763,1.0002708424141884,0.00029299421003143564
1625.0218678866277,1625.0218678866277,1.0004148341217927,0.00029376752198162113
1625.0288124236733,1625.0288124236733,0.9995944179575194,0.00029435449744926004
1625.0357569607647,1625.0357569607647,1.0001382366788685,0.0002950959777481887
1625.0427014979498,1625.0427014979498,0.9998552832792077,0.0002958031225660792
1625.049646035181,1625.049646035181,1.0001637351964643,0.0002965563459888821
1625.056590572459,1625.056590572459,1.0001347688666622,0.00029739770957198935
1625.0635351098765,1625.0635351098765,0.9998864016756907,0.00029811442124548146
1625.0704796473408,1625.0704796473408,1.0000887548307307,0.0002987558509803898
1625.0774241848515,1625.0774241848515,1.0000862006843942,0.0002995040167828297
1625.0843687224556,1625.0843687224556,0.9998108376462616,0.0003000172074859375
1625.0913132601993,1625.0913132601993,1.0003186002046445,0.00030069575677068374
1625.098257797943,1625.098257797943,0.9999266679773189,0.00030111138312418283
1625.105202335826,1625.105202335826,0.999638872404663,0.0003016161866571796
1625.1121468737558,1625.1121468737558,1.0004267775091134,0.00030223519228349174
1625.119091411872,1625.119091411872,1.0000042654950245,0.0003025743159273212
1625.126035949988,1625.126035949988,0.999687942357296,0.0003030454138386495
1625.1329804881047,1625.1329804881047,0.9999007658114742,0.0003034463520908269
1625.139925026453,1625.139925026453,0.9999421342095844,0.0003039141089522228
1625.146869564849,1625.146869564849,1.0000371151999297,0.00030430005063336997
1625.1538141032906,1625.1538141032906,1.0001196079129864,0.00030454216828416567
1625.160758641919,1625.160758641919,1.0000983187587396,0.0003050380978366589
1625.1677031805941,1625.1677031805941,0.9999452025702222,0.00030533421121472197
1625.1746477193624,1625.1746477193624,0.9998221094323355,0.00030570668629174977
1625.182703384462,1625.182703384462,0.9999819957714072,0.00030607066120707133
1625.189925704987,1625.189925704987,1.0003219445820593,0.0003061731376645004
1625.1968702441277,1625.1968702441277,1.000988776655825,0.0003065500295644636
1625.2038147832686,1625.2038147832686,0.9998604249681353,0.00030649164710647755
1625.2107593225487,1625.2107593225487,0.99983349144466,0.0003068197843903633
1625.2188149882998,1625.2188149882998,0.9995717422192723,0.00030705984179023196
1625.2274262172868,1625.2274262172868,1.0001532022380168,0.0003074898293739795
1625.2343707568937,1625.2343707568937,1.000622827134253,0.0003077397257867593
1625.2424264230172,1625.2424264230172,0.9999189357303917,0.0003077664937896845
1625.2496487444741,1625.2496487444741,0.9996845277128814,0.00030818318520542366
1625.2565932844059,1625.2565932844059,0.9999730314968159,0.00030828398191834147
1625.2635378244784,1625.2635378244784,0.9996973447720621,0.00030833006494054437
1625.2715934910213,1625.2715934910213,0.9998237232075692,0.0003088284278889581
1625.2788158129904,1625.2788158129904,1.0000337737497773,0.0003092970340770135
1625.2857603534346,1625.2857603534346,1.0000782400690358,0.000309385027996787
1625.2927048938795,1625.2927048938795,1.0001707441780217,0.00030958830594544375
1625.2999272160346,1625.2999272160346,1.000000381189214,0.0003100018457356269
1625.3093717914114,1625.3093717914114,0.9999805450325212,0.0003103912886966186
1625.3163163322283,1625.3163163322283,1.0003738656444328,0.00031082390430678115
1625.3243719997497,1625.3243719997497,1.000177203875905,0.00031125118846083105
1625.3315943224636,1625.3315943224636,0.999646351807297,0.0003114201323614579
1625.3385388636066,1625.3385388636066,0.9997998036627642,0.00031185043398836143
1625.3454834048891,1625.3454834048891,1.0001775698319133,0.00031222503808893805
1625.352427946265,1625.352427946265,1.000325933857635,0.0003124658177094459
1625.3593724877335,1625.3593724877335,0.9997740811804514,0.00031256344972637254
1625.366317029342,1625.366317029342,1.0005241700793577,0.00031308838261599325
1625.373261570951,1625.373261570951,1.0002432692184493,0.00031322308360359833
1625.3802061126994,1625.3802061126994,0.9998937420428813,0.0003132695140595433
1625.3871506545872,1625.3871506545872,0.9997647224678694,0.00031348821802537846
1625.3940951965683,1625.3940951965683,0.9999306615397805,0.0003138457693136895
1625.401039738596,1625.401039738596,0.9995331108375375,0.00031382511688859337
1625.40798428081,1625.40798428081,1.0005418007817675,0.00031403634369141004
1625.4149288230242,1625.4149288230242,0.9997145419595699,0.0003139649796544728
1625.4218733653775,1625.4218733653775,0.9998400904840997,0.00031403827595614324
1625.4288179078706,1625.4288179078706,1.0001537481684462,0.0003141181705591157
1625.4357624504105,1625.4357624504105,1.0011432958476358,0.00031424407448917555
1625.4427069930905,1625.4427069930905,0.9995046325081614,0.0003141888865479961
1625.449651535863,1625.449651535863,1.0002189497064538,0.0003142064915111671
1625.456596078636,1625.456596078636,1.0004086690892466,0.00031419644756507846
1625.463540621548,1625.463540621548,1.000443000748287,0.0003142459068989317
1625.470485164554,1625.470485164554,0.9996905867925037,0.00031431008937445265
1625.4785408346359,1625.4785408346359,1.0000702401507007,0.00031434163920846176
1625.4857631595855,1625.4857631595855,0.9999138509897421,0.00031446946442937706
1625.4927077028697,1625.4927077028697,1.000062726251295,0.00031436235376879605
1625.4996522462952,1625.4996522462952,1.000049087829846,0.0003143440659777477
1625.5065967897663,1625.5065967897663,1.0002537018382816,0.000314691168791911
1625.5135413334235,1625.5135413334235,0.9999374701113787,0.0003146379610487299
1625.5204858770808,1625.5204858770808,0.999906699460986,0.00031465261320747347
1625.5274304208315,1625.5274304208315,0.9997568112153618,0.0003145632778685757
1625.5343749646756,1625.5343749646756,1.0001461528091653,0.00031472119539182567
1625.5413195086123,1625.5413195086123,1.0002646750426867,0.0003145656188244505
1625.5482640526889,1625.5482640526889,0.9993294970838938,0.0003145129951905646
1625.5552085968122,1625.5552085968122,1.0004811344493927,0.00031443651882263516
1625.562153140982,1625.562153140982,1.0000448957010974,0.00031442114019650794
1625.5690976852916,1625.5690976852916,1.0005381968865996,0.0003145713064280367
1625.5760422296473,1625.5760422296473,1.0002324895868175,0.0003144630917093584
1625.5829867741427,1625.5829867741427,0.9993805874585462,0.00031412965525583994
1625.5899313186849,1625.5899313186849,1.0002013404658923,0.00031410492171967097
1625.596875863274,1625.596875863274,0.9997612812873573,0.0003139882999392911
1625.6038204080025,1625.6038204080025,0.9999512057629927,0.00031372838691804116
1625.6107649527773,1625.6107649527773,1.0000691051841175,0.00031368127186607886
1625.6177094975992,1625.6177094975992,1.0001039367681235,0.00031349779675016214
1625.6246540426073,1625.6246540426073,1.0001534887861327,0.0003133507129010381
1625.6315985875221,1625.6315985875221,1.0000384339837427,0.0003132633425984825
1625.638543132623,1625.638543132623,0.999956045004307,0.00031314805735904
1625.6454876779103,1625.6454876779103,0.9999453565848407,0.0003130386950992705
1625.6524322231041,1625.6524322231041,1.000001729312019,0.00031299627676554067
1625.6593767684378,1625.6593767684378,0.9997644185241594,0.00031296305049373797
1625.6663213138186,1625.6663213138186,1.0000630532676154,0.0003128898793805291
1625.6732658593387,1625.6732658593387,0.999963120006816,0.00031296870357998535
1625.6802104048588,1625.6802104048588,1.0004161248151584,0.00031296012836942846
1625.6871549504256,1625.6871549504256,0.9999965948359435,0.0003129500378345353
1625.694099496132,1625.694099496132,0.9999972314639016,0.00031290732109926476
1625.701044041932,1625.701044041932,1.0001052658625196,0.00031301446274323953
1625.7079885877774,1625.7079885877774,0.9999923290249504,0.00031302673823882467
1625.7149331336702,1625.7149331336702,1.0001890111129068,0.00031308918727946603
1625.7218776796558,1625.7218776796558,1.0000810182638344,0.00031313611857228826
1625.7288222256882,1625.7288222256882,1.0000475634141277,0.00031332318789738033
1625.7357667718602,1625.7357667718602,0.9995173878075739,0.000313357993094124
1625.7427113179394,1625.7427113179394,1.000243547398662,0.0003134479761061314
1625.7496558642044,1625.7496558642044,0.9995931271136357,0.00031348742527420213
1625.7566004105163,1625.7566004105163,1.0001825598262517,0.0003136570618209527
1625.7635449569684,1625.7635449569684,1.0006561980481665,0.00031398112363597154
1625.770489503373,1625.770489503373,1.0005968184593583,0.00031400788710724903
1625.7774340498709,1625.7774340498709,0.9996334337297877,0.0003139096923066285
1625.784378596462,1625.784378596462,0.999961699391904,0.0003140490221602986
1625.7913231430998,1625.7913231430998,1.0000372291316064,0.0003140889538983692
1625.7982676898305,1625.7982676898305,1.0001215253861298,0.00031416328993419645
1625.8052122366082,1625.8052122366082,0.9992566866995561,0.0003139750378743667
1625.8121567834319,1625.8121567834319,0.9999829754353797,0.0003141910820591251
1625.8191013303021,1625.8191013303021,1.0002322143013613,0.0003142068667374594
1625.8260458772195,1625.8260458772195,1.0001357042622128,0.00031421787974833407
1625.8329904241837,1625.8329904241837,1.0000829128214987,0.0003141008441491335
1625.8399349712868,1625.8399349712868,1.0001891372520626,0.0003140125931948879
1625.8468795183899,1625.8468795183899,1.000055664627747,0.0003138799220825618
1625.8538240655864,1625.8538240655864,1.0004764539460773,0.000313865349380358
1625.8607686128294,1625.8607686128294,0.9998294728026504,0.00031380637983318956
1625.8677131600723,1625.8677131600723,0.9998540351050111,0.00031360044304123573
1625.8746577074558,1625.8746577074558,1.0000374501988951,0.00031344061024714834
1625.8816022548847,1625.8816022548847,0.9996278723415927,0.0003132380857988896
1625.888546802314,1625.888546802314,1.0005667145883332,0.00031324713794032047
1625.8954913497432,1625.8954913497432,0.999304383051769,0.0003128514223799449
1625.9024358974057,1625.9024358974057,1.0003416358818187,0.0003128222439314744
1625.9093804449747,1625.9093804449747,1.0003824696601271,0.00031257948365766405
1625.9163249926366,1625.9163249926366,0.9999068830171272,0.0003123039120502048
1625.9232695403457,1625.9232695403457,1.000316619314495,0.0003120298187802556
1625.930214088147,1625.930214088147,1.0003749563586974,0.0003117279648622176
1625.9371586359493,1625.9371586359493,0.9999694590232104,0.00031137665964290473
1625.9441031837978,1625.9441031837978,1.0004179727259959,0.00031112937895267094
1625.9510477317394,1625.9510477317394,1.00025381742813,0.0003107598717710969
1625.9579922796806,1625.9579922796806,0.9995140991423972,0.0003105697784297534
1625.9649368277155,1625.9649368277155,1.0000007472631909,0.0003102175841190786
1625.9718813757966,1625.9718813757966,0.9993608262844385,0.0003099060795287009
1625.978825923878,1625.978825923878,1.0004896709285793,0.00030976853009154404
1625.9857704720523,1625.9857704720523,1.0004375760142157,0.0003095082465946259
1625.9927150202736,1625.9927150202736,0.999677029184241,0.0003092251886081079
1625.999659568494,1625.999659568494,1.000397116314273,0.00030894987180716903
1626.0066041168084,1626.0066041168084,1.0001202384999552,0.0003087493041578818
1626.0135486651225,1626.0135486651225,0.9998754679901888,0.0003084285053294121
1626.0204932134834,1626.0204932134834,0.9996162948652376,0.0003084089216623933
1626.0274377618903,1626.0274377618903,0.9992789728549816,0.0003081721912766862
1626.0343823104372,1626.0343823104372,1.0001575113994896,0.00030793334365450105
1626.0413268588443,1626.0413268588443,1.0005671626312371,0.0003079013155284842
1626.048271407391,1626.048271407391,1.0000744180623384,0.0003076229797938719
1626.0552159559852,1626.0552159559852,1.000381609471842,0.00030755675890335125
1626.0621605045787,1626.0621605045787,0.9999339127438581,0.0003073393849721975
1626.0691050534049,1626.0691050534049,1.0000441761777237,0.00030724867857037923
1626.0760496019982,1626.0760496019982,0.9990399564307728,0.00030698884554554803
1626.0829941508246,1626.0829941508246,1.0003072981698136,0.0003069768449119282
1626.0899386996045,1626.0899386996045,0.9998901112734139,0.00030680004611521573
1626.0968832483843,1626.0968832483843,1.0002830564198326,0.0003067434971678256
1626.103827797257,1626.103827797257,1.0005240522478018,0.00030663267592619624
1626.1107723461764,1626.1107723461764,0.9996444172944248,0.00030651942611535264
1626.1177168950958,1626.1177168950958,0.999704981435498,0.000306324121294426
1626.1246614441084,1626.1246614441084,1.0000661875942132,0.00030632305057717147
1626.1316059930746,1626.1316059930746,0.9997031048239116,0.00030603978831440396
1626.1385505421338,1626.1385505421338,0.9999759420239505,0.0003060715705515707
1626.1454950912394,1626.1454950912394,1.000317949573424,0.00030613935906084906
1626.1524396402986,1626.1524396402986,1.0002734861078364,0.0003059493136545527
1626.1593841894971,1626.1593841894971,1.0003006555523166,0.00030584641463909934
1626.1663287386496,1626.1663287386496,1.0000255756761764,0.0003056855159769584
1626.173273287895,1626.173273287895,0.9997073975496743,0.00030563254709339556
1626.1802178371404,1626.1802178371404,0.9995557538005816,0.00030547930748897953
1626.1871623864324,1626.1871623864324,1.0000232731843632,0.00030530898037185803
1626.194106935771,1626.194106935771,1.0003900808277677,0.0003051948658809318
1626.201051485063,1626.201051485063,0.9998527038611862,0.0003049384169374747
1626.2079960344945,1626.2079960344945,0.9995187176563997,0.00030471758054976644
1626.21494058388,1626.21494058388,1.0004299772794476,0.0003046227995608667
1626.2218851333114,1626.2218851333114,1.0000100319447136,0.00030435529624792855
1626.2288296827896,1626.2288296827896,1.0002714462302589,0.00030421726525562147
1626.2357742323143,1626.2357742323143,0.9995079248556678,0.00030391410143526743
1626.2427187817927,1626.2427187817927,1.000329087934585,0.00030382812206242524
1626.2496633313642,1626.2496633313642,1.0004110435820368,0.00030362839888426623
1626.2566078809823,1626.2566078809823,0.9998419792624617,0.0003034414690179797
1626.2635524305535,1626.2635524305535,0.9999795910852803,0.00030318813981485026
1626.270496980218,1626.270496980218,0.9998080352481932,0.0003028270823257586
1626.2774415298359,1626.2774415298359,1.000484079852538,0.00030265550187106796
1626.2843860795936,1626.2843860795936,1.0012280698417,0.00030245045517646613
1626.2913306293508,1626.2913306293508,0.9997037025634509,0.0003022322450504488
1626.298275179109,1626.298275179109,0.999762778423227,0.0003019480340603749
1626.3052197288664,1626.3052197288664,0.9998112590778288,0.00030181049007384946
1626.312164278624,1626.312164278624,1.0001414812424012,0.00030177333004447615
1626.3191088283813,1626.3191088283813,0.9998981181520119,0.00030150157141101825
1626.326053378279,1626.326053378279,1.0005608643769694,0.00030133646145474353
1626.3329979281298,1626.3329979281298,0.9999972153366972,0.00030114928130525677
1626.339942478074,1626.339942478074,0.9999054406149479,0.0003010325770061673
1626.3468870279714,1626.3468870279714,0.9999171048834097,0.00030085854272416887
1626.3538315778685,1626.3538315778685,1.000364183545615,0.00030074439753157773
1626.3607761278588,1626.3607761278588,0.9994088013935786,0.00030058115628104574
1626.367720677849,1626.367720677849,0.9997728768628333,0.0003004562994141887
1626.374665227886,1626.374665227886,1.000032662041564,0.0003003883376367641
1626.3816097778767,1626.3816097778767,1.000210794662457,0.00030029475665944386
1626.388554327914,1626.388554327914,1.0002988228733516,0.00030025154300165554
1626.3954988779974,1626.3954988779974,1.0001839250798084,0.00030011122288162086
1626.4024434281278,1626.4024434281278,1.000008159143152,0.00030007858691865203
1626.4093879781647,1626.4093879781647,0.99999524600321,0.00029989887474476436
1626.4163325283412,1626.4163325283412,0.9997240902307928,0.00029985113361824197
1626.4232770784715,1626.4232770784715,1.0001731464855481,0.0002997590615459946
1626.4302216286483,1626.4302216286483,0.9992815883288912,0.00029971327342925326
1626.437166178825,1626.437166178825,1.0000754759828685,0.0002995634846033728
1626.4441107290481,1626.4441107290481,1.0001642372660573,0.00029957862453319355
1626.4510552792713,1626.4510552792713,1.0004196081077823,0.0002995001601015918
1626.4579998295414,1626.4579998295414,0.9997067352027653,0.00029939466202613235
1626.4649443797646,1626.4649443797646,1.0001928966168987,0.00029931030825915584
1626.471888930081,1626.471888930081,1.0003791069072985,0.0002992592265109986
1626.478833480351,1626.478833480351,0.9997483615910889,0.0002993457232395903
1626.4857780306672,1626.4857780306672,0.9998766184220287,0.000299182080695522
1626.4927225809838,1626.4927225809838,0.9994761615472887,0.00029913680681469907
1626.4996671313468,1626.4996671313468,1.0000193103980521,0.0002991800862460844
1626.5066116816631,1626.5066116816631,1.0005326564019672,0.00029897971251872403
1626.513556232119,1626.513556232119,1.0001757094630974,0.0002988358070188298
1626.5205007824825,1626.5205007824825,0.9998912595723347,0.0002990271665089518
1626.527445332892,1626.527445332892,1.000632505737411,0.00029906014553646306
1626.5343898833016,1626.5343898833016,0.9999825984987869,0.00029899483649603413
1626.5413344337576,1626.5413344337576,0.9993145023106335,0.00029885103835545476
1626.5482789842135,1626.5482789842135,1.0000016873099098,0.0002988141750050181
1626.55522353467,1626.55522353467,1.0000851326366298,0.00029885736143079017
1626.5621680851261,1626.5621680851261,0.9999557975931015,0.00029870787963411446
1626.5691126356287,1626.5691126356287,1.0001100163671142,0.000298939474060026
1626.5760571861315,1626.5760571861315,1.0000624128218363,0.0002988440404344446
1626.5830017366338,1626.5830017366338,0.9997821088661691,0.0002987034857981381
1626.5899462871832,1626.5899462871832,0.9999788669206712,0.0002986837742205883
1626.5968908376858,1626.5968908376858,1.0003187731310637,0.00029865404784948065
1626.6038353882818,1626.6038353882818,1.0001857699291494,0.0002985264804014254
1626.6107799388308,1626.6107799388308,0.999815644570136,0.0002984873820678011
1626.6177244894268,1626.6177244894268,1.0004863865625508,0.00029861827803620116
1626.6246690399762,1626.6246690399762,0.9994200951979874,0.00029842664728187384
1626.6316135906186,1626.6316135906186,1.0001262757262488,0.00029851463781257624
1626.6385581411678,1626.6385581411678,1.0002975494581754,0.0002984306649878723
1626.64550269181,1626.64550269181,1.0002710884055102,0.00029857534515252335
1626.6524472424524,1626.6524472424524,0.9998608917101744,0.00029846233499031504
1626.6593917930945,1626.6593917930945,0.9999839752682034,0.0002984364242151651
1626.6663363437374,1626.6663363437374,0.9994318777489963,0.0002983066539167145
1626.6732808943798,1626.6732808943798,0.9998585988109218,0.00029811202571380154
1626.6802254450688,1626.6802254450688,0.9998694845905511,0.0002981722041803289
1626.6871699957107,1626.6871699957107,1.0001036398911807,0.0002982519121497496
1626.6941145464,1626.6941145464,1.0003625572687727,0.0002981377537561624
1626.7010590971354,1626.7010590971354,0.9999524247058449,0.0002981876122063158
1626.7080036478242,1626.7080036478242,1.000378005143473,0.00029817369645952535
1626.7149481985134,1626.7149481985134,1.0001813911282853,0.00029819038010877707
1626.721892749249,1626.721892749249,0.9996309834724026,0.0002980759830121737
1626.7288372999378,1626.7288372999378,0.9997682616842555,0.00029805294293927965
