time,time,flux,flux_err
1491.6405513026584,1491.6405513026584,1.0008240950353453,0.001207117228821714
1491.6488848781557,1491.6488848781557,0.99937893870087,0.0012036997511766054
1491.6565239888537,1491.6565239888537,0.9993965863025764,0.0010973048046056348
1491.6634686348302,1491.6634686348302,1.0001151678210305,0.00109577069278319
1491.6704132808998,1491.6704132808998,1.0005876272303187,0.0010936465358486619
1491.6773579268759,1491.6773579268759,0.9993213773565147,0.0010920191589352279
1491.6843025728522,1491.6843025728522,0.9998844821864126,0.0010910551560609708
1491.691247218642,1491.691247218642,1.0006654085840698,0.0010894982007149034
1491.6981918645251,1491.6981918645251,0.9992918387210634,0.0010886469777315884
1491.705136510315,1491.705136510315,1.0015170890364236,0.0010870751206106647
1491.7120811560121,1491.7120811560121,0.9990877374534076,0.001085307749132665
1491.719025801709,1491.719025801709,1.0012480905138372,0.0010842977635317458
1491.7259704472197,1491.7259704472197,1.001570046052516,0.0010828378045558435
1491.73291509273,1491.73291509273,0.99929045688004,0.0010813421681933153
1491.7398597381477,1491.7398597381477,0.999909347527578,0.001080816282907223
1491.7468043836582,1491.7468043836582,0.9993369256246988,0.0010794149071509998
1491.7537490288894,1491.7537490288894,1.0004004592332945,0.001077849403713855
1491.7606936742138,1491.7606936742138,0.9994335944344375,0.0010769234786567605
1491.7676383193516,1491.7676383193516,0.9998288021537572,0.0010759740340575688
1491.7745829644896,1491.7745829644896,0.9983486748053891,0.001074474138978291
1491.7815276094414,1491.7815276094414,1.0004247107557365,0.0010728202582324443
1491.7884722544864,1491.7884722544864,0.9999710961322353,0.0010718035607202093
1491.7954168993451,1491.7954168993451,1.0007239924255984,0.001071439104007056
1491.802361544111,1491.802361544111,1.0007008622026146,0.0010696849726849992
1491.809306188876,1491.809306188876,0.9998762684770142,0.0010692953829181471
1491.8162508334553,1491.8162508334553,1.0001005967353414,0.0010679750316977608
1491.8231954780347,1491.8231954780347,1.0018319477446993,0.0010668129980413187
1491.8301401224276,1491.8301401224276,0.9994564146082228,0.001065841593766964
1491.837084767007,1491.837084767007,0.9979690776741525,0.0010633687312499372
1491.8440294111201,1491.8440294111201,1.0004190950733665,0.0010626354260963105
1491.8509740552336,1491.8509740552336,0.9994689097295556,0.0010621366402523015
1491.8579186993477,1491.8579186993477,1.0006600948216584,0.0010619992095966325
1491.8648633434614,1491.8648633434614,0.9997238693695509,0.0010616402168861672
1491.8718079875748,1491.8718079875748,1.0008581012352902,0.0010600992899957372
1491.878752631409,1491.878752631409,1.001018684915104,0.0010591334764490563
1491.8856972752433,1491.8856972752433,0.9990334116078096,0.001057980629551717
1491.8926419188915,1491.8926419188915,1.001614707755624,0.001058067654714359
1491.8995865624458,1491.8995865624458,1.0010091126072316,0.0010576421132990896
1491.9065312060006,1491.9065312060006,0.9989025122957298,0.0010555163265053907
1491.9134758493697,1491.9134758493697,0.9996280251036314,0.0010553162617119279
1491.9204204926446,1491.9204204926446,0.9994539375402092,0.0010549290853212353
1491.9273651359201,1491.9273651359201,1.0006068234291727,0.0010551757102452218
1491.9343097790093,1491.9343097790093,1.000626354314237,0.0010540472100550554
1491.9412544220982,1491.9412544220982,0.9985586368103686,0.001052440274235082
1491.9481990650013,1491.9481990650013,0.9993436357075304,0.0010519962471425824
1491.955143707718,1491.955143707718,1.0012538886871716,0.001052193286790955
1491.9620883505274,1491.9620883505274,1.0008505777557248,0.0010513866821415404
1491.9690329930577,1491.9690329930577,1.0005136341594703,0.00105083671632334
1491.9759776355882,1491.9759776355882,0.9991903160152946,0.0010505559034556086
1491.9829222781184,1491.9829222781184,1.0002786378044515,0.0010508580232361255
1491.9898669203694,1491.9898669203694,0.9989135253941017,0.0010504035836723454
1491.9968115625275,1491.9968115625275,1.0013466866596163,0.0010511669666382667
1492.0037562047785,1492.0037562047785,0.9993786787664319,0.0010502653473293438
1492.0107008465636,1492.0107008465636,1.0002920593728049,0.0010503155287638149
1492.017645488349,1492.017645488349,1.0003290387064212,0.0010499586528334105
1492.0245901301344,1492.0245901301344,0.9985230601407888,0.0010503196560850592
1492.0315347719193,1492.0315347719193,1.0003394450737528,0.001050484336712764
1492.0384794137049,1492.0384794137049,1.000146828966459,0.0010510126016528884
1492.0454240550248,1492.0454240550248,1.0009574998378625,0.0010507956768775325
1492.052368696437,1492.052368696437,0.9997795755373853,0.0010509540009996925
1492.0593133377565,1492.0593133377565,0.9993354651481049,0.0010510178513847878
1492.0662579787972,1492.0662579787972,1.0003331258600408,0.0010509048726292415
1492.073202619837,1492.073202619837,0.999566787644158,0.0010501367392151927
1492.0801472607843,1492.0801472607843,1.002024605238299,0.0010516947687138163
1492.0870919016384,1492.0870919016384,0.9984852692373286,0.0010501123102166904
1492.0940365423057,1492.0940365423057,0.998239921066823,0.0010501426604526004
1492.1009811828803,1492.1009811828803,0.9998411553626718,0.0010502214885730842
1492.107925823362,1492.107925823362,1.0012632002615436,0.0010507403507801622
1492.11487046375,1492.11487046375,0.9998213711329343,0.0010499370053422938
1492.1218151041385,1492.1218151041385,1.0010403108588082,0.001051531585269533
1492.1287597441544,1492.1287597441544,0.9991431375219332,0.0010499463280862274
1492.13570438417,1492.13570438417,1.001147484854013,0.001050385067234582
1492.142649024186,1492.142649024186,0.9997820922443064,0.001050447578614749
1492.1495936640156,1492.1495936640156,0.9987743859187491,0.0010505818409830487
1492.1565383035654,1492.1565383035654,1.0004847049600214,0.0010509414575337504
1492.1634829430227,1492.1634829430227,1.0015182001293084,0.0010522350576147655
1492.17042758248,1492.17042758248,1.0001008238830533,0.0010512724104060696
1492.1773722219368,1492.1773722219368,1.0008084533426995,0.0010511669781034449
1492.1843168613002,1492.1843168613002,0.9980860656575832,0.0010510263824643634
1492.1912615003848,1492.1912615003848,0.998614743666562,0.0010503442897368148
1492.198206139376,1492.198206139376,1.000281394973434,0.0010512328929278278
1492.2051507782742,1492.2051507782742,1.0001757285366306,0.0010510195065315067
1492.2120954170794,1492.2120954170794,0.9986505124718242,0.0010511457445969287
1492.2190400556983,1492.2190400556983,0.9999223062211904,0.001051048499155271
1492.2259846942236,1492.2259846942236,1.0014042006369985,0.0010517991707399536
1492.2329293325631,1492.2329293325631,1.0009572138431644,0.0010515874899813679
1492.2398739709029,1492.2398739709029,1.0000339972516832,0.0010504905736671909
1492.2468186091487,1492.2468186091487,0.9998510532955798,0.001050300379861905
1492.2537632472088,1492.2537632472088,1.001862219248295,0.0010509108569368235
1492.2607078851756,1492.2607078851756,0.9977461314959637,0.00105012324385185
1492.2676525229558,1492.2676525229558,1.0001429361001584,0.001050525325455453
1492.2745971607367,1492.2745971607367,0.9997457610749405,0.0010502165936681226
1492.2815417983313,1492.2815417983313,1.0000880002636439,0.0010500631761532092
1492.288486435739,1492.288486435739,0.9996853503659928,0.0010513436817524266
1492.2954310731475,1492.2954310731475,1.0001696795460078,0.001051275071676716
1492.3023757102762,1492.3023757102762,1.0012110907181624,0.0010506903968725023
1492.309320347405,1492.309320347405,0.9985084625886778,0.0010494108047531762
1492.3162649845333,1492.3162649845333,1.0009927922858108,0.0010510803941832748
1492.3232096213828,1492.3232096213828,1.0006271659756716,0.0010503371342366781
1492.330154258139,1492.330154258139,0.9999429594537228,0.001049691995529357
1492.3370988948018,1492.3370988948018,0.9991668664146178,0.0010497559498188647
1492.3440435312787,1492.3440435312787,0.9995057082235442,0.0010500525090351971
1492.3509881676623,1492.3509881676623,1.0000286288636198,0.0010499105042386485
1492.3579328039525,1492.3579328039525,1.0002537816793733,0.0010508690187094262
1492.36487744015,1492.36487744015,1.0000775224812526,0.0010509696409290714
1492.371822076068,1492.371822076068,0.9999484259394501,0.0010510077147530502
1492.3787667120787,1492.3787667120787,0.9995676906434415,0.0010498616613989935
1492.3857113478105,1492.3857113478105,1.001516006949285,0.001052806495907235
1492.3926559834495,1492.3926559834495,0.999376962590705,0.0010499069890583632
1492.3996006190878,1492.3996006190878,0.9987889317533918,0.001049586818315192
1492.4065452544469,1492.4065452544469,1.0001705340894183,0.0010502306679099301
1492.4134898898062,1492.4134898898062,1.000724742768506,0.0010503007995974422
1492.4204345249786,1492.4204345249786,1.0003379260435006,0.001050624481048428
1492.4273791599655,1492.4273791599655,0.9997113218205443,0.0010504625128286407
1492.4343237948592,1492.4343237948592,1.0003424723185264,0.0010514355447963947
1492.4412684297527,1492.4412684297527,1.0022309175578528,0.001051688087351624
1492.448213064367,1492.448213064367,0.9991482422568376,0.001050490485539363
1492.4551576991676,1492.4551576991676,0.9986295471997334,0.0010503477199273875
1492.4621023335017,1492.4621023335017,0.9997145359062494,0.0010509899100446091
1492.4690469678367,1492.4690469678367,0.9992408327647363,0.001050948742198081
1492.4759916019852,1492.4759916019852,0.9987446157020778,0.0010512991387488617
1492.4829362361334,1492.4829362361334,0.999985222681182,0.0010512933915283384
1492.4898808700957,1492.4898808700957,1.000200648837796,0.0010517522881289512
1492.4968255038716,1492.4968255038716,1.000702648766929,0.0010515432267662497
1492.5037701375545,1492.5037701375545,1.0000924662484667,0.0010516110954205608
1492.5107147711437,1492.5107147711437,1.002516704156314,0.001052224241633613
1492.5176594047336,1492.5176594047336,1.0005026659058414,0.0010509097793503929
1492.524604038044,1492.524604038044,0.9984312563654779,0.0010504564529442387
1492.531548671261,1492.531548671261,0.9994956082425379,0.0010499549041206517
1492.5384933043847,1492.5384933043847,1.0012396460502682,0.0010500949904914919
1492.5454379373227,1492.5454379373227,0.9983270229058192,0.001050106061603058
1492.5523825700739,1492.5523825700739,1.0000529710418724,0.0010507441502708662
1492.5593272030117,1492.5593272030117,1.0007851765679365,0.0010510608575038144
1492.566271835484,1492.566271835484,0.9994421960495122,0.0010508290834164206
1492.5732164679557,1492.5732164679557,1.0000254675037206,0.0010513070698346348
1492.5801611004279,1492.5801611004279,1.000781647246945,0.0010514875150950892
1492.5871057325276,1492.5871057325276,1.0000120217903499,0.0010507076409812183
1492.5940503646266,1492.5940503646266,0.9990641921626502,0.0010511794238062823
1492.6009949966335,1492.6009949966335,1.0002115437059724,0.00105044476653646
1492.607939628547,1492.607939628547,1.0000257410823334,0.0010504075600613531
1492.6148842602738,1492.6148842602738,0.9987073207009878,0.0010494879912656008
1492.6218288918146,1492.6218288918146,1.0015500399265165,0.001050694269064475
1492.6287735233554,1492.6287735233554,0.9999364463377411,0.0010500444748330856
1492.6357181547096,1492.6357181547096,1.0002291279659983,0.001050121134839013
1492.642662785971,1492.642662785971,0.9996453163602895,0.0010497935715802335
1492.6496074170464,1492.6496074170464,0.9998308107486034,0.0010505642396788108
1492.6565520480278,1492.6565520480278,1.000917073489863,0.0010508439727829706
1492.6634966789168,1492.6634966789168,0.999986588137747,0.0010509239758837708
1492.6704413097125,1492.6704413097125,1.0006250511102506,0.0010503209722141698
1492.6773859402288,1492.6773859402288,0.998793456348573,0.0010510766424283496
1492.6843305707448,1492.6843305707448,1.0000151790126968,0.0010510988799588305
1492.691275201168,1492.691275201168,0.9993271585925403,0.0010511962075744874
1492.6982198314984,1492.6982198314984,1.0003480254365837,0.0010511424744515927
1492.7051644616417,1492.7051644616417,0.9991067859530004,0.0010515043456267741
1492.712109091413,1492.712109091413,0.9998535269956259,0.0010506917555033663
1492.7190537213708,1492.7190537213708,1.000347109089661,0.0010513014316385098
1492.7259983511417,1492.7259983511417,1.000056227641046,0.001050843146095704
1492.7329429807266,1492.7329429807266,1.0004719933844763,0.001051069289730791
1492.7398876102188,1492.7398876102188,1.001076179731615,0.0010514261043380881
1492.7468322395239,1492.7468322395239,1.0004668580040668,0.0010509397737262709
1492.7537768688296,1492.7537768688296,0.9998016526261646,0.0010516940855708774
1492.7607214980424,1492.7607214980424,0.9991438750131785,0.0010515653322269616
1492.7676661269757,1492.7676661269757,1.0001574594352218,0.0010508149492502801
1492.7746107559083,1492.7746107559083,1.0008536313943714,0.0010510147545884367
1492.7815553846553,1492.7815553846553,0.9987060975136753,0.0010505523691924069
1492.7885000133087,1492.7885000133087,1.000643966549646,0.00105105521321557
1492.795444641683,1492.795444641683,1.0004478324417254,0.0010509004866420318
1492.8023892700573,1492.8023892700573,0.9990389325607574,0.0010502348350079059
1492.8093338984313,1492.8093338984313,0.9996867277581784,0.0010500800732874123
1492.8162785265263,1492.8162785265263,0.9993996115640986,0.0010498645841223605
1492.8232231545283,1492.8232231545283,1.0022042332243568,0.0010509575368185641
1492.8301677823436,1492.8301677823436,1.0009051132729596,0.0010505119068054051
1492.8371124101589,1492.8371124101589,0.9999895596198147,0.001050786447669819
1492.8440570377882,1492.8440570377882,1.0004807676322378,0.0010511931674771573
1492.851001665324,1492.851001665324,0.9999905621288985,0.001049833956196247
1492.857946292674,1492.857946292674,0.9982383025332308,0.0010506348179699127
1492.8648909198373,1492.8648909198373,1.0002753086277267,0.0010500287419365646
1492.8718355470942,1492.8718355470942,1.0000081501573381,0.0010504353267878617
1492.878780174071,1492.878780174071,1.0019128133514155,0.0010510559359066213
1492.8857248009554,1492.8857248009554,0.9979648938151646,0.0010504367444917778
1492.8926694276533,1492.8926694276533,0.999124283108355,0.001050147406925768
1492.8996140543509,1492.8996140543509,0.9995738131745115,0.0010513659453642104
1492.9065586808624,1492.9065586808624,1.0006989388444558,0.0010507106482815806
1492.9135033072812,1492.9135033072812,1.0014234044643444,0.0010517151109183413
1492.9204479335128,1492.9204479335128,1.0001087960031625,0.001050029360413753
1492.9273925595594,1492.9273925595594,0.9992663667902473,0.0010502836550172828
1492.9343371856055,1492.9343371856055,1.0001121787746565,0.0010506040879612749
1492.9412818115584,1492.9412818115584,1.0010652080642526,0.0010509376002345023
1492.9482264373248,1492.9482264373248,0.9994574633128291,0.0010510901855017621
1492.9551710629983,1492.9551710629983,0.999152275621174,0.0010508379083290925
1492.9621156884853,1492.9621156884853,0.9993457511986807,0.001050252031915108
1492.9690603139722,1492.9690603139722,1.0015583985892158,0.0010506225711695695
1492.976004938994,1492.976004938994,1.0002422604755987,0.0010506973109739035
1492.9829495642014,1492.9829495642014,0.9994963112739412,0.0010500859816366937
1492.989894189223,1492.989894189223,0.9978636508648373,0.001050338837672127
1492.996838814151,1492.996838814151,1.0009172971999896,0.001050562727292953
1493.0037834388936,1493.0037834388936,0.9999954635070614,0.00105013571102812
1493.0107280635423,1493.0107280635423,1.001254803258987,0.0010504789304800195
1493.0176726880982,1493.0176726880982,1.001264726808213,0.0010507031038330921
1493.0246173123746,1493.0246173123746,0.9986736743810125,0.001051093258207581
1493.0315619367439,1493.0315619367439,0.9999818760363146,0.001050526510136807
1493.0385065609273,1493.0385065609273,0.9998718834682501,0.001050925148270346
1493.045451184831,1493.045451184831,1.0001202311823054,0.001050227443885163
1493.0523958088284,1493.0523958088284,1.0002227398051562,0.0010507945602975873
1493.059340432546,1493.059340432546,0.9993678593596993,0.001050531733329744
1493.0662850562637,1493.0662850562637,0.999765267124012,0.0010503768038193086
1493.0732296797946,1493.0732296797946,1.000283884186268,0.0010509023346513423
1493.08017430314,1493.08017430314,0.9999340557929267,0.0010520506676892874
1493.087118926299,1493.087118926299,0.9993760852970333,0.001050891208064127
1493.0940635494576,1493.0940635494576,1.0004625432462733,0.0010524096564186356
1493.1010081726167,1493.1010081726167,0.9992653838732766,0.0010503071076231867
1493.1079527955894,1493.1079527955894,1.0004408127914957,0.0010506796075388197
1493.1148974183754,1493.1148974183754,1.0006179612738353,0.001051028379986712
1493.1218420409755,1493.1218420409755,1.0007242363753215,0.0010517759791390789
1493.1287866635755,1493.1287866635755,0.9996194082191969,0.0010501332730147234
1493.135731285896,1493.135731285896,0.9991963223133595,0.0010497610049688521
1493.1426759082167,1493.1426759082167,1.0010129230141045,0.0010503559004173893
1493.1496205304443,1493.1496205304443,1.0002429523519292,0.0010505310033085524
1493.1565651523927,1493.1565651523927,1.0004742368823414,0.0010506047174818505
1493.1635097743404,1493.1635097743404,0.9986409589172098,0.0010506902681745958
1493.1704543961025,1493.1704543961025,1.0003419031253853,0.001050184785620543
1493.1773990177712,1493.1773990177712,0.9996571646007778,0.0010509793866349875
1493.1843436393467,1493.1843436393467,0.9989876520944885,0.0010507544804167486
1493.191288260736,1493.191288260736,1.000588086645486,0.0010517170917966087
1493.1982328820322,1493.1982328820322,1.0016276928521628,0.0010510806338910252
1493.2051775032348,1493.2051775032348,1.000282857149845,0.001051242011505711
1493.212122124252,1493.212122124252,0.9996866542240536,0.0010503781094358886
1493.219066745362,1493.219066745362,0.9999803908995885,0.0010515231728452257
1493.2260113661923,1493.2260113661923,1.000124066979107,0.0010504659383904946
1493.232955986557,1493.232955986557,1.0009401189885705,0.0010503980622883122
1493.2399006072947,1493.2399006072947,1.0004748958375618,0.0010499196169882717
1493.2468452276592,1493.2468452276592,0.9991301287778492,0.0010506758809962784
1493.2537898480243,1493.2537898480243,0.9998839400145216,0.0010501172759515291
1493.260734468203,1493.260734468203,0.9997105902489108,0.0010499194733021543
1493.2676790881949,1493.2676790881949,1.0007229229363133,0.001050331769001982
1493.2746237081874,1493.2746237081874,0.9992609925099126,0.0010500081225340474
1493.2815683280871,1493.2815683280871,0.9985158421215903,0.001049701937849104
1493.2885129477067,1493.2885129477067,1.0008229263587805,0.0010509976009781448
1493.2954575672334,1493.2954575672334,1.0011097938717666,0.001051056460499193
1493.3024021867604,1493.3024021867604,1.000182003569495,0.0010500161834262679
1493.3093468061004,1493.3093468061004,1.000091037595658,0.001049612958168104
1493.3162914252548,1493.3162914252548,0.9993355650895042,0.0010505551273318442
1493.3232360443155,1493.3232360443155,0.9989518570213847,0.0010498877967413294
1493.3301806632837,1493.3301806632837,1.0021971985485851,0.001050926631286577
1493.3371252821582,1493.3371252821582,0.9998650748632741,0.0010512136542794068
1493.3440699007538,1493.3440699007538,0.9991037144915562,0.0010492402576137163
1493.351014519256,1493.351014519256,0.9986916669671692,0.0010500283473157679
1493.357959137758,1493.357959137758,1.0009681913529738,0.0010511603952222152
1493.3649037562602,1493.3649037562602,1.0010505804966234,0.0010508263118651116
1493.3718483743899,1493.3718483743899,1.0009931300312314,0.00105125820171841
1493.3787929925195,1493.3787929925195,1.0002169963947567,0.001050967086217759
1493.3857376105561,1493.3857376105561,0.9988993372808403,0.0010505441980722546
1493.3926822283133,1493.3926822283133,0.9998604977019587,0.0010503531565790095
1493.3996268460703,1493.3996268460703,0.9992491504093854,0.0010512881968258276
1493.406571463641,1493.406571463641,0.9980795352469123,0.001051335406331227
