time,time,flux,flux_err
1354.1195466821748,1354.1195466821748,1.0000339141323884,0.000280883850503799
1354.1283429750722,1354.1283429750722,1.0001312144609864,0.0002809316701831811
1354.1359818606445,1354.1359818606445,1.0000560072504483,0.00025644151225673214
1354.1429263017096,1354.1429263017096,0.9996595817469522,0.00025636506494308334
1354.1498707426815,1354.1498707426815,0.9998465755840537,0.0002564371243147306
1354.1568151830947,1354.1568151830947,1.0000125903538126,0.00025646036737589015
1354.163759623508,1354.163759623508,1.000138443260779,0.00025646344717689687
1354.1707040638282,1354.1707040638282,0.9998890001802767,0.0002564337430945551
1354.1776485036826,1354.1776485036826,0.9999516771978094,0.00025646016399463007
1354.184592943351,1354.184592943351,1.0003606525917832,0.0002564979564483864
1354.1915373827396,1354.1915373827396,1.0001665262702215,0.00025649362970536717
1354.198481821942,1354.198481821942,0.9996824921776707,0.0002564225152220813
1354.2054262608654,1354.2054262608654,0.999958017766654,0.00025644038244323136
1354.2123706996022,1354.2123706996022,0.9998363800391065,0.00025642280583035087
1354.2193151379663,1354.2193151379663,1.0001773094562638,0.00025646050418125043
1354.226259576238,1354.226259576238,1.000148429955548,0.00025646932491833123
1354.2332040141362,1354.2332040141362,0.9998783093798267,0.00025644882261537875
1354.2401484521283,1354.2401484521283,0.999944223607365,0.0002564512125512152
1354.2470928896541,1354.2470928896541,1.0000200169906066,0.00025647967373477706
1354.2540373269942,1354.2540373269942,0.9998383423609803,0.00025645766626805806
1354.2609817640543,1354.2609817640543,1.000291067461204,0.0002564683966035463
1354.267926200929,1354.267926200929,1.0002529659216377,0.00025647580202857256
1354.2748706377097,1354.2748706377097,0.9995565385122267,0.000256413267761964
1354.2818150741184,1354.2818150741184,0.9997351321123145,0.0002564147130354035
1354.2887595104337,1354.2887595104337,1.0003109432131714,0.0002564732210955815
1354.2957039463768,1354.2957039463768,1.0001189507130086,0.0002564308078830189
1354.3026483824126,1354.3026483824126,0.9998106469741499,0.00025640669938064675
1354.3095928177033,1354.3095928177033,0.9997692412679713,0.00025640049451170177
1354.3165372532742,1354.3165372532742,1.0002079241596162,0.00025639673355898194
1354.323481688472,1354.323481688472,0.9999244498171341,0.0002564006970513105
1354.3304261233902,1354.3304261233902,1.0004567564356088,0.00025645350845876464
1354.3373705582155,1354.3373705582155,0.9995755410346379,0.00025634124289006623
1354.3443149927614,1354.3443149927614,0.999773622222515,0.0002563769292646123
1354.3512594271212,1354.3512594271212,0.9999487987279355,0.00025640627037995506
1354.3582038612944,1354.3582038612944,1.0001944770503803,0.0002564235039685324
1354.3651482952814,1354.3651482952814,1.000224244382954,0.00025639901216224445
1354.3720927291756,1354.3720927291756,0.9996778379510627,0.00025636311038339075
1354.379037162697,1354.379037162697,0.9998480194626337,0.00025636029346212674
1354.3859815961255,1354.3859815961255,1.0002130147371395,0.0002564317533123088
1354.3929260293676,1354.3929260293676,0.9996220137448443,0.0002563934964881447
1354.39987046233,1354.39987046233,1.0001451751162822,0.00025648186900174483
1354.4068148951997,1354.4068148951997,1.000321357724337,0.00025647470892112983
1354.4137593277896,1354.4137593277896,0.9997752991098012,0.0002563901296487175
1354.4207037602869,1354.4207037602869,1.0001734189349056,0.0002564514600989971
1354.4276481925976,1354.4276481925976,0.9998896837889493,0.000256412173081362
1354.4345926246285,1354.4345926246285,0.999677141910821,0.00025637728259332126
1354.4415370565669,1354.4415370565669,0.9999606439620375,0.0002564218764878543
1354.4484814883187,1354.4484814883187,1.0001851238523398,0.00025645896798252876
1354.4554259197914,1354.4554259197914,1.0000696144630832,0.00025641387986215307
1354.462370351264,1354.462370351264,1.0001439274157173,0.00025643889785402816
1354.469314782364,1354.469314782364,0.9998845093069122,0.0002564262378811443
1354.4762592134637,1354.4762592134637,1.0002361645143285,0.00025643745968043465
1354.4832036441917,1354.4832036441917,1.0000917833984686,0.0002564155197223723
1354.490148074919,1354.490148074919,0.9998415858775255,0.0002563588232873311
1354.4970925053672,1354.4970925053672,0.9998011949793923,0.00025637414176044027
1354.504036935722,1354.504036935722,0.9998197749382914,0.00025637895251687384
1354.5109813657975,1354.5109813657975,1.000061161544497,0.0002564308898933961
1354.5179257958735,1354.5179257958735,1.0000572392273832,0.0002564288537032081
1354.5248702256692,1354.5248702256692,1.0001474933593189,0.00025643573564975884
1354.5318146553723,1354.5318146553723,1.0000638688735133,0.0002564169018314601
1354.5387590847963,1354.5387590847963,1.0000700787714956,0.0002564292742589621
1354.5457035141267,1354.5457035141267,0.9999585696747404,0.00025641336442107875
1354.552647943364,1354.552647943364,0.9998476881125692,0.0002563899175943692
1354.559592372229,1354.559592372229,0.9994969741053964,0.00025637131092104697
1354.5665368010002,1354.5665368010002,0.999932194205478,0.0002563832176801525
1354.5734812297721,1354.5734812297721,1.0002792495329431,0.0002564585430498888
1354.5804256584506,1354.5804256584506,0.9999255175076301,0.00025640253043127386
1354.5873700867567,1354.5873700867567,0.9999372744700441,0.00025640595344306633
1354.59431451497,1354.59431451497,1.0000687225655454,0.0002564322755100853
1354.6012589431825,1354.6012589431825,0.9999284146482044,0.0002564008093154452
1354.6082033710231,1354.6082033710231,1.0000869266823105,0.0002564326564397581
1354.61514779877,1354.61514779877,1.0001736535925936,0.00025643742158872133
1354.6220922264242,1354.6220922264242,0.9999656860838275,0.0002564017529912837
1354.629036653799,1354.629036653799,0.9996597599212391,0.00025636907675871597
1354.635981081081,1354.635981081081,1.0000817237891106,0.0002564069812090559
1354.6429255083622,1354.6429255083622,1.0002211775888021,0.00025640369021746873
1354.6498699353647,1354.6498699353647,0.9995798142704627,0.00025631736339131643
1354.6568143621803,1354.6568143621803,0.9999952665550917,0.00025638215069994513
1354.6637587889031,1354.6637587889031,0.9999884606985792,0.0002563780692803545
1354.670703215347,1354.670703215347,1.0003133992625994,0.00025639200845389593
1354.67764764179,1354.67764764179,1.0000285401715676,0.0002563876220267484
1354.6845920682335,1354.6845920682335,1.0001283526371316,0.00025640456537703686
1354.6915364943975,1354.6915364943975,1.000243559991236,0.00025639423574946787
1354.698480920375,1354.698480920375,1.0000019102842272,0.0002563902181625788
1354.705425346353,1354.705425346353,1.0001079798041033,0.0002564030056429557
1354.7123697719583,1354.7123697719583,0.9994521395085844,0.0002563260238832894
1354.7193141975633,1354.7193141975633,1.0001615526426433,0.0002563979119772255
1354.7262586230759,1354.7262586230759,0.9994414938961624,0.0002563289864396618
1354.733203048308,1354.733203048308,1.0003173462780288,0.00025641275513190674
1354.7401474735411,1354.7401474735411,1.0000101330941211,0.00025638790499202393
1354.7470918985873,1354.7470918985873,1.0000583025759182,0.00025638270902752597
1354.7540363235405,1354.7540363235405,0.9999233473797862,0.00025636093986197543
1354.7609807483075,1354.7609807483075,1.000314073072289,0.00025639316947875476
1354.7679251729812,1354.7679251729812,0.999814504739966,0.00025634030501850587
1354.774869597562,1354.774869597562,1.000005174925193,0.00025636273165045994
1354.7818140218637,1354.7818140218637,1.0000407082866458,0.0002563607467359816
1354.788758446258,1354.788758446258,1.000100588734076,0.00025635470815656733
1354.7957028703731,1354.7957028703731,0.9994942920399421,0.0002562952088616833
1354.802647294302,1354.802647294302,1.0002597082813767,0.0002563804905602777
1354.8095917181377,1354.8095917181377,1.0001145691388438,0.0002563588152331363
1354.8165361418803,1354.8165361418803,1.0000370400658398,0.0002563726306718282
1354.8234805655297,1354.8234805655297,1.000208442828428,0.0002563858119192388
1354.830424988993,1354.830424988993,1.0001577818529865,0.0002563551893091957
1354.8373694124562,1354.8373694124562,0.9994715000159158,0.0002562975230160774
1354.8443138356402,1354.8443138356402,0.9996683465618691,0.0002563120246260791
1354.8512582587307,1354.8512582587307,1.0001334003688913,0.00025634029817708494
1354.858202681728,1354.858202681728,1.0003565134146946,0.00025638560424288953
1354.8651471046323,1354.8651471046323,1.0001385760400872,0.0002563507342506626
1354.872091527351,1354.872091527351,0.9997519997450706,0.00025632891210942884
1354.8790359499756,1354.8790359499756,1.0001364603740046,0.00025632849225117234
1354.8859803725077,1354.8859803725077,1.0002139052317838,0.0002563445503834212
1354.8929247948531,1354.8929247948531,0.9998228959836253,0.00025632634064215204
1354.8998692171986,1354.8998692171986,0.9996999478486499,0.00025630433378608645
1354.9068136394515,1354.9068136394515,0.9999480818528396,0.0002563369909065172
1354.913758061331,1354.913758061331,1.000162636871787,0.00025632749019195136
1354.92070248349,1354.92070248349,0.9998809614891073,0.000256327114266674
1354.9276469052772,1354.9276469052772,1.0002295176972258,0.00025636465685387557
1354.9345913268776,1354.9345913268776,0.9999845399137504,0.00025632286794717563
1354.9429246327425,1354.9429246327425,0.9999338054356306,0.0002563126960568246
1354.9498690541568,1354.9498690541568,1.0001033366705356,0.0002563351856887576
1354.956813475478,1354.956813475478,1.000161268191169,0.00025633794280580503
1354.9637578967058,1354.9637578967058,0.9998067480337408,0.00025631125784243236
1354.970702317841,1354.970702317841,1.00016662786314,0.00025633295021419185
1354.9776467387892,1354.9776467387892,1.0002397983103388,0.00025636642380449535
1354.984591159645,1354.984591159645,0.9996144481979978,0.0002562823814792383
1354.9915355805006,1354.9915355805006,0.9996902385527905,0.0002563062743068943
1354.9984800010764,1354.9984800010764,0.9999496894040163,0.0002563529641366507
1355.0054244216524,1355.0054244216524,1.0002148667946809,0.000256360514204389
1355.0123688420422,1355.0123688420422,0.9999201900125716,0.0002563029416379716
1355.0193132624322,1355.0193132624322,1.0001757376785472,0.000256359203085561
1355.0262576826358,1355.0262576826358,0.9999717882165294,0.0002563339823255646
1355.0332021027461,1355.0332021027461,1.0004992164895488,0.0002563832412179948
1355.0401465227637,1355.0401465227637,0.9997757021264583,0.0002562864819218862
1355.0470909425944,1355.0470909425944,1.0000845782447052,0.00025632799166077367
1355.0540353623323,1355.0540353623323,0.9996777288286852,0.000256257339957096
1355.0609797821635,1355.0609797821635,1.000313528173636,0.00025636786770355123
1355.067924201622,1355.067924201622,1.000085433152827,0.00025633625112238295
1355.0748686210804,1355.0748686210804,1.0000530617861811,0.00025632869026612475
1355.081813040539,1355.081813040539,0.9997502951047632,0.00025630436515719577
1355.088757459811,1355.088757459811,1.0000325364832228,0.0002563127629112302
1355.09570187899,1355.09570187899,1.0004349237219985,0.000256364665592476
1355.1026462979833,1355.1026462979833,0.9999469845753801,0.00025630046825940217
1355.1095907168826,1355.1095907168826,0.9995518227657781,0.00025623845739328064
1355.1165351357827,1355.1165351357827,1.000037230675503,0.00025629404680002274
1355.1234795544958,1355.1234795544958,1.0003135148758844,0.00025633731285017755
1355.1304239732094,1355.1304239732094,0.9997320787893103,0.0002563033058759443
1355.1373683917368,1355.1373683917368,1.0001546827880432,0.0002563186742113681
1355.1443128101703,1355.1443128101703,0.9998416334080744,0.00025629287729427507
1355.1512572285117,1355.1512572285117,1.0001470474805054,0.00025630968568172584
1355.1582016467594,1355.1582016467594,0.9997483156355343,0.00025630135108816246
1355.1651460649136,1355.1651460649136,1.0001692555279802,0.0002563210997638571
1355.1720904829756,1355.1720904829756,1.0000830898919268,0.0002563255614317636
1355.1790349008504,1355.1790349008504,1.0002447729513082,0.0002563584187228002
1355.185979318726,1355.185979318726,1.0003239573997136,0.0002563659935078347
1355.1929237365082,1355.1929237365082,0.9999700565829596,0.0002563244985067275
1355.1998681541968,1355.1998681541968,1.0000594817353499,0.0002563440185775387
1355.2068125717,1355.2068125717,0.9994200792763502,0.0002562581878649285
1355.2137569892955,1355.2137569892955,1.0001913485959817,0.0002563424524403923
1355.2207014064259,1355.2207014064259,1.0002130218900926,0.0002563301973863829
1355.227645823929,1355.227645823929,0.9999649544754854,0.00025631983135207694
1355.234590241152,1355.234590241152,0.9995244490365455,0.0002562778785034787
1355.241534658096,1355.241534658096,1.0001739718165605,0.00025634379831059305
1355.2484790749465,1355.2484790749465,1.0001287107715353,0.00025633045983800576
1355.2554234919837,1355.2554234919837,1.0001704891270866,0.000256318653219035
1355.2623679087415,1355.2623679087415,0.999976085354902,0.0002562966200274919
1355.269312325406,1355.269312325406,1.0000803799502598,0.0002562982752858746
1355.2762567419772,1355.2762567419772,0.9996514826629138,0.00025624986266436416
1355.2832011585488,1355.2832011585488,1.0000186980459609,0.00025629223418309
1355.2901455749338,1355.2901455749338,1.0003466526849902,0.0002563279492091286
1355.2970899913191,1355.2970899913191,0.9998451110733827,0.00025626630484814884
1355.3040344075177,1355.3040344075177,0.9997559003355813,0.0002562554851598581
1355.3109788236236,1355.3109788236236,1.0001687865722009,0.00025630388739993185
1355.3179232396365,1355.3179232396365,1.0002007330645992,0.00025630481122529777
1355.3248676555559,1355.3248676555559,1.0002238024942718,0.00025631403313204686
1355.3318120715683,1355.3318120715683,0.99974343342741,0.0002562995444739534
1355.3395898171707,1355.3395898171707,0.9999017520615177,0.0002562941412817746
1355.3470897860884,1355.3470897860884,0.9998977139066938,0.00025630194749216774
1355.3540342016354,1355.3540342016354,0.9997321810764797,0.00025627871495396206
1355.3609786171824,1355.3609786171824,1.0001657369510206,0.0002563716363011711
1355.3679230325429,1355.3679230325429,1.0000947129982118,0.0002563433382305908
1355.3748674479034,1355.3748674479034,1.0003060378611934,0.00025633226597952016
1355.3818118630782,1355.3818118630782,0.9996974387933101,0.00025628139363469653
1355.3887562781595,1355.3887562781595,1.0002136297953605,0.00025632896832611396
1355.3957006933338,1355.3957006933338,1.000246673600521,0.0002563299006823155
1355.4037562145973,1355.4037562145973,1.0002958359844771,0.0002563303213528429
1355.4109784059906,1355.4109784059906,0.9997787571305559,0.0002562737288774986
1355.417922820793,1355.417922820793,0.9995433466674772,0.0002562631388086913
1355.4248672355948,1355.4248672355948,1.0001143206046534,0.00025634799768513235
1355.431811650024,1355.431811650024,1.0003814000092306,0.00025628110292686443
1355.4387560646398,1355.4387560646398,0.999803271935306,0.00025626189621764803
1355.445700478976,1355.445700478976,1.0000079769844132,0.00025627422553702614
1355.452644893312,1355.452644893312,0.9999933386162091,0.0002562907347698864
1355.4595893075555,1355.4595893075555,1.0000105037874358,0.00025628872427851723
1355.4665337217987,1355.4665337217987,1.0002614530671745,0.00025630468112982925
1355.4734781357624,1355.4734781357624,0.9999363902099727,0.00025627941322035907
1355.4804225498192,1355.4804225498192,0.9995223954452124,0.0002562068204325128
1355.4873669636895,1355.4873669636895,1.0004928073113544,0.0002563555315642144
1355.4943113774673,1355.4943113774673,1.0004427387878212,0.00025637180303271056
1355.5012557912446,1355.5012557912446,0.999869364064654,0.0002562933560448211
1355.5082002049285,1355.5082002049285,0.9994309811019673,0.0002562027022916133
1355.5151446183336,1355.5151446183336,0.9998929035984373,0.00025627755019750215
1355.5220890319251,1355.5220890319251,1.0000818865493373,0.0002563117544693963
1355.5290334453293,1355.5290334453293,1.0001904198009899,0.0002562965162009166
1355.5359778586412,1355.5359778586412,0.9997258636322097,0.00025627129274904514
1355.5429222718603,1355.5429222718603,1.0004835152013207,0.0002563156908858083
1355.5498666849855,1355.5498666849855,0.9998948981850126,0.00025629411649452487
1355.556811098018,1355.556811098018,0.9999717372900798,0.0002563281307544648
1355.5637555109574,1355.5637555109574,0.9999464200811197,0.0002562967502777073
1355.5706999238967,1355.5706999238967,0.9997883073688378,0.0002562827298913478
1355.5776443366497,1355.5776443366497,0.9999004041249456,0.0002563127589118787
1355.5845887494957,1355.5845887494957,1.000105399314468,0.00025634073716866387
1355.5915331619692,1355.5915331619692,1.0002100221135044,0.0002563349022190829
1355.598477574443,1355.598477574443,1.0001700180036655,0.0002563479508474094
1355.6054219870093,1355.6054219870093,1.000014271690679,0.00025631995101870944
1355.6123663993899,1355.6123663993899,1.0000840271267781,0.00025635372693532077
1355.6193108118637,1355.6193108118637,0.9999475440196702,0.0002563094877607842
1355.6262552241508,1355.6262552241508,0.999804749238155,0.00025629363243091243
1355.6331996363451,1355.6331996363451,0.9997787408628792,0.00025627771564059167
1355.6401440483532,1355.6401440483532,0.9994634674635863,0.00025623846352060113
1355.647088460361,1355.647088460361,1.0005300642003152,0.0002563571061830851
1355.6540328722758,1355.6540328722758,1.0000417567176414,0.000256331063173009
1355.6609772840977,1355.6609772840977,0.999883042925326,0.00025627393117591063
1355.667921695919,1355.667921695919,1.0004418179267522,0.0002562968370933992
1355.6748661075546,1355.6748661075546,1.000229334035217,0.0002563197249574553
1355.6818105191899,1355.6818105191899,0.999662560346658,0.00025626636812387557
1355.6887549306389,1355.6887549306389,0.9996668103472335,0.0002562448434001481
1355.6956993421813,1355.6956993421813,1.0001472628602925,0.00025631026897713976
1355.7026437535374,1355.7026437535374,0.9998763153983262,0.0002562904478236125
1355.7095881648002,1355.7095881648002,1.0000248977044521,0.00025630105965102605
1355.71653257597,1355.71653257597,1.0003802358872687,0.000256341786275118
1355.7234769871397,1355.7234769871397,1.0003165056773613,0.0002563219707828905
1355.7304213982165,1355.7304213982165,0.9994391425406756,0.0002562609742907362
1355.7373658091997,1355.7373658091997,1.0001991717468874,0.00025631062292946543
1355.7443102200903,1355.7443102200903,1.0000399325118907,0.00025632600407896197
1355.7526435130094,1355.7526435130094,0.9999003186021014,0.00025629923418217385
1355.7595879237138,1355.7595879237138,0.9999253619458065,0.00025627130998752125
1355.7665323344177,1355.7665323344177,1.000061169781977,0.0002563231945188314
1355.7734767450288,1355.7734767450288,0.9996053378584755,0.0002562802434836919
1355.7804211554528,1355.7804211554528,1.0001559976234904,0.00025635234905927535
1355.7873655657852,1355.7873655657852,1.0005166703855997,0.00025638290789100596
1355.7943099763029,1355.7943099763029,0.9996399900496538,0.0002562771326585163
1355.8012543865411,1355.8012543865411,0.9997998308277823,0.00025630148420407344
1355.8081987966864,1355.8081987966864,0.9999963898985824,0.0002563361920567326
1355.8151432068316,1355.8151432068316,1.0006821488127682,0.00025639749021398443
1355.8220876168841,1355.8220876168841,0.999719703805727,0.0002562799339378177
1355.829032026657,1355.829032026657,1.0000987947205864,0.0002563246378231322
1355.8359764367087,1355.8359764367087,0.999600722071419,0.0002562797113765835
1355.8429208464818,1355.8429208464818,0.999811959102478,0.000256306477410707
1355.8498652561611,1355.8498652561611,0.9999991436819051,0.0002563300741825224
1355.856809665841,1355.856809665841,1.000504608707487,0.0002563751050407893
1355.863754075334,1355.863754075334,0.9996279379257137,0.0002562900279075975
1355.8706984849207,1355.8706984849207,1.00021972818056,0.0002563427586955157
1355.8776428943213,1355.8776428943213,0.9997699295662738,0.00025627929973939004
