time,time,flux,flux_err
1354.1194085967024,1354.1194085967024,1.0001139500384841,0.0001275736350760231
1354.1282050991474,1354.1282050991474,1.000109144056044,0.000127568847562744
1354.1358441667464,1354.1358441667464,0.9998844657103112,0.00011644816686302116
1354.1427887733075,1354.1427887733075,0.9997914405665451,0.00011643080419459291
1354.1497333795892,1354.1497333795892,0.9998778465398568,0.00011644917191772566
1354.156677985778,1354.156677985778,0.9999788004103992,0.00011645336545826805
1354.163622591594,1354.163622591594,1.0000546085294402,0.00011645338355546334
1354.1705671968516,1354.1705671968516,0.9999533562091433,0.00011645725973473232
1354.177511802202,1354.177511802202,1.0000913674767684,0.00011645776044697091
1354.18445640718,1354.18445640718,0.9999338865948108,0.00011644435556831792
1354.1914010117853,1354.1914010117853,1.0000333956442975,0.00011645306706769618
1354.1983456162975,1354.1983456162975,1.0000979553916618,0.00011645139023783552
1354.2052902205305,1354.2052902205305,1.0000118030142773,0.00011644773510899237
1354.2122348244839,1354.2122348244839,0.999966583248218,0.00011644493344179193
1354.2191794280648,1354.2191794280648,1.0000092520471842,0.00011644878123736643
1354.2261240314597,1354.2261240314597,0.9999609674157564,0.00011644576441563236
1354.233068634761,1354.233068634761,0.9998993601069568,0.00011643370161038339
1354.2400132375974,1354.2400132375974,1.000097667703216,0.00011644736924022376
1354.2469578402468,1354.2469578402468,0.9998084462740231,0.00011643272951500007
1354.25390244271,1354.25390244271,1.0000284427675794,0.00011644746991856659
1354.2608470448938,1354.2608470448938,1.0000881190994781,0.00011644335276073609
1354.2677916468915,1354.2677916468915,1.0000957614887658,0.00011643894724369486
1354.2747362485168,1354.2747362485168,1.0000427021353684,0.00011644664267397041
1354.2816808497696,1354.2816808497696,1.0001385380187346,0.00011645410061952468
1354.2886254513012,1354.2886254513012,1.0000085478619616,0.0001164454927429892
1354.2955700519021,1354.2955700519021,1.0000403175667063,0.00011644598236082969
1354.302514652782,1354.302514652782,0.999764145022105,0.00011643288088803173
1354.30945925329,1354.30945925329,0.9999103077008125,0.00011644306480006242
1354.3164038534253,1354.3164038534253,0.999955112625184,0.00011644186210997773
1354.323348453467,1354.323348453467,0.9999251129894533,0.00011644618351830823
1354.330293053136,1354.330293053136,1.0000063907407586,0.00011645519238434603
1354.3372376527127,1354.3372376527127,1.0001965718126358,0.00011645995516974022
1354.3441822520094,1354.3441822520094,1.0000759720446255,0.00011645633055019072
1354.3511268511202,1354.3511268511202,1.0000535671610886,0.00011645355568262644
1354.358071449858,1354.358071449858,0.9997363211177273,0.00011643591745514608
1354.3650160485959,1354.3650160485959,1.0000426322085043,0.00011644853494146446
1354.371960646869,1354.371960646869,1.0001036496190754,0.00011645446362993272
1354.378905245048,1354.378905245048,0.9999868845671532,0.00011644418800021326
1354.3858498430411,1354.3858498430411,0.9999458633217945,0.00011643975249243082
1354.3927944406614,1354.3927944406614,1.0000893924069751,0.00011645804767727822
1354.3997390381887,1354.3997390381887,1.000037507093341,0.00011644648539193405
1354.4066836354368,1354.4066836354368,1.000123132110655,0.0001164529392585707
1354.4136282325917,1354.4136282325917,0.9999756925485824,0.00011644559563292394
1354.4205728293737,1354.4205728293737,0.9997683438834499,0.00011642847253141737
1354.427517426063,1354.427517426063,0.9997224478063419,0.00011642385430093275
1354.4344620224724,1354.4344620224724,1.0001205260648507,0.00011644701107619971
1354.4414066186962,1354.4414066186962,1.000244652145484,0.00011646518590099951
1354.4483512146403,1354.4483512146403,0.9997848323102325,0.00011642654810988545
1354.4552958104914,1354.4552958104914,1.000191185711097,0.00011645135917425151
1354.46224040597,1354.46224040597,1.00017681948963,0.00011645532224309615
1354.469185001355,1354.469185001355,1.0001132415368938,0.00011644430205715824
1354.476129596554,1354.476129596554,0.9998878115238015,0.00011643965612441497
1354.483074191474,1354.483074191474,0.9997479319079587,0.00011642538128130045
1354.4900187862072,1354.4900187862072,0.999969805610584,0.00011643248781270977
1354.4969633807543,1354.4969633807543,0.9998267836532737,0.00011642796574623522
1354.5039079750222,1354.5039079750222,1.0001455245635824,0.00011645152055358513
1354.5108525693827,1354.5108525693827,1.0000078198909563,0.00011643451717176448
1354.5177971630924,1354.5177971630924,0.9999003722625641,0.00011644467524498324
1354.5247417569874,1354.5247417569874,1.0002677991285247,0.00011645276298915348
1354.5316863505097,1354.5316863505097,1.0002396352458462,0.00011645708291429269
1354.5386309439393,1354.5386309439393,0.9999107552420308,0.00011644398367215353
1354.5455755369962,1354.5455755369962,0.9997754241949135,0.00011643062624120459
1354.5525201300532,1354.5525201300532,0.9999915823971002,0.0001164378924751736
1354.559464722738,1354.559464722738,0.9999614571322084,0.00011644125955943829
1354.566409315422,1354.566409315422,1.0000865880372296,0.00011645566267537747
1354.5733539077341,1354.5733539077341,0.9999130791447749,0.00011644200023198641
1354.580298500046,1354.580298500046,0.999966523138894,0.00011643654120514074
1354.5872430919858,1354.5872430919858,0.9999814258191411,0.0001164392802694261
1354.5941876840184,1354.5941876840184,1.0001344879156513,0.00011645171721751814
1354.601132275492,1354.601132275492,0.9999385329921058,0.00011643821921483475
1354.6080768669658,1354.6080768669658,0.9999167760261379,0.00011644127837096058
1354.6150214582533,1354.6150214582533,1.0000419035647274,0.00011644518578725104
1354.6219660493543,1354.6219660493543,1.0002545127603149,0.00011645783811787075
1354.6289106402696,1354.6289106402696,1.0001349053961426,0.00011645400636795149
1354.6358552309052,1354.6358552309052,0.9998169335214927,0.00011643415765454845
1354.6427998215402,1354.6427998215402,0.9998890253062239,0.00011643474831996756
1354.64974441199,1354.64974441199,0.9998812987077311,0.00011642514834151474
1354.6566890021597,1354.6566890021597,0.999936473236871,0.0001164372583950138
1354.6636335921435,1354.6636335921435,1.0000911822788319,0.00011644913315584605
1354.6705781821274,1354.6705781821274,0.9999005219341377,0.0001164357164437438
1354.677522771645,1354.677522771645,1.0000902512670486,0.0001164449837653337
1354.6844673614426,1354.6844673614426,0.9999790432519988,0.0001164406793155751
1354.6914119504947,1354.6914119504947,1.0001818159471947,0.00011645181854912971
1354.6983565398264,1354.6983565398264,1.0000099066506167,0.00011644421816741824
1354.7053011286928,1354.7053011286928,1.0000443304966429,0.00011643561635882034
1354.7122457175587,1354.7122457175587,0.9999106750407198,0.00011642817981524607
1354.7191903062383,1354.7191903062383,1.0000930089796585,0.0001164400162621602
1354.726134894639,1354.726134894639,0.9998594311692613,0.00011643002954496852
1354.7330794831325,1354.7330794831325,0.9998554113025827,0.0001164222087191263
1354.7400240711606,1354.7400240711606,0.9999499846556935,0.0001164365941815758
1354.7469686590953,1354.7469686590953,1.0000624355321062,0.00011644466174238455
1354.7539132470297,1354.7539132470297,1.0002718002342386,0.00011645325260152424
1354.760857834685,1354.760857834685,1.0001092244899177,0.00011643828440669925
1354.767802422154,1354.767802422154,1.000021075086391,0.00011644297266397647
1354.77474700953,1354.77474700953,0.9998572887673187,0.00011643605358661486
1354.7816915966266,1354.7816915966266,0.9998053389148834,0.00011642919956842711
1354.7886361837232,1354.7886361837232,0.9999155913605632,0.00011643141927953816
1354.7955807705403,1354.7955807705403,1.0000542023609715,0.00011644272851349127
1354.8025253572644,1354.8025253572644,1.00021929481815,0.00011645177087358763
1354.8094699438022,1354.8094699438022,1.0000933904127816,0.00011644450480553528
1354.816414530247,1354.816414530247,0.9997490597124712,0.00011643121888535099
1354.8233591164121,1354.8233591164121,0.9999854317546604,0.0001164387821140518
1354.830303702484,1354.830303702484,0.9999958877559326,0.00011644328975733322
1354.8372482883701,1354.8372482883701,1.0000544899875647,0.00011644667931052694
1354.8441928741627,1354.8441928741627,1.0001022680413723,0.0001164563359703904
1354.8511374598625,1354.8511374598625,0.9999657995644992,0.00011643587289077404
1354.8580820451893,1354.8580820451893,0.9999027989525213,0.00011643549783246475
1354.8650266305162,1354.8650266305162,1.0000506638319522,0.00011645155819689737
1354.8719712157504,1354.8719712157504,0.9999920611620393,0.00011644242612871303
1354.8789158006116,1354.8789158006116,0.999971987033273,0.00011643672126526421
1354.88586038538,1354.88586038538,1.0000318526963103,0.00011643704421002564
1354.892804970148,1354.892804970148,0.9999936223119423,0.00011644328312300858
1354.8997495549163,1354.8997495549163,1.0000585643334712,0.0001164379750509705
1354.9066941393123,1354.9066941393123,1.0000804004201427,0.0001164446686511127
1354.9136387236144,1354.9136387236144,0.9999009203527347,0.00011643493510912848
1354.9205833076378,1354.9205833076378,0.9998224791905151,0.0001164250127008032
1354.9275278916612,1354.9275278916612,0.9998657694448221,0.00011642694305717739
1354.934472475498,1354.934472475498,1.0000933539594512,0.00011644294811408084
1354.9428059759161,1354.9428059759161,1.0002358830254674,0.00011645264034284863
1354.9497505594738,1354.9497505594738,0.9999916439458648,0.00011643814429256773
1354.956695142845,1354.956695142845,1.000142181948491,0.00011643889786696201
1354.9636397261231,1354.9636397261231,1.000003969524419,0.00011644194395437612
1354.970584309122,1354.970584309122,0.9998161555426354,0.00011642855308689523
1354.9775288921203,1354.9775288921203,1.0000751088718136,0.0001164428693369715
1354.9844734750263,1354.9844734750263,0.9998232099895018,0.00011643022049904904
1354.9914180575593,1354.9914180575593,1.0003370151423812,0.00011645466956410283
1354.9983626399992,1354.9983626399992,0.9998716500249142,0.00011643935308312037
1355.005307222439,1355.005307222439,0.9996720061620181,0.00011642278584316839
1355.012251804879,1355.012251804879,0.9997926921968713,0.00011643334876829732
1355.0191963869465,1355.0191963869465,1.0002801883687154,0.00011645505241605707
1355.0261409690138,1355.0261409690138,1.0000768708307544,0.0001164375865561442
1355.033085550895,1355.033085550895,0.9999546727459829,0.00011643357384632978
1355.0400301325901,1355.0400301325901,1.0000105958929333,0.00011644218356188236
1355.0469747141915,1355.0469747141915,1.0000248642021492,0.00011643476578705955
1355.0539192957006,1355.0539192957006,1.000087560749184,0.00011644221970170206
1355.0608638769295,1355.0608638769295,1.0002684425883168,0.00011644779843868543
1355.067808458159,1355.067808458159,0.9998582309491549,0.00011642643294318636
1355.0747530392018,1355.0747530392018,1.0000579299386576,0.00011644466898692454
1355.0816976201515,1355.0816976201515,0.9998593354891762,0.00011643802760129688
1355.0886422009148,1355.0886422009148,1.000007580755508,0.00011645066070632849
1355.0955867815858,1355.0955867815858,0.9999071369809096,0.00011644141750935099
1355.102531362163,1355.102531362163,0.9998386502367389,0.00011644168617359107
1355.1094759425537,1355.1094759425537,0.9999102332946406,0.00011643625673688501
1355.1164205228517,1355.1164205228517,1.0001617365827837,0.00011645554360399989
1355.1233651029634,1355.1233651029634,1.0001458986780598,0.00011646246742086827
1355.130309683075,1355.130309683075,1.0000772659715562,0.0001164582774340259
1355.1372542628144,1355.1372542628144,0.9998391382135761,0.00011644055695464584
1355.1441988426463,1355.1441988426463,1.0000701368910745,0.00011645672856479504
1355.1511434222925,1355.1511434222925,1.000161462244596,0.00011646005018301792
1355.1580880018453,1355.1580880018453,0.9999230392184961,0.00011644788645719139
1355.1650325811186,1355.1650325811186,0.9999972932372299,0.00011645377048335407
1355.1719771604855,1355.1719771604855,1.000013877308509,0.00011646388914600461
1355.1789217395724,1355.1789217395724,0.9998064296345884,0.00011645068426001634
1355.185866318753,1355.185866318753,0.9999845716243584,0.00011645884270670257
1355.1928108974678,1355.1928108974678,1.0000773681260124,0.00011646099883739292
1355.1997554762754,1355.1997554762754,0.9999848948592611,0.00011646730125386363
1355.2067000549903,1355.2067000549903,0.9998306620169253,0.00011645010342410645
1355.2136446335185,1355.2136446335185,1.0001174132237736,0.00011645910649349853
1355.2205892118604,1355.2205892118604,1.000058264750383,0.00011644971940807595
1355.2275337902029,1355.2275337902029,1.0000430042546131,0.00011646084124173309
1355.2344783683584,1355.2344783683584,0.9999709212894317,0.00011645628657794799
1355.2414229462352,1355.2414229462352,1.000087314439413,0.00011646169886802078
1355.248367524484,1355.248367524484,0.9999878874746759,0.00011645232836845114
1355.2553121022672,1355.2553121022672,0.9999882450760504,0.00011645357982923324
1355.2622566797713,1355.2622566797713,0.9999463527657276,0.00011644961415515499
1355.2692012573682,1355.2692012573682,0.9998628900983189,0.00011644871642857225
1355.276145834779,1355.276145834779,1.0000161661308584,0.00011645907338212315
1355.28309041219,1355.28309041219,1.0001264693396952,0.00011646092494208311
1355.2900349894146,1355.2900349894146,1.0000979882761212,0.00011646391798594751
1355.2969795664528,1355.2969795664528,1.0000287914298767,0.00011645286068294252
1355.303924143491,1355.303924143491,0.9999580090365747,0.00011646098267161835
1355.3108687203428,1355.3108687203428,1.000007092884905,0.00011645704611200664
1355.3178132971025,1355.3178132971025,0.9999604671480269,0.00011644742065024653
1355.3247578736748,1355.3247578736748,0.9998943132301203,0.00011644706331419357
1355.3317024502473,1355.3317024502473,0.9998794598681437,0.0001164491416729072
1355.3394803757815,1355.3394803757815,1.000034097392391,0.00011645670176537243
1355.346980518111,1355.346980518111,0.9999943248502456,0.00011645327831283727
1355.3539250944043,1355.3539250944043,1.0002666947958754,0.00011646955529967012
1355.3608696704182,1355.3608696704182,1.0000284222841522,0.00011646135566274216
1355.3678142463389,1355.3678142463389,0.9998502783527219,0.00011644768143140114
1355.374758822073,1355.374758822073,1.0000238040406928,0.00011645083781797533
1355.3817033979008,1355.3817033979008,1.0001349696499546,0.00011644962916558315
1355.388647973356,1355.388647973356,0.9999068284469151,0.00011644236234636557
1355.395592548811,1355.395592548811,0.9997458885727937,0.00011643172591794992
1355.4036482563388,1355.4036482563388,0.9998843505480757,0.0001164363128639522
1355.4108706145323,1355.4108706145323,1.0001409771147887,0.00011645611721887641
1355.4178151897083,1355.4178151897083,1.000198858172158,0.0001164509222337228
1355.4247597646977,1355.4247597646977,0.999880100241797,0.00011643191243603594
1355.4317043395936,1355.4317043395936,1.0001128200896479,0.0001164322704494462
1355.43864891449,1355.43864891449,1.0000776680365184,0.00011644266021348257
1355.4455934891068,1355.4455934891068,0.999945396346232,0.00011644105816795437
1355.4525380637238,1355.4525380637238,1.0000086775442276,0.00011644707860578457
1355.4594826381544,1355.4594826381544,1.000021883240308,0.00011644293527456654
1355.466427212492,1355.466427212492,0.9999129081614921,0.00011643115044296872
1355.4733717868294,1355.4733717868294,0.9998370631669603,0.00011644297806151606
1355.4803163608874,1355.4803163608874,0.9999889630489118,0.00011644999342686892
1355.4872609349454,1355.4872609349454,1.0000898358359067,0.00011646351062815478
1355.4942055089105,1355.4942055089105,1.0001622711567668,0.00011647071970910725
1355.501150082782,1355.501150082782,1.0001974678535956,0.00011646960907521634
1355.5080946564674,1355.5080946564674,1.000105137308422,0.00011645422523782053
1355.5150392300598,1355.5150392300598,0.9997159981610995,0.0001164409216570486
1355.5219838034664,1355.5219838034664,0.9997729477263771,0.00011645048136950597
1355.5289283770585,1355.5289283770585,0.9998860283079832,0.00011644118208645258
1355.535872950185,1355.535872950185,0.9999784342526192,0.00011645826225799389
1355.5428175233121,1355.5428175233121,1.0000837865896344,0.00011645612277647109
1355.5497620964384,1355.5497620964384,1.0000898581967805,0.0001164687817962842
1355.5567066695653,1355.5567066695653,1.0001245861251946,0.00011646704114371344
1355.563651242413,1355.563651242413,1.0000871138877323,0.00011646613718694616
1355.570595815167,1355.570595815167,1.0000179787053323,0.00011646141319672477
1355.5775403878283,1355.5775403878283,0.9999732255316219,0.00011645343981816797
1355.5844849604891,1355.5844849604891,1.0000673066622099,0.00011645566476933711
1355.5914295328705,1355.5914295328705,0.9997911529604897,0.00011644469841636566
1355.5983741052526,1355.5983741052526,0.999916946133632,0.00011645402327526253
1355.605318677541,1355.605318677541,0.9998796102023706,0.00011645123564773474
1355.6122632497363,1355.6122632497363,1.000092574383181,0.00011645555624246644
1355.6192078217457,1355.6192078217457,1.0000878682077654,0.00011646361406815388
1355.6261523937544,1355.6261523937544,0.9999720226369735,0.00011645220744145436
1355.6330969655776,1355.6330969655776,1.000080762076478,0.00011645808390355553
1355.6400415373078,1355.6400415373078,1.0001965409860594,0.00011645914212047928
1355.6469861090368,1355.6469861090368,0.9998423070451306,0.00011643825333174935
1355.6539306805807,1355.6539306805807,0.9999968413290873,0.00011645007403735086
1355.660875251938,1355.660875251938,1.0000497544251377,0.00011645467530267015
1355.667819823388,1355.667819823388,1.0001466196378754,0.00011646004801566098
1355.6747643945594,1355.6747643945594,0.9998618918693639,0.0001164510625211742
1355.6817089658232,1355.6817089658232,0.9998331747175161,0.00011644107266832759
1355.688653536715,1355.688653536715,1.000018929184551,0.00011644527298385469
1355.6955981078859,1355.6955981078859,1.0001055990256285,0.00011645102124236086
1355.702542678684,1355.702542678684,0.9998351960841309,0.00011643947416548795
1355.7094872494827,1355.7094872494827,0.999800904623773,0.00011644008140681426
1355.7164318200948,1355.7164318200948,1.000136299679166,0.00011645031947599854
1355.7233763906138,1355.7233763906138,1.0003575827797295,0.00011646304160394098
1355.7303209610398,1355.7303209610398,0.9998089215699334,0.00011644318819100904
1355.7372655314655,1355.7372655314655,1.0001525912219364,0.00011645679925297893
1355.7442101017052,1355.7442101017052,1.000067999750224,0.00011644991673908124
1355.7525435859184,1355.7525435859184,0.9997933909594707,0.00011643719876814822
1355.7594881559717,1355.7594881559717,0.999976256503811,0.0001164357359571596
1355.766432725932,1355.766432725932,1.0000118839065049,0.00011645434036322024
1355.773377295799,1355.773377295799,1.0000401443223736,0.00011644896744460208
1355.7803218654794,1355.7803218654794,1.0000748451249755,0.00011644819643238888
1355.787266435347,1355.787266435347,0.9999157862008772,0.00011644318003724867
1355.7942110047484,1355.7942110047484,0.9998474986818099,0.00011644341509923256
1355.8011555742432,1355.8011555742432,0.9999482805243985,0.00011644836413054441
1355.8081001436444,1355.8081001436444,1.0001942880122887,0.00011645859943264786
1355.8150447128596,1355.8150447128596,1.0001847045633332,0.00011646262271259912
1355.8219892821683,1355.8219892821683,0.999872236031609,0.00011643398468908358
1355.828933851197,1355.828933851197,0.9998403270104326,0.00011643599732423079
1355.835878420226,1355.835878420226,1.000088036943016,0.00011644900900609613
1355.842822989162,1355.842822989162,0.999930271235824,0.00011644336038370371
1355.8497675580043,1355.8497675580043,1.0000970938437508,0.000116454237876475
1355.8567121266606,1355.8567121266606,0.9999626580694416,0.00011644463977242353
1355.8636566951309,1355.8636566951309,1.0000059830121053,0.00011645658088311522
1355.8706012640666,1355.8706012640666,0.9998146655752717,0.00011643696493798183
