time,time,flux,flux_err
1570.9198807324676,1570.9198807324676,0.9993783067437371,0.0015074294100094765
1570.9282141273543,1570.9282141273543,0.9988387898912071,0.0014998042476631695
1570.9358530724894,1570.9358530724894,0.9992735055074282,0.0013627317852123047
1570.9427975681688,1570.9427975681688,0.9988296041797243,0.0013572425308063648
1570.9497420638484,1570.9497420638484,1.0030814768287726,0.0013516789635659196
1570.9566865594352,1570.9566865594352,1.0004605448983814,0.001345962619397303
1570.9636310552073,1570.9636310552073,1.0000620381537506,0.001340087698426965
1570.9705755507935,1570.9705755507935,0.999013447888111,0.0013339556302408404
1570.9775200464724,1570.9775200464724,0.999364751431537,0.0013279720655091773
1570.9844645421522,1570.9844645421522,1.0004762978419364,0.0013215744881737328
1570.991409037739,1570.991409037739,0.9990859357320476,0.0013149876282637306
1570.9983535335114,1570.9983535335114,0.9981304530423387,0.0013084388043219466
1571.005298029097,1571.005298029097,0.9998635883267321,0.0013009672245215328
1571.0122425247764,1571.0122425247764,1.0035552330436708,0.0012935999171124683
1571.0191870204558,1571.0191870204558,1.000073485931404,0.0012854453370902807
1571.026131516136,1571.026131516136,1.0016125012048867,0.0012776324284117543
1571.033076011722,1571.033076011722,1.0013314449891189,0.0012693026493505797
1571.0400205074939,1571.0400205074939,0.9979286556095796,0.001260901216682782
1571.0469650030802,1571.0469650030802,1.001868032227658,0.0012530433823942258
1571.0539094987594,1571.0539094987594,0.9985124155554846,0.0012448345231638454
1571.0608539944394,1571.0608539944394,0.9996814423569574,0.0012364758043432677
1571.067798490026,1571.067798490026,1.0005013699790024,0.0012281733580167353
1571.074742985612,1571.074742985612,0.9992802374622272,0.0012193384278807442
1571.081687481384,1571.081687481384,1.0012228567464156,0.001211214634286487
1571.0886319769702,1571.0886319769702,1.0015869491849665,0.001203203087029848
1571.0955764725568,1571.0955764725568,0.9979967339022522,0.0011953408001155515
1571.1025209682366,1571.1025209682366,1.0004611510159878,0.0011880255664532794
1571.1094654638225,1571.1094654638225,0.9992988961695083,0.0011807960251876458
1571.1164099594087,1571.1164099594087,1.0024152576815535,0.001174517155278614
1571.1233544549946,1571.1233544549946,1.0003467837564557,0.0011680793972743194
1571.130298950488,1571.130298950488,1.0019131912383261,0.0011618784630526928
1571.1372434461678,1571.1372434461678,1.000524732417472,0.0011558983146326644
1571.144187941661,1571.144187941661,0.999366536500178,0.0011500112295761147
1571.1511324372473,1571.1511324372473,0.9996075994230882,0.001144044678604699
1571.1580769327397,1571.1580769327397,0.9998476497141071,0.0011383733699250622
1571.165021428326,1571.165021428326,0.9994618839580431,0.0011329014965599546
1571.17196592382,1571.17196592382,0.9994341088648193,0.0011279218638483566
1571.1789104193128,1571.1789104193128,1.0004247545695812,0.0011229306617128345
1571.185854914806,1571.185854914806,1.0022547487505544,0.0011183619541320698
1571.1927994102984,1571.1927994102984,1.0000794209539596,0.00111391871579356
1571.1997439057914,1571.1997439057914,1.0007527337511963,0.0011097455022363737
1571.2066884011927,1571.2066884011927,0.9973711142316214,0.0011054817063518017
1571.2136328965921,1571.2136328965921,1.000312725704858,0.00110136977235886
1571.2205773919918,1571.2205773919918,0.9997313272430361,0.0010972149036779786
1571.2275218874847,1571.2275218874847,1.0010910835562838,0.0010931913226514853
1571.2344663828844,1571.2344663828844,0.9992380165573438,0.0010894355412516122
1571.2414108781923,1571.2414108781923,1.000189294782893,0.001085131647923754
1571.2483553734992,1571.2483553734992,0.9995003328206689,0.0010807116938866372
1571.255299868992,1571.255299868992,0.9992733670675703,0.0010767697347555637
1571.2622443642053,1571.2622443642053,0.9998233590704363,0.0010725565584694325
1571.2691888595123,1571.2691888595123,1.000720360709585,0.0010680182900842969
1571.2761333549122,1571.2761333549122,1.0001462276280133,0.001063785039263661
1571.2830778500334,1571.2830778500334,1.0008195245805098,0.0010588326010990867
1571.290022345433,1571.290022345433,0.9982358267856553,0.001053934211214335
1571.2969668405535,1571.2969668405535,1.0001592735803215,0.0010493068523499817
1571.3039113358602,1571.3039113358602,1.0009678465698746,0.001044323149516078
1571.310855831074,1571.310855831074,0.9993792596164439,0.0010389986927477786
1571.3178003261023,1571.3178003261023,1.0006421941077377,0.0010330237679996245
1571.3247448212226,1571.3247448212226,1.0002751688575948,0.001027965445086324
1571.3316893166225,1571.3316893166225,0.9999556930288687,0.001022079281319671
1571.3386338116493,1571.3386338116493,1.0003516054950006,0.001016579532521125
1571.3455783066768,1571.3455783066768,1.0000795909802758,0.001010241932351672
1571.3525228017047,1571.3525228017047,0.9998952820460856,0.001004603499077139
1571.3594672967324,1571.3594672967324,1.0005322832279624,0.0009991374356753918
1571.36641179176,1571.36641179176,0.9999159634598304,0.0009931939110310426
1571.373356286787,1571.373356286787,0.9985865136416632,0.0009874193199289126
1571.380300781814,1571.380300781814,0.9997310357059435,0.0009818669313787416
1571.3872452768414,1571.3872452768414,0.9990379169170222,0.0009767378297520209
1571.3941897717766,1571.3941897717766,1.000488763814586,0.000970792193438641
1571.4011342664312,1571.4011342664312,1.0014015284807254,0.0009653813067776708
1571.4080787614587,1571.4080787614587,1.0012893823685025,0.000960887625414929
1571.4150232563925,1571.4150232563925,0.9991966959940782,0.0009558077079332907
1571.4219677510473,1571.4219677510473,1.0003709074804292,0.0009514337832206851
1571.428912245982,1571.428912245982,0.999514275075493,0.0009471699137269637
1571.4358567406375,1571.4358567406375,1.0001504295799493,0.0009435064126926136
1571.4428012354783,1571.4428012354783,0.9994620263040069,0.0009399853388250463
1571.4497457302264,1571.4497457302264,0.9996394277541685,0.0009372860444156374
1571.456690224788,1571.456690224788,0.9998249419052812,0.0009347686623007009
1571.4636347195355,1571.4636347195355,1.0005766330222285,0.0009328171465299474
1571.4705792141915,1571.4705792141915,1.0013408006930908,0.0009308222779434037
1571.4775237088463,1571.4775237088463,0.9991162183288506,0.0009287900381518613
1571.4844682034077,1571.4844682034077,1.0018903525384206,0.0009278278315803005
1571.4914126979697,1571.4914126979697,1.0006464049398645,0.0009265566157910559
1571.498357192438,1571.498357192438,1.0003232053795095,0.0009252699027506318
1571.505301687,1571.505301687,0.9986740264141327,0.0009240257896893356
1571.5122461814694,1571.5122461814694,1.0013892169675578,0.0009233105498713488
1571.5191906759374,1571.5191906759374,1.0001606850832723,0.00092148716900249
1571.5261351703127,1571.5261351703127,1.000493290243047,0.0009201617594033456
1571.533079664688,1571.533079664688,1.0002943886353985,0.0009182773385584778
1571.5400241590633,1571.5400241590633,0.9991361161186436,0.0009168803738619181
1571.5469686533468,1571.5469686533468,0.9982466774330622,0.0009151757232568015
1571.5539131476291,1571.5539131476291,1.0007569864326766,0.0009138423971275121
1571.560857641911,1571.560857641911,0.9992009855396562,0.0009125316774261377
1571.5678021361002,1571.5678021361002,1.0014270174887008,0.0009116761584044418
1571.5747466302892,1571.5747466302892,1.0003930148867426,0.0009102773128785883
1571.5816911244785,1571.5816911244785,1.0004899707752464,0.000909441442498241
1571.5886356185754,1571.5886356185754,0.9998603174891697,0.0009076422941764603
1571.595580112671,1571.595580112671,1.001030469451158,0.0009073291562180757
1571.602524606767,1571.602524606767,1.0002164570338274,0.0009061695238412384
1571.6094691008634,1571.6094691008634,0.9985124247471596,0.0009042661831787753
1571.6164135947727,1571.6164135947727,0.9994974276647712,0.000903697294684952
1571.6233580887763,1571.6233580887763,1.0006062682770618,0.000902680670908505
1571.630302582687,1571.630302582687,0.9995864249666793,0.0009018411176743074
1571.637247076503,1571.637247076503,1.0012627414580002,0.0009006315939287076
1571.6441915704127,1571.6441915704127,0.9987353509312232,0.0008987578378225837
1571.6511360642291,1571.6511360642291,1.0011268392358565,0.0008980795895673415
1571.6580805580456,1571.6580805580456,0.9999712857979871,0.000896810749856056
1571.6650250517705,1571.6650250517705,0.999847689551833,0.0008958190373814737
1571.6719695454938,1571.6719695454938,0.9997245523513089,0.0008943576841567698
1571.678914039217,1571.678914039217,1.0002530380281531,0.0008932482792456091
1571.6858585328469,1571.6858585328469,0.9989520079525906,0.0008920307875809016
1571.6928030263844,1571.6928030263844,1.0003521279623109,0.0008900546709816366
1571.699747520015,1571.699747520015,1.0000683189816328,0.0008885588973242596
1571.7066920134598,1571.7066920134598,0.9993243618128218,0.0008867054236542686
1571.7136365069969,1571.7136365069969,0.9997095462428117,0.0008849439598743722
1571.7205810004407,1571.7205810004407,1.0004526525502537,0.000881877890318875
1571.7275254938847,1571.7275254938847,1.0002981839874672,0.0008799365796896485
1571.7344699873288,1571.7344699873288,0.9992935803672964,0.0008767410289347745
1571.7414144806803,1571.7414144806803,0.9999284741464687,0.0008743414287955484
1571.7483589739386,1571.7483589739386,0.999830629736351,0.0008708983650645097
1571.7553034672897,1571.7553034672897,1.0004553361546438,0.0008683853730393796
1571.7622479604543,1571.7622479604543,1.0017704141924602,0.0008653046124489697
1571.7691924536186,1571.7691924536186,1.0000935837416727,0.0008620493906367876
1571.7761369467835,1571.7761369467835,1.0006302447708098,0.0008585488063020218
1571.7830814398553,1571.7830814398553,0.998917332970765,0.0008556114013659733
1571.7900259330206,1571.7900259330206,1.0002089708485418,0.0008526233018537799
1571.7969704260922,1571.7969704260922,1.0000861359667865,0.0008502728261323093
1571.8039149189772,1571.8039149189772,0.9997359280513312,0.0008476938028267988
1571.8108594120488,1571.8108594120488,0.9991282903901493,0.0008454314012668754
1571.8178039047475,1571.8178039047475,0.999520268373904,0.00084327938029254
1571.8247483979135,1571.8247483979135,1.0002287565055332,0.0008409108794350195
1571.8316928906124,1571.8316928906124,1.0003875964750066,0.0008384990131693165
1571.8386373833114,1571.8386373833114,1.0000287082044703,0.0008362439996574359
1571.8455818760099,1571.8455818760099,1.0002878698308368,0.0008350821095719618
1571.8525263687088,1571.8525263687088,1.0002350492669982,0.0008336370557506477
1571.859470861408,1571.859470861408,1.00018179214389,0.0008317195785031057
1571.866415354108,1571.866415354108,1.000734124213312,0.0008298378930841439
1571.873359846807,1571.873359846807,0.9992988497435353,0.0008281490913660908
1571.8803043391333,1571.8803043391333,0.9995652722275621,0.0008270601969098292
1571.887248831739,1571.887248831739,1.0003101889951191,0.0008263310579111777
1571.8941933241588,1571.8941933241588,0.9998153694697212,0.0008250019435812261
1571.9011378166715,1571.9011378166715,0.9994977534113334,0.0008246545040397606
1571.9080823089057,1571.9080823089057,1.0003436443910347,0.0008241101233855914
1571.9150268012322,1571.9150268012322,1.0000103742552549,0.0008233277195743083
1571.9219712935587,1571.9219712935587,0.9988455579207303,0.0008224539110796517
1571.928915785792,1571.928915785792,0.9994871782641159,0.0008214953953501476
1571.9358602779323,1571.9358602779323,1.0009021518322463,0.0008211086846188749
1571.9428047701654,1571.9428047701654,0.9995342987088813,0.0008200276637235502
1571.9497492622136,1571.9497492622136,1.0004868359169214,0.0008191062571931953
1571.9566937542609,1571.9566937542609,1.0010136067939484,0.0008179735850107142
1571.9636382463075,1571.9636382463075,0.9984262752682023,0.0008166447755644792
1571.9705827382613,1571.9705827382613,0.9998452154729656,0.000815876239783371
1571.977527230122,1571.977527230122,1.000443419267181,0.0008153458805040465
1571.9844717220758,1571.9844717220758,0.9992008762748265,0.0008142227362527828
1571.991416213845,1571.991416213845,1.000684483007594,0.0008133991364990644
1571.9983607056124,1571.9983607056124,0.9997834686374716,0.0008119059131452292
1572.0053051973798,1572.0053051973798,1.0004279104617615,0.000810556536055034
1572.0122496890544,1572.0122496890544,1.0004661292117916,0.0008096903691800236
1572.0191941807288,1572.0191941807288,0.9994061437279456,0.0008082826414620998
1572.0261386723103,1572.0261386723103,1.000284275330475,0.0008072072824212611
1572.0330831638928,1572.0330831638928,0.9999493151430743,0.0008054689442466099
1572.040027655381,1572.040027655381,1.0000924552058812,0.0008047112666137197
1572.0469721468692,1572.0469721468692,1.0000605165009613,0.0008031711610730723
1572.0539166382646,1572.0539166382646,0.9998997899512874,0.0008014785685609401
1572.060861129566,1572.060861129566,1.0000328738330315,0.0008000622037855965
1572.0678056209615,1572.0678056209615,0.9986920318922639,0.0007980934710764056
1572.0747501121714,1572.0747501121714,1.0002546709183169,0.0007969106146107609
1572.0816946033804,1572.0816946033804,1.0001805485852955,0.00079577086722622
1572.088639094589,1572.088639094589,1.0002753589326143,0.0007944051752055906
1572.0955835857046,1572.0955835857046,1.0007493182607923,0.0007930956721959049
1572.1025280768204,1572.1025280768204,0.9996683871340786,0.0007912558873706848
1572.1094725677494,1572.1094725677494,0.9995766899866944,0.0007902216853160051
1572.1164170587735,1572.1164170587735,1.000660999394413,0.0007889006111361249
1572.123361549703,1572.123361549703,0.9997692024748837,0.0007876659196062389
1572.1303060406321,1572.1303060406321,0.9997197823332765,0.0007865575152421244
1572.1372505314687,1572.1372505314687,0.9984270990516914,0.0007855117271973947
1572.1441950222118,1572.1441950222118,0.9994678874858233,0.000784437222763264
1572.1511395128616,1572.1511395128616,0.9993781449546763,0.0007835132119041547
1572.158084003699,1572.158084003699,1.0003639400797912,0.0007831646548148833
1572.165028494163,1572.165028494163,1.0004361178308347,0.0007819456318204869
1572.1719729849062,1572.1719729849062,0.9991187751919941,0.0007809205740745259
1572.1789174752769,1572.1789174752769,1.0007036735468509,0.0007805355722702416
1572.1858619656473,1572.1858619656473,1.0003330168490272,0.0007802050346637238
1572.1928064564838,1572.1928064564838,1.0002561991095384,0.0007794660319641407
1572.1997509468547,1572.1997509468547,0.9998769782733266,0.0007790057569138587
1572.2066954369468,1572.2066954369468,0.9991941920524623,0.0007782568573306357
1572.2136399271312,1572.2136399271312,0.9996252690163848,0.0007776869497084878
1572.2205844175019,1572.2205844175019,1.0003687357298914,0.0007775248460816627
1572.2275289076858,1572.2275289076858,1.0001067931921734,0.0007771394267074656
1572.2344733977773,1572.2344733977773,0.9994646370688921,0.0007766961979357125
1572.2414178878685,1572.2414178878685,1.000630577043386,0.0007760348301050457
1572.2483623778678,1572.2483623778678,0.9996155489136763,0.0007747966552759601
1572.255306867866,1572.255306867866,1.0002621293102958,0.0007747498389222896
1572.2622513577708,1572.2622513577708,1.0009817521171556,0.0007736474639702042
1572.2691958475825,1572.2691958475825,1.0003329776871428,0.0007726355527524726
1572.2761403374877,1572.2761403374877,0.9995224065799706,0.000771028563279462
1572.283084827206,1572.283084827206,0.9996362306901446,0.0007703148618398734
1572.290029316833,1572.290029316833,0.9987414192000097,0.0007697442829336643
1572.2969738066447,1572.2969738066447,0.9992799734128847,0.0007686579481942974
1572.3039182961772,1572.3039182961772,1.0015099822424864,0.0007679199418991897
1572.3108627857098,1572.3108627857098,1.0003145997758096,0.0007663288096814604
1572.317807275242,1572.317807275242,0.9999797784512271,0.0007661826044494496
1572.3247517646814,1572.3247517646814,0.999728094065126,0.000763985577558828
1572.331696254028,1572.331696254028,1.0001108402674697,0.0007640193084659144
1572.3386407434682,1572.3386407434682,1.000285014317224,0.0007618718953102716
1572.3455852326283,1572.3455852326283,0.999969965754089,0.0007606508718846834
1572.352529721881,1572.352529721881,1.0003912870244234,0.0007600891166367033
1572.359474211041,1572.359474211041,1.000028150031427,0.0007584298471451781
1572.3664187002007,1572.3664187002007,0.9989387382244231,0.0007568313490112966
1572.3733631892676,1572.3733631892676,1.0000495947810604,0.0007562189337881098
1572.3803076782428,1572.3803076782428,0.9998269076724133,0.0007548389553322058
1572.387252167216,1572.387252167216,1.0005957448542833,0.0007539587205868244
1572.3941966560965,1572.3941966560965,0.9999907461257292,0.0007524052201238422
1572.4011411449771,1572.4011411449771,0.9997844572710664,0.0007508855285914011
1572.4080856337641,1572.4080856337641,1.0000648547510451,0.0007497176813129392
1572.4150301224586,1572.4150301224586,1.0003736691875225,0.000748922185525092
1572.4219746111535,1572.4219746111535,1.0002070007511221,0.0007480043820154319
1572.4289190998481,1572.4289190998481,0.9994004590248433,0.000746844923146377
1572.4358635883566,1572.4358635883566,1.000310236612724,0.0007465621833320242
1572.4428080768644,1572.4428080768644,1.0000125480373705,0.0007452635285551963
1572.4497525652791,1572.4497525652791,1.001185081877788,0.000744304079683033
1572.4566970537874,1572.4566970537874,1.0001648287503229,0.0007440555388102095
1572.463641542109,1572.463641542109,0.9991990194575365,0.0007437039618948583
1572.4705860303388,1572.4705860303388,1.000256589710359,0.0007431584054657239
1572.4775305186606,1572.4775305186606,0.9995186955366281,0.000742143731155341
1572.484475006889,1572.484475006889,1.0005439906511744,0.0007421767188279039
1572.491419494931,1572.491419494931,0.9992782884767472,0.0007418693903909924
1572.4983639829734,1572.4983639829734,0.9997254749743336,0.000741514289215503
1572.5053084710157,1572.5053084710157,1.000376371782715,0.0007410206354116445
1572.5122529590587,1572.5122529590587,1.000421589161866,0.0007409965977064447
1572.519197446822,1572.519197446822,1.0003054502862962,0.0007406403300859248
1572.5261419346784,1572.5261419346784,1.0007152621739202,0.0007400344317528865
1572.533086422441,1572.533086422441,0.9997884421379082,0.00073962792397944
1572.540030910204,1572.540030910204,0.9987898667459078,0.000738848198308536
1572.5469753978737,1572.5469753978737,1.0001550113371476,0.0007393981321826368
1572.5539198854503,1572.5539198854503,0.9986113493649441,0.0007387558103470044
1572.5608643730284,1572.5608643730284,0.9987829093485937,0.000738996423849258
1572.567808860512,1572.567808860512,1.000112384185258,0.0007385438326856072
1572.574753347902,1572.574753347902,1.000939904803171,0.0007388548828027936
1572.581697835293,1572.581697835293,1.000489941166703,0.0007380485890930977
1572.588642322683,1572.588642322683,1.000537840576013,0.000738489466769116
1572.595586809887,1572.595586809887,1.000715946227669,0.0007380460860503456
1572.6025312970914,1572.6025312970914,0.999970751058844,0.0007381596339438495
1572.611420240669,1572.611420240669,0.9995996212531704,0.0007376611793493742
1572.6261425531766,1572.6261425531766,1.0004369919708282,0.0007376926571189592
1572.6330870401948,1572.6330870401948,0.9996682037867775,0.0007378732937144709
1572.6400315270262,1572.6400315270262,1.0004372528277814,0.0007380150057671553
1572.6469760138575,1572.6469760138575,0.9999287136428642,0.0007375383643839248
1572.653920500597,1572.653920500597,0.9996646962133596,0.0007379113843429613
1572.6608649873363,1572.6608649873363,0.9989804823519532,0.0007374645013401624
1572.6678094739812,1572.6678094739812,1.0004588351037753,0.0007374427137182423
1572.6747539605335,1572.6747539605335,0.9980711782636871,0.0007368431889815904
1572.6816984470854,1572.6816984470854,1.000316293163193,0.0007369699180967903
1572.6886429336378,1572.6886429336378,0.9994624977284182,0.0007364221190173106
1572.6955874199107,1572.6955874199107,1.0016022259224084,0.0007365540753651228
