time,time,flux,flux_err
1544.2816760819221,1544.2816760819221,0.9999309710145742,0.00038468034603546567
1544.2900097325173,1544.2900097325173,0.9999015807995981,0.00038434694375210374
1544.2983433831123,1544.2983433831123,0.9998785994478195,0.0003841514591556619
1544.3059825628975,1544.3059825628975,0.9996726156958274,0.0003505963396509398
1544.312927271778,1544.312927271778,0.9999647983670179,0.00035053071680516535
1544.3198719807529,1544.3198719807529,1.0007744602103454,0.0003504739789975762
1544.326816689727,1544.326816689727,1.0003147985854581,0.0003500600580583654
1544.333761398608,1544.333761398608,0.9997999047500692,0.00034996318678149165
1544.3407061076755,1544.3407061076755,1.0003443744402585,0.00034991522965942127
1544.3476508168362,1544.3476508168362,0.9998140139451268,0.0003494063584246992
1544.354595525717,1544.354595525717,1.000320734037815,0.0003492667708878467
1544.3615402349706,1544.3615402349706,0.9998957271322235,0.00034902507806201035
1544.368484943945,1544.368484943945,0.9999667896544097,0.0003488340496963225
1544.3754296532916,1544.3754296532916,1.0003090503948848,0.00034867279937930484
1544.3823743621729,1544.3823743621729,0.999909123107831,0.00034827142874925776
1544.3893190715196,1544.3893190715196,0.9992753158434782,0.00034799911180869673
1544.396263780773,1544.396263780773,0.9997961206511606,0.00034799100296767864
1544.4032084897476,1544.4032084897476,1.0003616772330397,0.00034777089678387005
1544.410153199094,1544.410153199094,1.0004801338174987,0.000347611351204153
1544.417097908441,1544.417097908441,1.000566433003766,0.0003471941894947545
1544.424042617788,1544.424042617788,0.9996826521990598,0.000347007294696045
1544.4309873266689,1544.4309873266689,0.9999607919843421,0.0003469438343373239
1544.4379320360156,1544.4379320360156,1.000160785042527,0.00034679324765223197
1544.4448767453628,1544.4448767453628,1.0000356417420828,0.00034671239036392163
1544.4518214547093,1544.4518214547093,0.9996502589439098,0.00034642621648881406
1544.4587661640562,1544.4587661640562,1.0000878783145075,0.0003463494335290234
1544.465710873403,1544.465710873403,0.999889121966285,0.00034622173509006593
1544.4726555827497,1544.4726555827497,0.9997824782211888,0.000346090402209882
1544.4796002920964,1544.4796002920964,1.0003144632934144,0.0003460105110817891
1544.4865450014433,1544.4865450014433,1.0000477166627242,0.0003459988056319412
1544.4934897107898,1544.4934897107898,1.0005814387687275,0.0003461296469313063
1544.5004344201366,1544.5004344201366,1.000031729726291,0.00034573955971023196
1544.5073791294835,1544.5073791294835,0.9999267241334454,0.0003455718655094743
1544.5143238388305,1544.5143238388305,0.9995372776765455,0.00034567702924580843
1544.5212685481774,1544.5212685481774,1.000386716406177,0.00034570218087353797
1544.5282132575237,1544.5282132575237,0.9999336369083853,0.0003454767032259413
1544.5351579668709,1544.5351579668709,1.0000567901786106,0.00034559319733244075
1544.542102676683,1544.542102676683,0.9999206435514797,0.0003454658627180009
1544.54904738603,1544.54904738603,0.9997551951616839,0.00034529610690771096
1544.5559920953767,1544.5559920953767,1.0003226188827714,0.0003455154397759649
1544.5629368047234,1544.5629368047234,1.000141175683154,0.0003453677098557076
1544.5698815140702,1544.5698815140702,1.0001459782219655,0.000345264732135577
1544.5768262234171,1544.5768262234171,0.9997656560882584,0.0003451661966634909
1544.5837709327639,1544.5837709327639,1.0004037244780952,0.0003451927906453365
1544.5907156421104,1544.5907156421104,0.9996966221973211,0.00034505118283221245
1544.5976603516435,1544.5976603516435,0.9995406928470573,0.0003449321096179172
1544.6046050612692,1544.6046050612692,1.0000669890100584,0.00034504529222596336
1544.6115497706166,1544.6115497706166,0.9997086893617484,0.00034484191104308264
1544.6184944799631,1544.6184944799631,1.0011024769976695,0.00034504466774150323
1544.6254391893103,1544.6254391893103,0.9995634718465904,0.0003447666736959714
1544.6323838986568,1544.6323838986568,0.9992567289847154,0.0003446122440451247
1544.6398841847515,1544.6398841847515,1.0005411662331845,0.0003448046276393895
1544.6476622592195,1544.6476622592195,1.0005457146760932,0.0003448338018881199
1544.6546069685664,1544.6546069685664,0.9992624068373072,0.0003444540931215648
1544.6615516779132,1544.6615516779132,0.999929110970629,0.0003448309591462163
1544.6684963872601,1544.6684963872601,1.0009277481125067,0.0003447808442309286
1544.6754410966066,1544.6754410966066,0.99972612744748,0.00034458990547588466
1544.6823858059536,1544.6823858059536,0.9996012470375817,0.0003445940567235057
1544.6893305153003,1544.6893305153003,0.9999950144512578,0.0003444672911178403
1544.6962752246468,1544.6962752246468,0.9999967712901491,0.00034449986753361733
1544.703219933994,1544.703219933994,0.9998827429647111,0.00034451568151533396
1544.7101646433405,1544.7101646433405,0.9993542150126162,0.00034425418832639804
1544.717109352315,1544.717109352315,1.0007397856220817,0.0003444953455408458
1544.7240540615683,1544.7240540615683,1.000442057683924,0.0003444068762889388
1544.7309987709152,1544.7309987709152,1.000046788204973,0.0003443916647066791
1544.737943480262,1544.737943480262,0.9999832016442008,0.0003444413842168214
1544.7448881894227,1544.7448881894227,0.9997336975679634,0.000344236612483637
1544.7518328984902,1544.7518328984902,0.9999218435862586,0.0003443373742105893
1544.7587776078367,1544.7587776078367,1.000062694598874,0.00034436835953027096
1544.7657223170904,1544.7657223170904,1.0001042801442475,0.00034441568442718364
1544.7726670260647,1544.7726670260647,0.9998357546515496,0.00034425242630768834
1544.7796117354114,1544.7796117354114,0.9995598778992129,0.0003442113277086265
1544.7865564442925,1544.7865564442925,1.0004609181542627,0.0003444124176237028
1544.793501153639,1544.793501153639,0.9999881151472098,0.0003442918105277174
1544.8004458625205,1544.8004458625205,0.9998563484934833,0.00034412098560266627
1544.8073905717738,1544.8073905717738,0.9996281264955715,0.000344032376334343
1544.814335280748,1544.814335280748,0.9999937715495013,0.00034409182318746723
1544.8212799898156,1544.8212799898156,1.000007177093283,0.0003440893973170755
1544.8282246988827,1544.8282246988827,1.000453729726639,0.0003440958153146358
1544.8351694078572,1544.8351694078572,1.0001072258960524,0.0003441111313304723
1544.842114116831,1544.842114116831,1.0003444043070138,0.0003441515001744044
1544.8490588258057,1544.8490588258057,1.0000759731091913,0.0003441273448322788
1544.85600353478,1544.85600353478,0.9995257639894737,0.000343910864972701
1544.862948243754,1544.862948243754,1.000196610272137,0.0003439047193177067
1544.8698929526354,1544.8698929526354,1.0001015665680222,0.00034384037388592535
1544.8768376615164,1544.8768376615164,0.9993369873314855,0.00034375187574271413
1544.8837823703975,1544.8837823703975,0.9998422187201836,0.0003439018420754407
1544.8907270791856,1544.8907270791856,1.0000617426471912,0.0003437974983566493
1544.8976717879732,1544.8976717879732,0.9999850353384014,0.0003436140443544369
1544.9046164968545,1544.9046164968545,0.9999530893384581,0.00034360750740068376
1544.9115612056426,1544.9115612056426,1.0007339577645278,0.0003436225303894361
1544.9185059143372,1544.9185059143372,1.000243762266484,0.000343520441261735
1544.925450623032,1544.925450623032,0.9999851493554299,0.0003435232966369404
1544.932395331727,1544.932395331727,0.9999469852116085,0.00034357474845990687
1544.9393400404215,1544.9393400404215,0.9993683944354499,0.00034335175023731
1544.9462847490236,1544.9462847490236,1.000397933461095,0.0003434218675653749
1544.9532294577182,1544.9532294577182,0.9999666820607839,0.0003432751379354005
1544.96017416632,1544.96017416632,0.9998971358339575,0.00034322749481102997
1544.967118874922,1544.967118874922,0.9997264998850979,0.00034323118716709497
1544.9740635833373,1544.9740635833373,0.9997163274575316,0.0003432948817604756
1544.981008291846,1544.981008291846,1.0000544104756284,0.000343231106692371
1544.9879530003545,1544.9879530003545,1.0001924523418446,0.00034306973548261073
1544.9948977088625,1544.9948977088625,0.9999533902587338,0.000343096589040499
1545.001842417278,1545.001842417278,1.0002134716175237,0.00034304733385037754
1545.0087871256935,1545.0087871256935,1.000798235189984,0.0003430611053510604
1545.0157318340157,1545.0157318340157,0.9999126267331416,0.0003429068970174668
1545.0226765424316,1545.0226765424316,0.999310929409126,0.00034281173784727226
1545.0296212506605,1545.0296212506605,1.0000163527036885,0.00034297297918031873
1545.036565958983,1545.036565958983,0.999957978528322,0.0003428802748076054
1545.043510667212,1545.043510667212,0.999654883969713,0.000342759108370163
1545.0504553753485,1545.0504553753485,1.0001582314311324,0.00034288921228346655
1545.0574000835772,1545.0574000835772,1.0004288554563927,0.0003428134268881305
1545.0643447917132,1545.0643447917132,1.0002706221144844,0.0003427251087440433
1545.0712894999426,1545.0712894999426,1.0001050849267568,0.00034273761265613646
1545.0782342079856,1545.0782342079856,0.9998246303919476,0.0003427024282077479
1545.0851789160283,1545.0851789160283,0.9998081958314937,0.0003426104069634799
1545.0921236240715,1545.0921236240715,0.9996251403017723,0.00034260679406255336
1545.0990683321143,1545.0990683321143,0.9994532698871191,0.0003424528956117737
1545.1060130400642,1545.1060130400642,1.000166575512792,0.0003425481801091456
1545.1129577480137,1545.1129577480137,1.0001540802322004,0.00034250929914031274
1545.1199024558703,1545.1199024558703,1.0009802925268094,0.00034267822855399405
1545.12684716382,1545.12684716382,0.9999473296918928,0.0003423587630324804
1545.1337918715835,1545.1337918715835,0.9999309908563863,0.0003424590661840599
1545.140736579347,1545.140736579347,0.9994394004039975,0.0003422433628338531
1545.1476812872036,1545.1476812872036,0.9997622554924399,0.0003423311760715126
1545.154625994781,1545.154625994781,1.0000552945083487,0.0003423276626854026
1545.1615707025444,1545.1615707025444,1.0005896733676483,0.0003423031635841864
1545.168515410215,1545.168515410215,1.000610336031221,0.000342284075571648
1545.175460117792,1545.175460117792,0.9995134229560435,0.00034217589996120117
1545.1824048254625,1545.1824048254625,1.000085990741803,0.0003421833263404908
1545.1893495329466,1545.1893495329466,1.0000419788004271,0.00034224642436541346
1545.1962942404307,1545.1962942404307,0.9997926183792698,0.00034200385413955575
1545.2032389479145,1545.2032389479145,1.0001880540628956,0.0003420638034181768
1545.2101836553056,1545.2101836553056,0.9998659138611258,0.00034195731074932714
1545.2171283627897,1545.2171283627897,0.9998802097608056,0.00034193840536278866
1545.224073070181,1545.224073070181,1.000766933004137,0.00034204934080125503
1545.2310177773857,1545.2310177773857,0.9998204221131249,0.00034192114983024166
1545.2379624847767,1545.2379624847767,1.0001223390523226,0.0003418248700329698
1545.2449071918882,1545.2449071918882,1.0000480286791515,0.00034188203562635284
1545.251851899279,1545.251851899279,1.0004415849527202,0.0003420934135242125
1545.2587966062974,1545.2587966062974,0.9996607509242892,0.0003418133304649091
1545.2657413133159,1545.2657413133159,0.9998110868495556,0.00034176533763126936
1545.2726860203343,1545.2726860203343,1.0000486924195386,0.0003418611916633106
1545.2796307278181,1545.2796307278181,1.00001113519542,0.0003419859498435528
1545.2865754345576,1545.2865754345576,0.9999078778435182,0.0003418097423650842
1545.2935201413898,1545.2935201413898,1.000342320412017,0.000341968352152232
1545.3004648484082,1545.3004648484082,1.000032818647155,0.0003418340025361054
1545.3074095554268,1545.3074095554268,0.9999519436161135,0.00034180010299404197
1545.3143542622588,1545.3143542622588,1.00010110933587,0.0003417419365567358
1545.3212989689982,1545.3212989689982,0.9999617185718137,0.0003416806324029963
1545.3282436758298,1545.3282436758298,0.9997409945886441,0.0003416871675383088
1545.3351883825692,1545.3351883825692,1.0002410762890999,0.00034177926536715995
1545.342133089122,1545.342133089122,0.9995768597091381,0.0003416911940016767
1545.349077795861,1545.349077795861,0.9994724650645874,0.00034167796597096313
1545.356022502414,1545.356022502414,1.0002316079626685,0.00034166439063262183
1545.3629672089664,1545.3629672089664,1.0007102743840324,0.00034163724472349494
1545.369911915519,1545.369911915519,1.000016415881626,0.0003416651528462827
1545.376856621979,1545.376856621979,0.9997042919170414,0.0003414454537707188
1545.3838013283453,1545.3838013283453,1.0001773707562722,0.0003416208262187412
1545.390746034712,1545.390746034712,1.0000553787317692,0.0003416189068795568
1545.3976907410783,1545.3976907410783,1.000007548478796,0.0003414659369284273
1545.4046354473517,1545.4046354473517,0.9996298570892334,0.00034145871542958146
1545.4115801535322,1545.4115801535322,1.0002054903100015,0.00034142790803426507
1545.4185248598055,1545.4185248598055,0.999827539273469,0.0003413439155700842
1545.425469565986,1545.425469565986,1.0001585556463062,0.00034147668751982027
1545.4324142720727,1545.4324142720727,0.9995191939857893,0.0003414689137020932
1545.43935897816,1545.43935897816,1.0003155145810907,0.00034139515579363286
1545.446303684247,1545.446303684247,1.0001371843356863,0.00034141748449822664
1545.453248390148,1545.453248390148,1.0002357922375187,0.00034138161884213013
1545.4601930961421,1545.4601930961421,1.00000660121387,0.00034137496661116565
1545.4671378020425,1545.4671378020425,1.0003717115920872,0.00034134470335404134
1545.4740825079436,1545.4740825079436,0.9996940070060146,0.0003413025829040288
1545.4810272135649,1545.4810272135649,0.9994750742409944,0.0003411556482766156
1545.4879719193727,1545.4879719193727,1.000260983213893,0.00034133495748894007
1545.4949166250872,1545.4949166250872,0.9999320087952104,0.0003412830871547802
1545.5018613307088,1545.5018613307088,1.0000123382251125,0.00034126690796912806
1545.50880603633,1545.50880603633,0.9996965525053646,0.0003412766963056658
1545.515750741952,1545.515750741952,1.0004092178265616,0.00034135049065431636
1545.5226954473867,1545.5226954473867,1.000227846875854,0.00034125421204797736
1545.529640152822,1545.529640152822,0.9998683927347191,0.00034133593503259455
1545.5365848583501,1545.5365848583501,1.0000555323004299,0.00034136611132617545
1545.5435295636928,1545.5435295636928,0.9997442311938457,0.0003413591093669657
1545.5504742690346,1545.5504742690346,0.9997700668785446,0.00034124072543061475
1545.5574189742833,1545.5574189742833,1.0002377954412487,0.0003412763157084846
1545.564363679532,1545.564363679532,0.9999665269909774,0.00034116209689020305
1545.571308384688,1545.571308384688,0.9999725942566601,0.00034131166919999345
1545.5782530898437,1545.5782530898437,0.9997892907847927,0.00034111264469810986
1545.5851977949067,1545.5851977949067,1.000593227666535,0.0003414044851971646
1545.5921424998758,1545.5921424998758,0.9996628954566387,0.0003412176581470156
1545.5990872050318,1545.5990872050318,1.000019417754207,0.0003412185982114538
1545.6060319097219,1545.6060319097219,1.0001794605696577,0.0003413080420179473
1545.6129766148779,1545.6129766148779,0.9997088078340717,0.0003412100591003327
1545.619921319568,1545.619921319568,1.0000343808396435,0.0003412547910007978
1545.6268660242579,1545.6268660242579,1.0003266333620595,0.000341226761242339
1545.6338107289482,1545.6338107289482,0.9999305630874188,0.0003411915619225769
1545.6407554336383,1545.6407554336383,1.0003625792544812,0.00034134913149672704
1545.6477001383287,1545.6477001383287,0.9997087251207377,0.0003412201721066295
1545.6546448430186,1545.6546448430186,0.9999007983617056,0.00034127572391448824
1545.6615895476157,1545.6615895476157,0.9999094339598802,0.00034117955248639213
1545.6685342519331,1545.6685342519331,0.9998916207010552,0.0003414427248036947
1545.6754789565305,1545.6754789565305,0.9997012518632967,0.000341255945278795
1545.6824236608477,1545.6824236608477,1.0000539559640589,0.00034132060144692687
1545.6893683651654,1545.6893683651654,1.00043281957699,0.0003413451957079203
1545.6963130694828,1545.6963130694828,0.9998076306738556,0.0003411576852977861
1545.7032577737075,1545.7032577737075,1.0003408737856663,0.00034132122851418355
1545.7102024778383,1545.7102024778383,0.9999754654208287,0.0003411958868464864
1545.7171471820634,1545.7171471820634,0.9998468496191621,0.0003412774417727237
1545.7240918860084,1545.7240918860084,0.999144690130531,0.00034121277900741123
1545.7310365901394,1545.7310365901394,0.9999126820845678,0.00034122337791876446
1545.7379812939914,1545.7379812939914,1.000207944808761,0.0003412885587980256
1545.744925997937,1545.744925997937,0.9999584482403012,0.000341186874924789
1545.7518707018814,1545.7518707018814,1.0006488991793052,0.0003413256047627339
1545.7588154056405,1545.7588154056405,0.999866529940442,0.00034116936616809964
1545.7657601093988,1545.7657601093988,0.9999884739699922,0.00034128252905591056
1545.772704813065,1545.772704813065,0.9996642567370907,0.0003411566497437749
1545.7796495167306,1545.7796495167306,1.000119412166074,0.00034142146141760547
1545.786594220396,1545.786594220396,1.0000990695546963,0.0003412673627118961
1545.7935389238758,1545.7935389238758,0.9996764514838447,0.0003412276061822401
1545.800483627448,1545.800483627448,1.0000558527868226,0.00034131906207387455
1545.8074283307412,1545.8074283307412,1.000231198668148,0.00034119811860385923
1545.8143730342204,1545.8143730342204,0.9997894997999287,0.00034124114255661007
1545.821317737514,1545.821317737514,0.9997838558263276,0.0003412900978440555
1545.8282624407136,1545.8282624407136,0.9999152591592095,0.00034123373680352155
1545.835207144007,1545.835207144007,1.0008828376644845,0.00034138120216879405
1545.8421518471137,1545.8421518471137,1.0000066428137053,0.0003413185793418985
1545.8490965503138,1545.8490965503138,0.9996439001162365,0.00034126233082623067
1545.8560412532343,1545.8560412532343,1.0000260609233198,0.0003412165186230905
1545.8629859563412,1545.8629859563412,0.999978815356978,0.0003414030761437266
1545.8699306592619,1545.8699306592619,0.9999790587839301,0.0003413678210167435
1545.8768753621825,1545.8768753621825,0.9999029731364223,0.00034123935838756086
1545.8838200650098,1545.8838200650098,1.0000543057102156,0.0003413231833986987
1545.8907647677443,1545.8907647677443,0.9993137832925797,0.00034111843556249813
1545.8977094703855,1545.8977094703855,1.000122285680763,0.0003414373447398443
1545.904654173213,1545.904654173213,1.0002117202929224,0.00034148997827254977
1545.9115988756678,1545.9115988756678,0.9999334573980521,0.0003412004012084302
1545.918543578402,1545.918543578402,1.0012429839419728,0.0003413935219924848
1545.9254882807643,1545.9254882807643,1.0000494387232863,0.0003412996652972193
1545.9324329831256,1545.9324329831256,1.0002088605313988,0.0003413232139026928
1545.9393776854877,1545.9393776854877,0.9997897865050674,0.00034129362246871736
1545.9463223878492,1545.9463223878492,0.9994312624151366,0.0003411593166840302
1545.9532670902113,1545.9532670902113,0.999972976025392,0.00034133305886350606
1545.9602117925733,1545.9602117925733,0.9998844180929531,0.00034125263124192863
1545.967156494469,1545.967156494469,0.9998482381344637,0.00034121574480539414
1545.9741011967376,1545.9741011967376,0.9998506271188206,0.0003413539815062925
1545.9810458987274,1545.9810458987274,1.0005242356696482,0.0003412797230884025
1545.9879906007166,1545.9879906007166,1.0002493741959169,0.00034122800690835855
1545.9949353027057,1545.9949353027057,0.9999648919066579,0.0003413739015169258
1546.0018800045088,1546.0018800045088,1.0000505940959186,0.0003412470039472552
1546.008824706405,1546.008824706405,1.0001849152644793,0.0003413615230498277
1546.015769408115,1546.015769408115,1.0000211946291255,0.0003412638097825483
1546.0227141098246,1546.0227141098246,0.9997802113995411,0.00034118360926039127
1546.029658811441,1546.029658811441,0.9999970361088621,0.00034126967572820137
1546.0366035130585,1546.0366035130585,0.9999265352785784,0.00034107831462991953
1546.0435482145817,1546.0435482145817,0.9998952204311496,0.0003412616079052644
