time,time,flux,flux_err
1385.9574096671595,1385.9574096671595,1.0000111270163372,0.00044409233485602555
1385.9657430836676,1385.9657430836676,1.0006563790813054,0.0004442458855256029
1385.9733820488223,1385.9733820488223,1.0001667612262615,0.00040569721815914266
1385.9803265623448,1385.9803265623448,0.9997000229458874,0.00040570688404612253
1385.9872710757754,1385.9872710757754,0.9995285089574484,0.000405597684462306
1385.9942155892986,1385.9942155892986,0.999156785654918,0.0004056902555531549
1386.0011601025417,1386.0011601025417,0.9992374669901668,0.0004056936843688516
1386.008104615786,1386.008104615786,1.000448213992755,0.00040571459861183984
1386.0150491288434,1386.0150491288434,0.9996232576067235,0.00040577295145015693
1386.0219936419003,1386.0219936419003,1.00062707316366,0.0004054481719696007
1386.0289381547718,1386.0289381547718,1.0002610985378877,0.000406047968411965
1386.0358826676434,1386.0358826676434,1.0007238731644796,0.000405668490428061
1386.0428271804208,1386.0428271804208,0.9993149346907758,0.00040564440504419033
1386.0497716930129,1386.0497716930129,0.9999649814407251,0.0004057332729358481
1386.0567162056052,1386.0567162056052,1.0001437171485104,0.00040550373397761077
1386.0636607179172,1386.0636607179172,0.9996380459442455,0.00040573982217487236
1386.0706052303226,1386.0706052303226,1.0000317212066594,0.0004056245494286617
1386.0775497424493,1386.0775497424493,1.0000176891770494,0.0004060176777577507
1386.0844942546682,1386.0844942546682,1.0007808187246163,0.0004054774990996742
1386.091438766794,1386.091438766794,1.000259602697244,0.0004056218252534243
1386.0983832786412,1386.0983832786412,0.999588568750449,0.00040591752017861556
1386.105327790488,1386.105327790488,0.9995010374386972,0.0004056083171147618
1386.112272302334,1386.112272302334,0.999510581239905,0.0004056387921767881
1386.119216813902,1386.119216813902,1.00078311943341,0.00040572347043368493
1386.1261613255626,1386.1261613255626,1.0000507051224399,0.00040578917929271483
1386.1331058370365,1386.1331058370365,0.9992041860957735,0.0004055411757281687
1386.1400503484176,1386.1400503484176,1.0003608776860864,0.0004056415957054385
1386.1469948596132,1386.1469948596132,0.9996963559845933,0.0004054480674842411
1386.1539393709004,1386.1539393709004,1.0001123916163146,0.00040592064503158136
1386.160883881909,1386.160883881909,1.0015628745378882,0.0004057174263614817
1386.1678283929182,1386.1678283929182,1.0000947616941596,0.0004057027650852087
1386.1747729039262,1386.1747729039262,1.0000968868883522,0.00040565571390770844
1386.1817174146552,1386.1817174146552,0.9986279559555242,0.0004056667477145909
1386.1886619253848,1386.1886619253848,0.9993257451489587,0.00040583088778182227
1386.1956064360209,1386.1956064360209,1.000011026555217,0.00040569290707121895
1386.2025509465634,1386.2025509465634,0.9999556014640216,0.0004055131984714049
1386.2094954570136,1386.2094954570136,1.0009347375915574,0.0004058696967614079
1386.2164399672772,1386.2164399672772,1.0004125838289415,0.00040583967652056365
1386.22338447754,1386.22338447754,0.9992174112431822,0.0004059976184470817
1386.2303289878041,1386.2303289878041,1.0001693726431835,0.0004056190881744475
1386.2372734976957,1386.2372734976957,0.9995681335369504,0.00040569269347387417
1386.244218007772,1386.244218007772,1.0000518055312575,0.00040557879482852664
1386.2511625175703,1386.2511625175703,0.9997927997236854,0.0004055445448123339
1386.2581070273682,1386.2581070273682,1.000776950838045,0.000405875048165516
1386.2650515369794,1386.2650515369794,0.9992586461978267,0.00040565575358675695
1386.271996046591,1386.271996046591,0.9997859181383584,0.00040560531910442015
1386.2789405561098,1386.2789405561098,0.9992043351452683,0.0004058239024817296
1386.285885065442,1386.285885065442,1.0009314229468969,0.0004057650083186998
1386.2928295747738,1386.2928295747738,1.0004971532531413,0.00040594224324878105
1386.2997740840133,1386.2997740840133,0.9993425750035552,0.00040550723591388304
1386.3067185931595,1386.3067185931595,0.9998336689823388,0.0004055418734676071
1386.3136631021182,1386.3136631021182,1.0000692390750028,0.0004060288441386525
1386.3206076110782,1386.3206076110782,1.000336128769282,0.0004059422532655451
1386.327552119852,1386.327552119852,1.0006806388494547,0.0004059210530571125
1386.3344966285313,1386.3344966285313,0.9997986665437413,0.00040592689336288554
1386.3414411373055,1386.3414411373055,0.9998300798984957,0.00040606958229344345
1386.3483856458,1386.3483856458,0.9993406334805247,0.00040579456975328607
1386.3553301542936,1386.3553301542936,0.999386276408371,0.00040584157333114845
1386.3622746626943,1386.3622746626943,0.9993184042888528,0.00040590006792221283
1386.369774731544,1386.369774731544,1.0003266589082997,0.00040585184003342253
1386.3775525807107,1386.3775525807107,1.0002471068431684,0.0004059726679830751
1386.3844970886457,1386.3844970886457,1.0001149269043588,0.00040599376060424414
1386.3914415965812,1386.3914415965812,1.0005480855330877,0.0004058989993891202
1386.398386104517,1386.398386104517,1.000119703797371,0.00040605518708011003
1386.405330612451,1386.405330612451,1.0010820843284134,0.00040570355154656725
1386.4122751201073,1386.4122751201073,0.9998479529487675,0.00040586820519497926
1386.4192196277636,1386.4192196277636,0.9996246106827019,0.00040592889058066646
1386.4261641352323,1386.4261641352323,0.9997429183283082,0.00040575973523711035
1386.433108642609,1386.433108642609,0.9992725213505158,0.0004059666300209117
1386.4400531499862,1386.4400531499862,1.0003762964412735,0.000406038683084773
1386.4469976572689,1386.4469976572689,0.9991734105091041,0.00040584874798157484
1386.4539421643658,1386.4539421643658,1.0009631592641859,0.00040591396850792136
1386.46088667137,1386.46088667137,0.9992988163738928,0.00040623042196484885
1386.4678311783737,1386.4678311783737,0.9997687698128292,0.00040589472623542836
1386.4747756851912,1386.4747756851912,1.0011444715464863,0.0004061394190259343
1386.4817201919159,1386.4817201919159,0.9997937253744255,0.0004060666492959837
1386.4886646987338,1386.4886646987338,0.9999325172019546,0.00040601775131438283
1386.4956092052712,1386.4956092052712,0.9999246006474326,0.00040606305231448225
1386.5025537117167,1386.5025537117167,1.0004382882967437,0.00040597679042360954
1386.5094982181622,1386.5094982181622,0.9998645101088177,0.00040604540089765606
1386.516442724514,1386.516442724514,1.0000936288875173,0.00040613747554765496
1386.5233872307722,1386.5233872307722,1.000055898987325,0.00040621264266135044
1386.5303317368455,1386.5303317368455,1.000241087238074,0.00040632619704680215
1386.5372762428246,1386.5372762428246,0.9995537547865956,0.0004061291883642627
1386.5442207488038,1386.5442207488038,0.999602367952589,0.00040635827283616545
1386.5511652546907,1386.5511652546907,0.9998889866167913,0.0004057042330430596
1386.558109760484,1386.558109760484,0.9992660327557262,0.000406012091030888
1386.5653320463148,1386.5653320463148,1.0008362642993973,0.00040657326856659726
1386.573387672819,1386.573387672819,0.9995420420938782,0.00040606667282114896
1386.580332178333,1386.580332178333,1.0007367352118444,0.00040626440906762405
1386.587276683567,1386.587276683567,1.0005313674412277,0.00040621811470577956
1386.5942211888946,1386.5942211888946,0.9989352494050385,0.0004062375203655258
1386.6011656941293,1386.6011656941293,1.000361277817891,0.0004058433925011319
1386.6081101992706,1386.6081101992706,1.0003010447803358,0.00040581317812635333
1386.6150547043178,1386.6150547043178,0.9989777714548573,0.00040606236038863647
1386.621999209087,1386.621999209087,1.0004793681811925,0.0004060393810126334
1386.6289437139494,1386.6289437139494,1.0002351566517431,0.0004060723532307114
1386.6358882187174,1386.6358882187174,0.9995180652949237,0.000406135876797398
1386.6428327233934,1386.6428327233934,1.0001606915521741,0.0004061545143914698
1386.649777227976,1386.649777227976,0.9997657586760319,0.0004058218293567749
1386.6567217325578,1386.6567217325578,1.0006777965095506,0.00040598914321180786
1386.6636662367682,1386.6636662367682,1.0007176445262917,0.00040647059481015147
1386.6706107410714,1386.6706107410714,0.9997008270133365,0.0004065059693223303
1386.6775552452814,1386.6775552452814,1.0001409727483836,0.00040615886412564484
1386.6844997493045,1386.6844997493045,0.9995709664229621,0.0004060082277422911
1386.6914442534217,1386.6914442534217,1.000515498233209,0.00040644416899430206
1386.6983887573526,1386.6983887573526,0.999242438644465,0.0004063052335699973
1386.705333261189,1386.705333261189,0.9997845640156859,0.0004063279300115733
1386.7122777649336,1386.7122777649336,0.999883437831441,0.0004063904463035554
1386.7192222686785,1386.7192222686785,0.9994177843521905,0.0004063665450068345
1386.726166772143,1386.726166772143,1.0007375527078526,0.00040643466434944693
1386.7331112757008,1386.7331112757008,1.0002094844085598,0.0004064112021141375
1386.7400557789795,1386.7400557789795,0.9993358447118034,0.0004061877407109632
1386.7470002822586,1386.7470002822586,1.0004293816704983,0.00040667489492347727
1386.7539447855365,1386.7539447855365,1.000490815584526,0.0004059711351553202
1386.7608892887224,1386.7608892887224,1.0004378130470495,0.0004064721592162405
1386.767833791629,1386.767833791629,0.9997021295994756,0.00040628103784376
1386.7750560746656,1386.7750560746656,1.0011744301695873,0.000406535662177019
1386.7831116980033,1386.7831116980033,1.0002380959392065,0.00040633465309600664
1386.7900562008167,1386.7900562008167,0.9992248518330751,0.0004063414433989669
1386.7970007033498,1386.7970007033498,1.0000288299815732,0.0004062478229875384
1386.8039452058829,1386.8039452058829,1.0005816730418648,0.00040614137897293176
1386.8108897084169,1386.8108897084169,0.9999961537366833,0.0004063546656747171
1386.8178342107647,1386.8178342107647,1.000168631574724,0.0004062388882918595
1386.8247787130178,1386.8247787130178,0.9998279464679538,0.00040649001848030834
1386.8317232153659,1386.8317232153659,0.999823281131764,0.00040654637458510597
1386.838667717434,1386.838667717434,1.0000451244010657,0.0004064739463278907
1386.845612219408,1386.845612219408,0.9997078892340413,0.00040620888503824963
1386.8525567213833,1386.8525567213833,1.0006654184934136,0.0004065576802432157
1386.859501223172,1386.859501223172,1.0005683803445726,0.0004065763267628777
1386.8664457249608,1386.8664457249608,0.9994661687685514,0.00040632033611680014
1386.8733902266551,1386.8733902266551,1.000763993539816,0.000406662297451494
1386.8803347281646,1386.8803347281646,0.9985232863958766,0.0004063314646819172
1386.887279229674,1386.887279229674,0.9993723560841753,0.0004066552746909317
1386.8942237310894,1386.8942237310894,1.0008498639048982,0.00040663263348672193
1386.9011682324121,1386.9011682324121,1.0008539452087675,0.0004064981905896778
1386.9081127336426,1386.9081127336426,0.9996603459858301,0.00040665718449382494
1386.915057234593,1386.915057234593,1.0001299726580697,0.00040642020336170774
1386.9220017359153,1386.9220017359153,1.0004421640468033,0.0004065269427619636
1386.9289462369586,1386.9289462369586,1.000026194407193,0.00040623546871409197
1386.935890737444,1386.935890737444,1.0010693306135472,0.00040684911914792566
1386.9428352383936,1386.9428352383936,0.9994134299727107,0.000406477915930006
1386.9497797390645,1386.9497797390645,0.9993214902051756,0.00040610766517712785
1386.956724239736,1386.956724239736,0.9996686494287379,0.0004066887474032054
1386.9636687402206,1386.9636687402206,1.0003769633859183,0.00040652747710211964
1386.9706132406113,1386.9706132406113,1.0001160190888396,0.000406532518839235
1386.9775577410032,1386.9775577410032,1.0006551745176162,0.00040667258775010896
1386.985335581137,1386.985335581137,0.9988479898837987,0.00040677049834614385
1386.9928356413243,1386.9928356413243,1.0000154789166937,0.0004063019183342783
1386.9997801414365,1386.9997801414365,0.9999093532845033,0.00040622930835868264
1387.006724641456,1387.006724641456,1.000525327652303,0.0004063289906597833
1387.013669141195,1387.013669141195,0.9997469151110254,0.0004064064186559878
1387.0206136410277,1387.0206136410277,0.9997950068059861,0.00040641240858239864
1387.027558140768,1387.027558140768,1.0007390280660053,0.0004062827975170191
1387.0345026404145,1387.0345026404145,0.9998545319777484,0.00040647724027750994
1387.0414471399674,1387.0414471399674,0.9997162529451022,0.00040608860036708334
1387.0483916393346,1387.0483916393346,1.0005502012976133,0.00040659650319504434
1387.055336138702,1387.055336138702,1.0001635005662646,0.0004062958957036575
1387.0622806378826,1387.0622806378826,1.0005625095647863,0.00040638031884447743
1387.069225137156,1387.069225137156,0.9994083413846935,0.00040630537731101217
1387.0761696362442,1387.0761696362442,1.0000060105465558,0.00040653868802597817
1387.0831141352392,1387.0831141352392,1.0003322208236924,0.00040647030890784226
1387.0900586341395,1387.0900586341395,1.0001823656565398,0.0004061544814753525
1387.0970031329484,1387.0970031329484,0.9999377943865234,0.00040640797433091165
1387.1039476315705,1387.1039476315705,1.0001332506663354,0.00040657160501743556
1387.1108921301925,1387.1108921301925,0.9991622238387994,0.00040640050991909784
1387.1178366288138,1387.1178366288138,0.9995980087253082,0.000406397270047934
1387.1247811274363,1387.1247811274363,1.0005944885891431,0.0004065785629002253
1387.1317256257798,1387.1317256257798,1.000761022436799,0.00040669787317919
1387.1386701241213,1387.1386701241213,1.0001859392447368,0.00040638344710641614
1387.1456146222777,1387.1456146222777,1.0005529501330872,0.0004068433521201261
1387.1525591204347,1387.1525591204347,0.9993534146440922,0.0004065949394541976
1387.1595036184049,1387.1595036184049,1.000254384108987,0.00040651097265653453
1387.166448116374,1387.166448116374,0.9993094995852172,0.0004065660752291619
1387.1733926142517,1387.1733926142517,0.9987865311737313,0.00040653738865024556
1387.1803371120357,1387.1803371120357,0.9998623198063559,0.00040642288646442333
1387.1872816097261,1387.1872816097261,1.001401217356567,0.0004063051958195757
1387.1942261072304,1387.1942261072304,0.9995137505265091,0.00040659152660641785
1387.2011706049213,1387.2011706049213,0.9999348356378708,0.00040657521136392495
1387.2081151022398,1387.2081151022398,0.9999289228183013,0.0004064449447391592
1387.2150595996502,1387.2150595996502,1.0012387865125651,0.00040644548068247013
1387.2220040968757,1387.2220040968757,0.9995989392501368,0.0004068486528168261
1387.228948594008,1387.228948594008,1.0002331638322537,0.00040593236048247624
1387.2358930911396,1387.2358930911396,0.9996443135414241,0.0004063677268361966
1387.242837588085,1387.242837588085,1.0000457839723675,0.0004064318098234756
1387.2497820850308,1387.2497820850308,1.000388627569372,0.00040643958428219904
1387.2567265818839,1387.2567265818839,0.9995945701658044,0.0004065122318811278
1387.2636710785494,1387.2636710785494,0.9998362734265992,0.0004063370312066745
1387.2706155752157,1387.2706155752157,0.9992846800755562,0.00040633329244272795
1387.2775600718824,1387.2775600718824,0.9998873530704818,0.00040641715405196667
1387.284504568269,1387.284504568269,1.0004467236069225,0.0004063303378519025
1387.2914490645624,1387.2914490645624,1.000606399474354,0.0004064002699613972
1387.2983935608565,1387.2983935608565,1.0004383291516885,0.00040654843211146506
1387.3053380571505,1387.3053380571505,0.9997620734585307,0.0004064919303737244
1387.3131158929054,1387.3131158929054,1.0002543720148456,0.0004066546784982889
1387.3217270679374,1387.3217270679374,0.9993104783189777,0.00040658126407523134
1387.3289493436175,1387.3289493436175,0.9998819128384058,0.00040635527817034804
1387.336727179001,1387.336727179001,0.9999850545205687,0.00040612436266248815
1387.344227234346,1387.344227234346,1.000004136799758,0.000406507974474937
1387.35144950984,1387.35144950984,0.9997293656912687,0.00040612077052893346
1387.3595051247023,1387.3595051247023,0.9999582168225268,0.000406331465124994
1387.3664496201575,1387.3664496201575,1.0001062052334806,0.0004063787366909518
1387.3733941156133,1387.3733941156133,1.0009050798219605,0.0004067592119355523
1387.380338610883,1387.380338610883,0.9999620340374742,0.000406076659418709
1387.3872831060587,1387.3872831060587,0.9994994543122733,0.0004064279275257858
1387.3942276012344,1387.3942276012344,1.0086999387469566,0.0004067909175187864
1387.4011720962246,1387.4011720962246,0.9996523586839846,0.00040622398755722983
1387.4081165911218,1387.4081165911218,1.0004568249758143,0.0004064145641665141
1387.4150610860174,1387.4150610860174,0.9995487968649897,0.0004064898715729467
1387.4220055807284,1387.4220055807284,1.00024794272477,0.000406386084022042
1387.4289500755326,1387.4289500755326,1.000065219146312,0.0004065083910083562
1387.4358945700565,1387.4358945700565,0.9988191469121904,0.000406030918146981
1387.4428390645805,1387.4428390645805,1.0006917247695462,0.0004064518750382629
1387.4497835590118,1387.4497835590118,0.9993201994581385,0.0004063265689962618
1387.4567280534434,1387.4567280534434,1.001143244645876,0.0004064459222476441
1387.4636725475943,1387.4636725475943,1.0003168517506382,0.00040651967670327527
1387.4706170419324,1387.4706170419324,1.0000500264939067,0.0004064721732912924
1387.477561535898,1387.477561535898,0.9993329238992938,0.00040642339494532015
1387.4845060298637,1387.4845060298637,1.0002889928450145,0.00040666876964743465
1387.491450523828,1387.491450523828,0.9992084396970125,0.00040661554486212225
1387.498395017794,1387.498395017794,1.0011421246586576,0.00040679886225317223
1387.505339511294,1387.505339511294,1.000131744205079,0.00040634769613648097
1387.512284005166,1387.512284005166,0.9989535943455008,0.0004066802774023817
1387.5192284986656,1387.5192284986656,0.9993367826564532,0.0004065571372753558
1387.5261729921656,1387.5261729921656,1.001055143280142,0.00040695078718284836
1387.5331174855728,1387.5331174855728,1.000670161457775,0.0004063773840196778
1387.5400619789787,1387.5400619789787,0.9992887486261226,0.0004069568404697414
1387.5470064721062,1387.5470064721062,0.9994556554419777,0.0004067389813174882
1387.553950965327,1387.553950965327,1.0000110242879479,0.00040671077160351715
1387.560895458361,1387.560895458361,1.0003702520825906,0.00040697772167223216
1387.5678399513945,1387.5678399513945,1.000243571599237,0.00040673082422171497
1387.5747844443356,1387.5747844443356,1.0005181120272015,0.0004068657819114326
1387.5817289370905,1387.5817289370905,1.0002155236902919,0.00040650522216377683
1387.5886734298454,1387.5886734298454,0.9986846227331355,0.00040647150650723946
1387.5956179225063,1387.5956179225063,1.0003772100899413,0.00040661972955538934
1387.602562414982,1387.602562414982,0.9996274903917535,0.0004066818972456632
1387.609506907551,1387.609506907551,0.9999220696977996,0.0004065689273822505
1387.6164513999324,1387.6164513999324,0.9997303131957735,0.00040673909497654267
1387.6233958922214,1387.6233958922214,1.0003918273518284,0.00040667405087010613
1387.6303403844179,1387.6303403844179,1.000439226787423,0.0004062655882628584
1387.637284876614,1387.637284876614,1.001110040418213,0.000406678369533796
1387.644229368716,1387.644229368716,0.9995054140846426,0.00040673098387013175
1387.6511738606328,1387.6511738606328,0.9994017730761644,0.0004067121302810262
1387.6581183524563,1387.6581183524563,1.0008873676073762,0.00040668458897459407
1387.6650628442799,1387.6650628442799,0.999446606311299,0.00040673326663669563
1387.6720073361957,1387.6720073361957,0.9995975121136083,0.0004066278458413463
1387.678951827833,1387.678951827833,0.9993908843479714,0.00040639853425624144
1387.6858963191912,1387.6858963191912,1.0003855452522905,0.0004071009990134071
1387.6928408106419,1387.6928408106419,1.000081335533058,0.0004065665541668569
1387.6997853020923,1387.6997853020923,1.0006959178320278,0.000407075787409077
1387.7067297934504,1387.7067297934504,0.999248785902162,0.0004064949488078091
1387.7136742846221,1387.7136742846221,0.9995332313944287,0.00040709251304713555
1387.7206187757001,1387.7206187757001,0.9997633384868276,0.0004066801517285239
