time,time,flux,flux_err
1570.5435323272127,1570.5435323272127,1.0000797516126128,0.00080046396295302
1570.5518658166127,1570.5518658166127,0.9997955418342009,0.0007946373047209122
1570.5588103911284,1570.5588103911284,0.9996411545835665,0.0007897826600140595
1570.5657549657374,1570.5657549657374,0.9999987128812353,0.0007854561845711995
1570.5726995403472,1570.5726995403472,1.0007525574985425,0.000781046386010123
1570.5796441150023,1570.5796441150023,1.0006588442389994,0.0007766638868082033
1570.5865886897507,1570.5865886897507,1.0005287081831917,0.0007725236631666317
1570.5935332644992,1570.5935332644992,1.0005045498674323,0.0007681935389987657
1570.6004778393412,1570.6004778393412,0.9990609509511594,0.0007638123147175095
1570.6079779801653,1570.6079779801653,0.999664169025954,0.0007595825260487248
1570.6157559040962,1570.6157559040962,0.9989913866686342,0.000754969152402064
1570.6227004790308,1570.6227004790308,1.0008239847463476,0.0007511611075408672
1570.6302006200403,1570.6302006200403,1.001634899031644,0.0007470008035292496
1570.6379785441118,1570.6379785441118,1.0008788501110433,0.0007426086916262119
1570.644923119233,1570.644923119233,1.0001211203121485,0.0007389780490816853
1570.6518676943538,1570.6518676943538,1.0008722876546081,0.0007351172936195746
1570.6588122695678,1570.6588122695678,1.0001801852593728,0.0007315358203350453
1570.6657568446888,1570.6657568446888,0.9988835410530059,0.0007276194529894267
1570.6727014200437,1570.6727014200437,0.9996334215807312,0.0007241037611849333
1570.6796459953978,1570.6796459953978,0.9998719774111748,0.0007203901545312872
1570.6865905707516,1570.6865905707516,0.999809138277113,0.0007166586432166777
1570.6935351461054,1570.6935351461054,0.9998813819142223,0.0007132544806330398
1570.700479721459,1570.700479721459,1.0016607819657715,0.0007095006624796556
1570.7074242968606,1570.7074242968606,0.9995731151513434,0.0007055703036837345
1570.7143688724007,1570.7143688724007,0.9998076021294443,0.000701753933658236
1570.7213134478945,1570.7213134478945,1.0002027992460123,0.0006981159554027123
1570.7282580234344,1570.7282580234344,1.0000089500982592,0.0006942712076872297
1570.735202599021,1570.735202599021,1.000409605685643,0.000690363057873252
1570.7421471746559,1570.7421471746559,0.9993122954391799,0.0006863357928553438
1570.7490917502887,1570.7490917502887,1.0001555380362317,0.0006825255023048375
1570.756036326015,1570.756036326015,0.9999799452403944,0.0006785809808660705
1570.7629809016482,1570.7629809016482,1.0011701272391877,0.0006749925172374009
1570.769925477421,1570.769925477421,0.9996763328998075,0.0006712690329534367
1570.776870053242,1570.776870053242,1.000357105223532,0.0006681930903749235
1570.7838146290146,1570.7838146290146,0.9993044134572783,0.0006649245573082111
1570.790759204834,1570.790759204834,1.0008671287617008,0.0006622042929001393
1570.7977037807002,1570.7977037807002,1.0008240194426123,0.0006592549172996159
1570.8046483566127,1570.8046483566127,0.998994258752403,0.0006563319201320572
1570.8115929325268,1570.8115929325268,0.9998335376773883,0.0006538637961245551
1570.8185375084856,1570.8185375084856,1.0011716579139267,0.0006515787833145423
1570.8254820843983,1570.8254820843983,1.000445151570666,0.0006492129945928576
1570.8324266603577,1570.8324266603577,1.0004778496193265,0.0006461221209123864
1570.83937123641,1570.83937123641,0.9992988136246366,0.0006434198549648351
1570.846315812417,1570.846315812417,1.0001175284216948,0.000641305842480277
1570.8532603884692,1570.8532603884692,0.9991812493965992,0.0006392229921779852
1570.8602049645212,1570.8602049645212,0.9996751730902146,0.0006372980659565603
1570.8671495406668,1570.8671495406668,1.0003328408496779,0.0006355962268158586
1570.874094116812,1570.874094116812,1.0000376705238874,0.0006336634519453966
1570.8821498251086,1570.8821498251086,1.0006598814123786,0.0006321089797524158
1570.8893721843149,1570.8893721843149,1.0008661131071148,0.0006305931626996614
1570.8963167605066,1570.8963167605066,0.9995657665754631,0.000628333257751059
1570.9032613367453,1570.9032613367453,0.9988507503557766,0.0006265399560363005
1570.9102059129375,1570.9102059129375,1.0003225557938396,0.0006249101430733634
1570.9171504891772,1570.9171504891772,0.9999184436619393,0.0006228088570493287
1570.9240950654623,1570.9240950654623,1.0001380544771148,0.0006210633133506684
1570.9310396417006,1570.9310396417006,1.0007026454379662,0.0006191298882452618
1570.9379842180326,1570.9379842180326,0.9994226051163843,0.0006173617799079306
1570.9449287943178,1570.9449287943178,1.0000965943609326,0.0006157916349767106
1570.951873370697,1570.951873370697,1.000661982003603,0.0006138635616732162
1570.9588179469824,1570.9588179469824,0.9998110987635089,0.0006123200159342606
1570.9657625233604,1570.9657625233604,0.9988888173428909,0.000610298496127974
1570.9727070997853,1570.9727070997853,0.9999359904911949,0.0006087017669727444
1570.9796516760703,1570.9796516760703,1.0007983618364187,0.000607336591244514
1570.9865962525428,1570.9865962525428,0.9995067823954539,0.0006055339649655819
1570.993540828875,1570.993540828875,1.0002978650546666,0.000603688806626449
1571.0004854053927,1571.0004854053927,1.0002200984943284,0.0006023959983127717
1571.0074299817709,1571.0074299817709,0.9998751186527286,0.0006001809817005792
1571.0143745581959,1571.0143745581959,0.9997230389641614,0.0005982086434519367
1571.0213191347145,1571.0213191347145,1.0000096620616683,0.000596462111333526
1571.028263711233,1571.028263711233,1.0011153192026847,0.0005945475215126062
1571.035208287704,1571.035208287704,0.9991808406772151,0.0005925636900453851
1571.0421528640359,1571.0421528640359,0.9992735351330655,0.0005906129411302665
1571.049097440554,1571.049097440554,0.9999668740214611,0.000588692379893677
1571.0560420170725,1571.0560420170725,0.9993617822713073,0.0005867070076496428
1571.0629865935912,1571.0629865935912,1.000479469180298,0.0005851538280622009
1571.069931170109,1571.069931170109,0.9999769606722759,0.0005831274938651514
1571.0768757466271,1571.0768757466271,1.0006100913760196,0.000581265651282099
1571.0838203231915,1571.0838203231915,0.9997470153242307,0.0005796148015733077
1571.0907648998964,1571.0907648998964,1.000544355916029,0.0005780205649139864
1571.097709476415,1571.097709476415,1.000798847178792,0.0005763514347751449
1571.1046540529328,1571.1046540529328,0.999797454518513,0.0005746398979286312
1571.1115986294512,1571.1115986294512,0.9996632214500787,0.0005732637862920685
1571.1185432059688,1571.1185432059688,1.000330413075766,0.0005721450911944705
1571.1254877826732,1571.1254877826732,1.0003383287792618,0.0005709016792896746
1571.132432359239,1571.132432359239,0.9995480069687789,0.000569706818860377
1571.139376935757,1571.139376935757,0.9993902394940968,0.0005686854784515196
1571.1463215123215,1571.1463215123215,0.9999744693626351,0.0005676087829508869
1571.1532660890255,1571.1532660890255,0.9998598309198945,0.0005664954774222692
1571.1602106655434,1571.1602106655434,1.0000470758698898,0.0005654367430772988
1571.167155242109,1571.167155242109,0.9994575556899064,0.0005643028865518984
1571.1740998188136,1571.1740998188136,1.000420820212255,0.0005635899607144872
1571.1810443953316,1571.1810443953316,1.0001144267200184,0.0005631929154565757
1571.1879889719426,1571.1879889719426,0.999807429748175,0.0005617992634355219
1571.1949335486001,1571.1949335486001,1.0007929534087263,0.0005610681612442319
1571.2018781251188,1571.2018781251188,0.9993306249136611,0.0005599561592478867
1571.208822701777,1571.208822701777,1.0002300005225713,0.0005592767423287931
1571.215767278388,1571.215767278388,1.0000781893151358,0.0005588786007907508
1571.222711854906,1571.222711854906,0.9996992987430391,0.0005579448349968318
1571.2296564316568,1571.2296564316568,0.999848400407226,0.0005572466455842043
1571.2366010081755,1571.2366010081755,1.0006698331626578,0.0005567306218377192
1571.2435455847406,1571.2435455847406,1.001142817880998,0.0005561187664847734
1571.2504901614448,1571.2504901614448,1.0002879364312092,0.0005551743363251504
1571.2574347379627,1571.2574347379627,0.9992066577263833,0.0005541948557030622
1571.2643793145737,1571.2643793145737,0.9990771582225928,0.0005534216514665425
1571.2713238912315,1571.2713238912315,1.0005246679474116,0.0005531784366906461
1571.2782684677509,1571.2782684677509,0.9989461487835637,0.0005518254840796548
1571.285213044315,1571.285213044315,1.0003543660465806,0.0005513919939327168
1571.2921576210194,1571.2921576210194,1.0006956199715324,0.0005506662451238459
1571.2991021975372,1571.2991021975372,1.0005189745929888,0.000549907058652151
1571.3060467740554,1571.3060467740554,1.0008916637023344,0.0005489348684887992
1571.3129913506205,1571.3129913506205,1.000346244002441,0.0005480081743432709
1571.3199359273253,1571.3199359273253,0.9996694778884561,0.0005469440925137117
1571.3268805038435,1571.3268805038435,1.000460858402304,0.0005462108511303748
1571.333825080361,1571.333825080361,0.9998439398282766,0.0005454375596772778
1571.3407696568788,1571.3407696568788,0.9986461256236255,0.0005442367960519132
1571.3477142333973,1571.3477142333973,0.9999873803240735,0.0005437950580988805
1571.3546588099164,1571.3546588099164,0.9999558081343215,0.000542865528026197
1571.3616033864341,1571.3616033864341,1.0004522089982306,0.0005420184861299446
1571.368547962999,1571.368547962999,1.0002833640881676,0.0005411828025550316
1571.3754925396563,1571.3754925396563,0.9998311765784337,0.0005401537722688727
1571.3824371159883,1571.3824371159883,1.0005626955813816,0.0005396693378790838
1571.389381692507,1571.389381692507,0.9997207832311055,0.000538545591056026
1571.3963262690254,1571.3963262690254,0.9996932719531337,0.000537887212805245
1571.4032708455434,1571.4032708455434,0.9995367507218915,0.0005369648472630505
1571.4102154220611,1571.4102154220611,0.9998406483571834,0.0005362810176636174
1571.4171599985793,1571.4171599985793,1.0007844538656472,0.000536103566130831
1571.4241045750505,1571.4241045750505,1.000660323241365,0.0005353425593713839
1571.4310491513831,1571.4310491513831,1.0002643947296144,0.0005347965450708413
1571.4379937279016,1571.4379937279016,0.99927621829578,0.0005341670859232717
1571.4449383043725,1571.4449383043725,0.9997747780103919,0.0005338037589365772
1571.4518828807045,1571.4518828807045,0.9994190993155957,0.0005336499116562145
1571.4588274572227,1571.4588274572227,0.9999613551536954,0.0005333907748856463
1571.4657720335083,1571.4657720335083,0.9999555451074839,0.0005329009929139507
1571.472716610027,1571.472716610027,1.0005489053387908,0.0005328116595408385
1571.479661186312,1571.479661186312,1.0004480772991462,0.0005326174669851363
1571.4866057627364,1571.4866057627364,1.0006049063206195,0.0005324948630380084
1571.4935503391148,1571.4935503391148,0.9999263516349363,0.0005324147627114229
1571.5004949154002,1571.5004949154002,1.000108767264597,0.0005320967368875648
1571.507439491733,1571.507439491733,0.9997097414732755,0.0005320514928155201
1571.5143840680648,1571.5143840680648,1.0004252149688955,0.0005318703078310823
1571.5213286443964,1571.5213286443964,0.9994665183851253,0.0005316062347740268
1571.5282732206815,1571.5282732206815,0.999586893999559,0.0005314728037793791
1571.5352177969667,1571.5352177969667,1.0005559307368526,0.0005315932622157349
1571.5421623732523,1571.5421623732523,0.9994154879698852,0.0005310283879380532
1571.5491069494915,1571.5491069494915,0.9999170353347793,0.0005308156474743986
1571.55605152573,1571.55605152573,1.0004503671369969,0.0005308288985254316
1571.5629961019222,1571.5629961019222,1.0002458233444054,0.00053082665894813
1571.5699406781607,1571.5699406781607,1.000795759015436,0.0005303880623134231
1571.576885254399,1571.576885254399,0.9999867883527885,0.0005300128913754316
1571.5838298305457,1571.5838298305457,0.9996320529621714,0.0005299074730799821
1571.5907744067376,1571.5907744067376,0.9992134759882308,0.0005293465075963196
1571.5977189828832,1571.5977189828832,0.9997636996504822,0.0005294697593152722
1571.604663559075,1571.604663559075,0.9998804507562038,0.0005289573527251482
1571.611608135174,1571.611608135174,1.000765414304977,0.000528777950203883
1571.618552711227,1571.618552711227,0.999357855849502,0.0005284789714758314
1571.6254972873733,1571.6254972873733,1.0004008557156094,0.0005283874325462516
1571.6324418634254,1571.6324418634254,0.9995727761619404,0.0005278639760775817
1571.639386439478,1571.639386439478,1.0002943901257921,0.000527878806648747
1571.64633101553,1571.64633101553,1.0005678397386526,0.0005276023337679359
1571.6532755915355,1571.6532755915355,1.0000960922083606,0.0005272481731248967
1571.6602201675887,1571.6602201675887,0.9999356751883417,0.0005267758668030657
1571.6671647435487,1571.6671647435487,0.9997577112836395,0.0005265923484579996
1571.6741093195542,1571.6741093195542,0.9997926037463417,0.000526334583326928
1571.681053895513,1571.681053895513,0.9997414257892874,0.0005260610488756511
1571.6879984714258,1571.6879984714258,1.0003788145259804,0.0005259258403492589
1571.6949430473849,1571.6949430473849,1.0001224876432881,0.0005255503917873017
1571.7018876232523,1571.7018876232523,1.0004917332478265,0.0005252799765256631
1571.7088321991184,1571.7088321991184,0.9995789181365217,0.0005247380591418608
1571.7157767749843,1571.7157767749843,1.0001497483269053,0.0005245593957277154
1571.7227213508502,1571.7227213508502,0.999687269878265,0.0005241580459889077
1571.7296659266697,1571.7296659266697,0.9990421589243061,0.0005236229693995596
1571.7366105024898,1571.7366105024898,1.0007647283231873,0.000523443870545432
1571.7435550782634,1571.7435550782634,0.9998225106168015,0.0005232852601110427
1571.7504996539897,1571.7504996539897,0.9996146053958445,0.0005228200743961845
1571.7574442297628,1571.7574442297628,1.000250051423894,0.0005223387287461559
1571.7643888054888,1571.7643888054888,1.0002841020306659,0.0005219503748834784
1571.7713333812153,1571.7713333812153,1.0001523325324775,0.0005215789808818954
1571.7782779568956,1571.7782779568956,1.000785712760366,0.0005212999308100927
1571.7852225325296,1571.7852225325296,1.0002181790821594,0.0005208197014653984
1571.7921671081626,1571.7921671081626,0.999622669214129,0.0005209083347347421
1571.7991116838425,1571.7991116838425,0.9995287365114237,0.0005203960955413392
1571.8060562594292,1571.8060562594292,1.000253609515056,0.0005200780215645875
1571.8130008350156,1571.8130008350156,0.9992067092147714,0.0005199276799163401
1571.8199454105566,1571.8199454105566,0.9996438901634134,0.0005198427254899733
1571.8268899861437,1571.8268899861437,1.000159724097512,0.0005195553347028612
1571.833834561637,1571.833834561637,1.000224971008663,0.0005193206437028169
1571.8407791370842,1571.8407791370842,1.0006578576106673,0.0005192205755713945
1571.847723712624,1571.847723712624,1.0003160444012473,0.0005191710223306023
1571.8546682880244,1571.8546682880244,1.0001575168472634,0.0005188670795339841
1571.8616128633792,1571.8616128633792,0.9982917363379563,0.0005181642253049477
1571.868557438966,1571.868557438966,1.0006957001196606,0.0005186084734666947
1571.87550201432,1571.87550201432,1.0005553557500582,0.0005183821216664012
1571.8824465896737,1571.8824465896737,0.9994250569079643,0.0005180881693194432
1571.8893911650273,1571.8893911650273,1.000285412060761,0.0005180429757774333
1571.8963357401951,1571.8963357401951,1.0000153512902261,0.0005179073626475258
1571.9032803155035,1571.9032803155035,0.999915792089538,0.0005179900360377293
1571.9102248908573,1571.9102248908573,0.9997002230539802,0.0005178704744734934
1571.9171694659783,1571.9171694659783,1.0004770752907257,0.0005179015286606791
1571.9241140412855,1571.9241140412855,0.999847535249734,0.000517876793304267
1571.9310586164531,1571.9310586164531,1.000064071058676,0.000517782561299302
1571.9380031915741,1571.9380031915741,1.0004840790055864,0.0005177288884253633
1571.9449477667424,1571.9449477667424,0.9992539111723241,0.0005177985422040387
1571.951892341864,1571.951892341864,1.0004972483362153,0.0005178067843248672
1571.958836916985,1571.958836916985,0.999959668163689,0.0005176669829113607
1571.9657814920124,1571.9657814920124,0.9997551063591551,0.0005175925386672019
1571.9727260670873,1571.9727260670873,1.000413233644685,0.0005174750420587823
1571.9796706420682,1571.9796706420682,0.9993164784686931,0.0005175331540131176
1571.9866152170969,1571.9866152170969,0.9998193286894509,0.0005173618423910242
1571.9935597920787,1571.9935597920787,1.000446098143082,0.000517393618919951
1572.0005043669669,1572.0005043669669,0.9999645912050614,0.0005171550030234315
1572.0074489419017,1572.0074489419017,0.9996365729783637,0.0005171023705855586
1572.0143935167896,1572.0143935167896,1.0004200404846162,0.0005168625352916956
1572.0213380916312,1572.0213380916312,1.0004934701181014,0.0005170557256428607
1572.0282826664738,1572.0282826664738,0.9994866626101706,0.0005166887811062166
1572.0352272412688,1572.0352272412688,0.9997094176147477,0.0005167328949174172
1572.0421718161108,1572.0421718161108,1.0000547798083697,0.0005162218695810472
1572.049116390766,1572.049116390766,1.0002247001299944,0.0005162510113111078
1572.0560609655608,1572.0560609655608,1.0000840800178907,0.0005160139734782113
1572.0630055402628,1572.0630055402628,1.0002018304291902,0.0005158846351851293
1572.0699501149188,1572.0699501149188,0.9996490964193038,0.0005157185819542661
1572.0768946895746,1572.0768946895746,1.000004504815258,0.0005156837971934823
1572.0838392641836,1572.0838392641836,0.9990877273966262,0.0005153926548489941
1572.0907838387916,1572.0907838387916,1.0006024897444237,0.0005152944110385413
1572.0977284133078,1572.0977284133078,1.000973389539463,0.0005155171391626982
1572.10467298787,1572.10467298787,0.999849236276775,0.0005151359877255163
1572.1116175623392,1572.1116175623392,0.9999748498450398,0.0005149118529892558
1572.1185621368556,1572.1185621368556,0.9998287460850651,0.0005148500834057502
1572.1255067113248,1572.1255067113248,1.0001805588770774,0.000514727640224575
1572.1324512857007,1572.1324512857007,0.9999254803077564,0.0005147581748336737
1572.1393958600768,1572.1393958600768,0.9997065751396427,0.0005145954065918179
1572.146340434499,1572.146340434499,0.9993951045726082,0.0005146429598758934
1572.1532850088286,1572.1532850088286,1.0005233497592116,0.0005148646824673055
1572.1602295831126,1572.1602295831126,1.0005190564470297,0.0005144912935550214
1572.1671741573487,1572.1671741573487,0.999409122484438,0.0005143011759934664
1572.1741187317245,1572.1741187317245,1.0002648847417366,0.0005142140175845794
1572.1810633059144,1572.1810633059144,1.000110193886935,0.0005142349790962571
1572.1880078801037,1572.1880078801037,0.9987848480717594,0.0005138955215740259
1572.1949524542936,1572.1949524542936,1.0009826465510623,0.0005142827518362935
1572.2018970282513,1572.2018970282513,0.9996527888486666,0.0005142025631495438
1572.2088416024412,1572.2088416024412,1.0001197325164732,0.0005141101541044358
1572.2157861764913,1572.2157861764913,1.00014898233909,0.0005140434853141
1572.2227307505411,1572.2227307505411,1.0004519068344326,0.0005139154101752801
1572.2296753245441,1572.2296753245441,1.0000035209399105,0.0005139120684453068
1572.236619898501,1572.236619898501,0.999879111521285,0.0005138230418087243
1572.243564472459,1572.243564472459,1.0003748689137084,0.0005138144614840162
1572.2505090463696,1572.2505090463696,0.9985299622899635,0.0005133923914721384
1572.2574536202796,1572.2574536202796,1.0001929393905544,0.0005135815346564113
1572.264398194097,1572.264398194097,1.000556409851965,0.0005136607793712084
1572.2713427679607,1572.2713427679607,0.9996201567572556,0.0005132441596724269
1572.2782873416847,1572.2782873416847,1.0005448471165495,0.0005134311405948728
1572.2852319155022,1572.2852319155022,0.9997706586868974,0.0005130806901046293
1572.292176489227,1572.292176489227,1.000348086507612,0.0005132167300505118
1572.2991210629043,1572.2991210629043,1.0002654732842655,0.0005129345728228829
1572.3060656366285,1572.3060656366285,1.0000259727000036,0.0005129515802703309
1572.3130102102125,1572.3130102102125,0.9997707632270663,0.0005127728716003634
