time,time,flux,flux_err
1517.3514916843399,1517.3514916843399,,
1517.352880615487,1517.352880615487,,
1517.354269546169,1517.354269546169,,
1517.3556584768496,1517.3556584768496,,
1517.3584363386765,1517.3584363386765,,
1517.3598252693585,1517.3598252693585,,
1517.3612142005052,1517.3612142005052,,
1517.3626031311862,1517.3626031311862,0.9991743,0.00097623636
1517.3639920623332,1517.3639920623332,1.0005907,0.00094069436
1517.3667699241603,1517.3667699241603,1.0023909,0.0009055463
1517.368158855308,1517.368158855308,1.0038022,0.000895595
1517.369547785989,1517.369547785989,1.0022575,0.00088776107
1517.3709367171352,1517.3709367171352,1.0000876,0.00088062556
1517.37371457943,1517.37371457943,1.0029055,0.00086942106
1517.3751035105763,1517.3751035105763,1.0008559,0.0008652285
1517.3764924412574,1517.3764924412574,1.0022042,0.00086072984
1517.377881372404,1517.377881372404,1.0022205,0.0008563785
1517.3792703035508,1517.3792703035508,1.0029687,0.00085250835
1517.3806592346975,1517.3806592346975,1.0020826,0.0008471272
1517.3820481658443,1517.3820481658443,1.0025687,0.0008438861
1517.3834370969912,1517.3834370969912,1.0022371,0.0008397767
1517.3848260281372,1517.3848260281372,1.0024583,0.0008358773
1517.3862149592849,1517.3862149592849,1.0029818,0.0008322703
1517.3876038904323,1517.3876038904323,1.0022342,0.0008287879
1517.3889928215783,1517.3889928215783,1.0021802,0.00082480116
1517.3903817531902,1517.3903817531902,1.0024737,0.0008215677
1517.3917706843376,1517.3917706843376,1.0013685,0.0008178614
1517.393159615485,1517.393159615485,1.0031034,0.0008152365
1517.3945485466313,1517.3945485466313,1.0013436,0.00081182393
1517.3959374782437,1517.3959374782437,1.0025556,0.00080842804
1517.3973264093904,1517.3973264093904,1.0021906,0.0008052954
1517.3987153405371,1517.3987153405371,1.0010254,0.00080266345
1517.4014932032965,1517.4014932032965,1.0015107,0.00079535076
1517.402882134909,1517.402882134909,1.0005172,0.00079197926
1517.404271066055,1517.404271066055,1.0019153,0.00078944484
1517.4056599976682,1517.4056599976682,1.0009897,0.0007861456
1517.4070489288158,1517.4070489288158,1.0014209,0.0007836606
1517.4084378604273,1517.4084378604273,1.0017172,0.00078039704
1517.409826791574,1517.409826791574,1.0013831,0.000778132
1517.4112157231873,1517.4112157231873,1.0016646,0.0007746965
1517.4126046547997,1517.4126046547997,1.0015099,0.0007723385
1517.413993585946,1517.413993585946,1.0023909,0.00076972623
1517.4153825175583,1517.4153825175583,1.0015007,0.00076739216
1517.4167714491707,1517.4167714491707,1.0014974,0.00076444115
1517.418160380783,1517.418160380783,1.0010154,0.0007618326
1517.4195493123964,1517.4195493123964,1.0012515,0.00075914786
1517.420938243543,1517.420938243543,1.0012553,0.00075643713
1517.422327175155,1517.422327175155,1.001336,0.0007542408
1517.4237161067665,1517.4237161067665,1.0004905,0.0007515711
1517.4251050383798,1517.4251050383798,1.0007467,0.0007492349
1517.426493969993,1517.426493969993,1.000636,0.0007474003
1517.4278829016046,1517.4278829016046,1.0019149,0.000744856
1517.4292718332172,1517.4292718332172,1.0012317,0.0007422541
1517.4306607648302,1517.4306607648302,1.0019238,0.0007411805
1517.4320496964426,1517.4320496964426,1.0008674,0.000738456
1517.4334386280545,1517.4334386280545,1.0016721,0.0007364882
1517.4348275601326,1517.4348275601326,1.0020015,0.0007345826
1517.436216491745,1517.436216491745,1.0021131,0.00073213095
1517.4376054233574,1517.4376054233574,1.00127,0.0007298583
1517.4389943549706,1517.4389943549706,1.0004936,0.0007282383
1517.440383286583,1517.440383286583,0.9999704,0.0007268209
1517.4417722186606,1517.4417722186606,1.0013508,0.00072452566
1517.443161150273,1517.443161150273,1.0007738,0.0007232565
1517.4445500818863,1517.4445500818863,1.002042,0.0007212963
1517.4459390139643,1517.4459390139643,1.0006156,0.0007192405
1517.4473279455758,1517.4473279455758,1.0009891,0.00071780826
1517.448716877654,1517.448716877654,1.0016838,0.0007161101
1517.4501058092671,1517.4501058092671,0.99979544,0.0007147872
1517.4514947413452,1517.4514947413452,1.0013384,0.00071244733
1517.4528836729578,1517.4528836729578,0.9995586,0.00071154244
1517.454272605036,1517.454272605036,0.99981976,0.00071019353
1517.4556615366475,1517.4556615366475,0.9993006,0.000708718
1517.4570504687256,1517.4570504687256,1.0012237,0.0007076368
1517.4584394003389,1517.4584394003389,1.0018317,0.0007061336
1517.459828332417,1517.459828332417,0.9995209,0.00070412515
1517.4612172644945,1517.4612172644945,1.0012493,0.0007036181
1517.462606196107,1517.462606196107,1.0005345,0.0007019411
1517.4639951281858,1517.4639951281858,0.99945647,0.00070091
1517.465384060264,1517.465384060264,1.0003409,0.0006999867
1517.4667729918756,1517.4667729918756,0.9997361,0.0006984672
1517.4681619239539,1517.4681619239539,1.0007056,0.00069752545
1517.4695508560324,1517.4695508560324,1.0007381,0.0006961694
1517.4709397881104,1517.4709397881104,0.99998015,0.00069484935
1517.4723287201887,1517.4723287201887,1.0009817,0.00069403235
1517.473717652267,1517.473717652267,1.0012015,0.00069282274
1517.475106584344,1517.475106584344,1.0011625,0.00069178
1517.4764955159574,1517.4764955159574,1.0004823,0.0006908941
1517.4778844480363,1517.4778844480363,0.99993986,0.00068948814
1517.4792733801135,1517.4792733801135,1.0014117,0.0006887529
1517.480662312191,1517.480662312191,0.9996346,0.0006875354
1517.482051244269,1517.482051244269,0.9988527,0.00068635354
1517.4834401768137,1517.4834401768137,0.9995977,0.0006855161
1517.4848291088917,1517.4848291088917,1.0005163,0.0006843813
1517.4862180409698,1517.4862180409698,0.99998534,0.00068336324
1517.4876069730478,1517.4876069730478,1.0004758,0.0006825746
1517.4889959051259,1517.4889959051259,1.0000027,0.0006814335
1517.4903848372041,1517.4903848372041,1.0005771,0.00068016595
1517.4917737692824,1517.4917737692824,0.99967575,0.000679133
1517.4931627018261,1517.4931627018261,1.0001394,0.00067857676
1517.4945516339033,1517.4945516339033,0.9999372,0.00067763316
1517.4959405659822,1517.4959405659822,0.9995762,0.0006767461
1517.4973294980612,1517.4973294980612,0.9990565,0.0006752861
1517.498718430604,1517.498718430604,1.0003759,0.00067501166
1517.5001073626815,1517.5001073626815,1.0000138,0.00067402184
1517.5014962947596,1517.5014962947596,1.0002731,0.00067306764
1517.5028852273042,1517.5028852273042,1.0003167,0.00067219924
1517.5042741593822,1517.5042741593822,0.99985784,0.00067097554
1517.505663091926,1517.505663091926,1.0018198,0.0006710082
1517.507052024004,1517.507052024004,0.9990525,0.000669537
1517.508440956082,1517.508440956082,1.0009073,0.0006688839
1517.5098298886267,1517.5098298886267,1.0002347,0.0006677823
1517.5112188211704,1517.5112188211704,0.9992992,0.00066683354
1517.512607753248,1517.512607753248,1.00086,0.00066615135
1517.513996685791,1517.513996685791,1.0012577,0.00066559506
1517.5153856178697,1517.5153856178697,0.9998023,0.0006642348
1517.5167745504143,1517.5167745504143,1.0003482,0.00066374865
1517.5181634824917,1517.5181634824917,1.0002964,0.00066336355
1517.5195524150356,1517.5195524150356,0.9997854,0.00066219247
1517.5209413475793,1517.5209413475793,0.9999894,0.0006613915
1517.5223302796574,1517.5223302796574,1.0002421,0.00066024956
1517.523719212201,1517.523719212201,0.9987688,0.00065951375
1517.5251081447448,1517.5251081447448,0.9999604,0.000658836
1517.5264970772885,1517.5264970772885,0.99881476,0.00065823697
1517.5278860093667,1517.5278860093667,1.0017405,0.0006578304
1517.5292749419111,1517.5292749419111,0.9992653,0.0006568285
1517.5306638744548,1517.5306638744548,0.9999694,0.00065598014
1517.532052806998,1517.532052806998,1.0012836,0.00065529416
1517.533441739541,1517.533441739541,1.000312,0.00065494183
1517.5348306716198,1517.5348306716198,0.9980862,0.0006536468
1517.5362196041644,1517.5362196041644,0.9999199,0.0006533677
1517.5376085367075,1517.5376085367075,0.9998862,0.0006525914
1517.5389974692514,1517.5389974692514,0.99991405,0.00065177825
1517.540386401795,1517.540386401795,1.0006152,0.00065126136
1517.5417753343388,1517.5417753343388,1.0001016,0.00065088004
1517.5431642668825,1517.5431642668825,1.0004281,0.0006499736
1517.5445531994262,1517.5445531994262,1.0001622,0.0006495255
1517.54594213197,1517.54594213197,1.000522,0.00064868573
1517.5473310645139,1517.5473310645139,1.0004506,0.00064829015
1517.5487199970582,1517.5487199970582,0.99956405,0.00064726593
1517.550108929602,1517.550108929602,0.9998626,0.00064689846
1517.5514978621452,1517.5514978621452,1.0008097,0.00064602244
1517.5528867951546,1517.5528867951546,0.9998871,0.00064586505
1517.5542757276992,1517.5542757276992,0.9991885,0.0006452396
1517.5556646602429,1517.5556646602429,1.0002347,0.0006443458
1517.5570535927861,1517.5570535927861,1.0005225,0.00064393034
1517.5584425253298,1517.5584425253298,0.99964416,0.0006436764
1517.5598314578735,1517.5598314578735,0.99886274,0.00064304774
1517.561220390883,1517.561220390883,1.0008113,0.0006423088
1517.5626093234275,1517.5626093234275,1.0000012,0.00064145477
1517.5639982559712,1517.5639982559712,0.9996124,0.00064084114
1517.5653871885143,1517.5653871885143,0.9995424,0.00064046244
1517.5667761215238,1517.5667761215238,1.0007331,0.000639717
1517.568165054068,1517.568165054068,1.0002637,0.0006397672
1517.569553986612,1517.569553986612,0.9994695,0.0006385597
1517.5709429196206,1517.5709429196206,0.99883896,0.0006380983
1517.5723318521643,1517.5723318521643,0.9997418,0.0006377722
1517.5737207851746,1517.5737207851746,0.9999694,0.00063736015
1517.5751097177183,1517.5751097177183,1.0001379,0.0006370643
1517.5764986502616,1517.5764986502616,1.0000378,0.00063618476
1517.577887583271,1517.577887583271,0.99884444,0.00063561555
1517.5792765158146,1517.5792765158146,0.99899024,0.00063500507
1517.580665448824,1517.580665448824,0.99918324,0.0006345683
1517.5820543813686,1517.5820543813686,0.99938196,0.0006340292
1517.583443314378,1517.583443314378,0.99906373,0.00063350494
1517.584832246921,1517.584832246921,0.99858046,0.0006324662
1517.586221179931,1517.586221179931,0.99972034,0.00063301343
1517.5876101124757,1517.5876101124757,0.99930173,0.0006322732
1517.5889990454843,1517.5889990454843,0.9993068,0.0006318578
1517.590387978493,1517.590387978493,1.0007969,0.00063161034
1517.5917769110367,1517.5917769110367,0.99935067,0.0006307037
1517.593165844047,1517.593165844047,1.0004369,0.0006308069
1517.5945547765907,1517.5945547765907,1.0010127,0.0006301464
1517.5959437096,1517.5959437096,0.99957746,0.000629548
1517.5973326426094,1517.5973326426094,0.99998176,0.0006293566
1517.5987215751527,1517.5987215751527,0.9995315,0.0006290469
1517.600110508162,1517.600110508162,1.000431,0.0006283337
1517.6014994411723,1517.6014994411723,1.0000165,0.0006275615
1517.6028883741817,1517.6028883741817,0.99960786,0.00062757026
1517.604277306725,1517.604277306725,0.9998187,0.00062716426
1517.6056662397348,1517.6056662397348,1.0000854,0.0006267593
1517.607055172745,1517.607055172745,0.9990917,0.0006262246
1517.608444105754,1517.608444105754,1.0012296,0.0006260982
1517.6098330387624,1517.6098330387624,1.0002046,0.00062526896
1517.6112219713061,1517.6112219713061,1.0000435,0.0006253727
1517.6126109043164,1517.6126109043164,0.9996999,0.0006250005
1517.6139998373258,1517.6139998373258,0.99875504,0.0006242369
1517.6153887703351,1517.6153887703351,1.0005226,0.0006239876
1517.6167777033447,1517.6167777033447,1.0006528,0.00062393426
1517.6181666363534,1517.6181666363534,0.9990825,0.000623142
1517.6195555693637,1517.6195555693637,1.0001996,0.0006229219
1517.6209445023737,1517.6209445023737,1.0008582,0.00062299665
1517.6223334353824,1517.6223334353824,1.0000279,0.00062271376
1517.6237223683913,1517.6237223683913,1.0004282,0.00062230753
1517.6251113014011,1517.6251113014011,0.9995365,0.00062158844
1517.6265002344114,1517.6265002344114,0.99998873,0.0006212949
1517.6278891674203,1517.6278891674203,0.99971116,0.0006209272
1517.6292781004297,1517.6292781004297,1.0004616,0.0006209005
1517.630667033439,1517.630667033439,0.9990127,0.00062019425
1517.6320559664484,1517.6320559664484,0.99987024,0.00061973196
1517.6334448994578,1517.6334448994578,1.0000328,0.0006192607
1517.6348338324672,1517.6348338324672,0.99988216,0.00061938434
1517.6362227654768,1517.6362227654768,1.0007161,0.00061916414
1517.6376116984854,1517.6376116984854,0.99983335,0.00061831047
1517.6390006314957,1517.6390006314957,1.0011877,0.00061905186
1517.6403895645058,1517.6403895645058,1.0002683,0.00061801175
1517.6417784975145,1517.6417784975145,1.0009592,0.00061801553
1517.643167430989,1517.643167430989,1.000372,0.00061787304
1517.644556363999,1517.644556363999,0.9999711,0.00061731914
1517.6459452970091,1517.6459452970091,0.99960345,0.00061689725
1517.647334230018,1517.647334230018,0.9993761,0.0006168417
1517.6487231630274,1517.6487231630274,1.0000119,0.00061617204
1517.6501120965024,1517.6501120965024,1.0003629,0.0006160944
1517.6515010295118,1517.6515010295118,0.99992466,0.0006157817
1517.652889962522,1517.652889962522,1.0003349,0.00061572535
1517.6542788955314,1517.6542788955314,1.0008259,0.0006153468
1517.655667829006,1517.655667829006,0.99993646,0.0006152267
1517.6570567620145,1517.6570567620145,0.99985653,0.0006146849
1517.6584456950247,1517.6584456950247,1.0005442,0.00061501557
1517.659834628035,1517.659834628035,0.9991443,0.000613883
1517.6612235615091,1517.6612235615091,0.99914855,0.0006136902
1517.6626124945185,1517.6626124945185,1.0004467,0.0006137609
1517.6640014279944,1517.6640014279944,1.000479,0.00061344804
1517.6653903610038,1517.6653903610038,0.9995869,0.0006131004
1517.6667792940127,1517.6667792940127,0.9997947,0.00061268534
1517.6681682274877,1517.6681682274877,0.9995947,0.0006124184
1517.669557160497,1517.669557160497,1.0010816,0.0006122286
1517.6709460935065,1517.6709460935065,0.9988781,0.00061187707
1517.6723350269824,1517.6723350269824,0.99888295,0.0006114508
1517.6737239599918,1517.6737239599918,0.99983996,0.00061141513
1517.6751128934663,1517.6751128934663,1.0003325,0.00061106303
1517.6765018264748,1517.6765018264748,1.0000123,0.00061083375
1517.6778907599507,1517.6778907599507,1.0000985,0.0006104694
1517.679279692961,1517.679279692961,0.99949557,0.0006102836
1517.6806686264351,1517.6806686264351,1.0007226,0.0006104903
1517.6820575594447,1517.6820575594447,1.0004338,0.000610262
1517.6834464929204,1517.6834464929204,0.9997553,0.00060963247
1517.6848354259298,1517.6848354259298,0.9999303,0.00060927286
1517.6862243594044,1517.6862243594044,0.9996739,0.0006087788
1517.6876132924137,1517.6876132924137,0.99883175,0.0006085194
1517.6890022258888,1517.6890022258888,0.99984324,0.0006084016
1517.6903911593638,1517.6903911593638,0.99982244,0.00060831837
1517.691780092374,1517.691780092374,0.9993717,0.0006078058
1517.693169025849,1517.693169025849,0.9987085,0.00060733926
1517.694557958858,1517.694557958858,1.0010555,0.00060787244
1517.695946892333,1517.695946892333,0.9991949,0.0006072113
1517.697335825809,1517.697335825809,0.9996145,0.00060682406
1517.6987247588183,1517.6987247588183,1.0001584,0.00060675765
1517.7001136922925,1517.7001136922925,0.99991304,0.0006064439
1517.7015026257677,1517.7015026257677,1.0000416,0.00060634245
1517.7028915587778,1517.7028915587778,0.9996351,0.00060619967
1517.7042804922528,1517.7042804922528,0.99972737,0.0006056047
1517.705669425728,1517.705669425728,1.000708,0.00060547894
1517.7070583587376,1517.7070583587376,1.0002983,0.0006054988
1517.7084472922118,1517.7084472922118,0.9999781,0.00060510327
1517.7098362256868,1517.7098362256868,0.99924445,0.0006043906
1517.711225158697,1517.711225158697,1.0006602,0.0006044344
1517.712614092172,1517.712614092172,1.0002552,0.00060436735
1517.7140030256467,1517.7140030256467,1.0003506,0.0006039656
1517.7153919591217,1517.7153919591217,1.0002756,0.0006036803
1517.7167808925976,1517.7167808925976,1.0009316,0.00060364214
1517.718169825607,1517.718169825607,0.9999586,0.0006035255
1517.7195587590813,1517.7195587590813,0.99971193,0.0006031535
1517.7209476925566,1517.7209476925566,0.999624,0.0006025856
1517.722336626032,1517.722336626032,0.99929017,0.00060215464
1517.723725559507,1517.723725559507,1.0000254,0.0006021137
1517.7251144925167,1517.7251144925167,1.0000685,0.00060133805
1517.726503425992,1517.726503425992,1.0001229,0.0006018745
1517.727892359466,1517.727892359466,0.9990641,0.00060139573
1517.729281292942,1517.729281292942,0.9999496,0.00060097186
1517.730670226418,1517.730670226418,1.0005614,0.00060065463
1517.732059159892,1517.732059159892,0.9998946,0.0006008851
1517.7334480933666,1517.7334480933666,0.9990483,0.00059980195
1517.7348370268417,1517.7348370268417,0.9998078,0.0006003264
1517.736225959852,1517.736225959852,0.99983144,0.0005998691
1517.737614893327,1517.737614893327,0.9998896,0.0005993878
1517.739003826802,1517.739003826802,0.99985653,0.0005993268
1517.740392760277,1517.740392760277,1.0005267,0.0005989857
1517.741781693752,1517.741781693752,0.99946785,0.00059872534
1517.7431706272273,1517.7431706272273,0.9994966,0.0005986456
1517.7445595607026,1517.7445595607026,1.0001932,0.0005985771
1517.7459484941776,1517.7459484941776,0.99996805,0.0005978972
1517.7473374276517,1517.7473374276517,0.999961,0.0005980257
1517.7487263611276,1517.7487263611276,0.99965996,0.0005975556
1517.7501152946036,1517.7501152946036,0.9999699,0.000597236
1517.7515042280777,1517.7515042280777,1.0008241,0.00059744506
1517.7528931615523,1517.7528931615523,0.99993986,0.000596841
1517.7542820950273,1517.7542820950273,1.0003165,0.0005966853
1517.7556710285032,1517.7556710285032,0.999879,0.00059665827
1517.7570599619783,1517.7570599619783,1.0003422,0.00059637654
1517.7584488954533,1517.7584488954533,1.0004666,0.00059618434
1517.7598378289283,1517.7598378289283,0.9996967,0.00059557287
1517.7612267624033,1517.7612267624033,0.9989957,0.00059538544
1517.7626156958786,1517.7626156958786,0.99934924,0.00059508125
1517.7640046298195,1517.7640046298195,0.99936825,0.00059471035
1517.7653935632945,1517.7653935632945,1.0001553,0.0005952523
1517.7667824967689,1517.7667824967689,1.0005636,0.000594291
1517.7681714302446,1517.7681714302446,1.0000206,0.0005942798
1517.7695603637205,1517.7695603637205,1.000198,0.00059439667
1517.7709492971949,1517.7709492971949,1.0000085,0.00059361366
1517.7723382306701,1517.7723382306701,0.9991309,0.00059348566
1517.7737271641452,1517.7737271641452,1.0005462,0.0005933372
1517.7751160976202,1517.7751160976202,0.9993023,0.00059288956
1517.7765050315609,1517.7765050315609,1.000472,0.0005931785
1517.777893965036,1517.777893965036,0.9996383,0.00059222034
1517.779282898511,1517.779282898511,0.99971133,0.0005925207
1517.7806718319862,1517.7806718319862,1.0005677,0.00059253187
1517.782060765462,1517.782060765462,0.9993468,0.000591626
1517.7834496994026,1517.7834496994026,0.9989545,0.00059144775
1517.7848386328772,1517.7848386328772,0.9998992,0.0005915506
1517.7862275663515,1517.7862275663515,0.9996031,0.00059152057
1517.7876164998272,1517.7876164998272,0.9997521,0.0005908938
1517.7890054333031,1517.7890054333031,1.0002495,0.00059114676
1517.7903943672432,1517.7903943672432,1.0003124,0.00059067475
1517.7917833007184,1517.7917833007184,0.9999066,0.00059051055
1517.7931722341934,1517.7931722341934,1.0003392,0.0005901221
1517.7945611676685,1517.7945611676685,0.9997635,0.00059005874
1517.7959501016092,1517.7959501016092,1.000651,0.0005898899
1517.7973390350842,1517.7973390350842,1.0005245,0.0005897638
1517.7987279685592,1517.7987279685592,0.9999545,0.0005894049
1517.8001169020345,1517.8001169020345,1.0000628,0.0005892151
1517.8015058359758,1517.8015058359758,0.99987954,0.0005891622
1517.8028947694509,1517.8028947694509,0.9994912,0.0005891288
1517.8042837029254,1517.8042837029254,1.0007427,0.0005890079
1517.8056726368657,1517.8056726368657,1.0004822,0.00058864226
1517.8070615703411,1517.8070615703411,0.99938464,0.00058825687
1517.808450503817,1517.808450503817,1.000349,0.0005883822
1517.8098394377573,1517.8098394377573,0.99951553,0.0005878217
1517.8112283712323,1517.8112283712323,1.0003873,0.0005880126
1517.8126173047074,1517.8126173047074,0.9989723,0.00058766146
1517.814006238648,1517.814006238648,0.9991048,0.0005872713
