time,time,flux,flux_err
1325.2997684597801,1325.2997684597801,0.9998780211616737,0.0001779137427399819
1325.3081018076903,1325.3081018076903,1.0001056911131838,0.00017800158490196451
1325.3164351558241,1325.3164351558241,0.999705351983959,0.00017799627960095964
1325.324074058457,1325.324074058457,1.000353172552386,0.00016255039993468608
1325.3310185155874,1325.3310185155874,1.0001408686561362,0.00016255477631039767
1325.3379629728581,1325.3379629728581,1.0000948659154942,0.00016257058595359677
1325.3449074302448,1325.3449074302448,0.9998267502778816,0.00016257012161672793
1325.3518518877947,1325.3518518877947,1.0002504540050177,0.0001626360499012188
1325.3587963454843,1325.3587963454843,1.0000303429543351,0.00016264279545685854
1325.3657408033137,1325.3657408033137,0.9998081200556458,0.00016265774259264067
1325.3726852612938,1325.3726852612938,0.9998376280397817,0.0001626782097280543
1325.3796297194142,1325.3796297194142,0.9998972063530355,0.00016271738374434505
1325.3865741776626,1325.3865741776626,1.0002152615257311,0.00016277278255548135
1325.393518636062,1325.393518636062,1.0001087927427763,0.00016279206523127905
1325.400463094578,1325.400463094578,0.9999115266422234,0.0001628033790989209
1325.4074075532576,1325.4074075532576,1.0001268552959826,0.00016282829724646833
1325.4143520120529,1325.4143520120529,0.9999395758546463,0.00016284739502579114
1325.4212964709764,1325.4212964709764,0.9999041522925609,0.00016287255218532039
1325.428240930016,1325.428240930016,0.9999188390352154,0.00016289740792647147
1325.435185389219,1325.435185389219,0.9998074178299985,0.0001628964979974639
1325.4421298485152,1325.4421298485152,0.9998959885572777,0.000162922780790486
1325.449074307974,1325.449074307974,1.0001367590636996,0.0001629646393243073
1325.456018767538,1325.456018767538,1.0000597895385333,0.00016298579832017352
1325.4629632272179,1325.4629632272179,0.9999476358884414,0.00016298748807817512
1325.469907687038,1325.469907687038,1.0000578669095905,0.00016302545365705354
1325.4768521469628,1325.4768521469628,0.9997903227952971,0.00016302465894405758
1325.4837966070386,1325.4837966070386,1.0000019192728984,0.000163072485102416
1325.4907410671963,1325.4907410671963,1.0001803300784649,0.00016312049654893795
1325.4976855274936,1325.4976855274936,1.000232490533778,0.00016315296294629463
1325.5046299879068,1325.5046299879068,0.9999511459466905,0.00016316299145848466
1325.5115744484374,1325.5115744484374,0.9999328266168517,0.0001632015287380591
1325.5185189090603,1325.5185189090603,0.9998898360538162,0.00016323695393423795
1325.5254633698114,1325.5254633698114,1.0001673582711432,0.00016327219616220102
1325.5324078306671,1325.5324078306671,0.9998686452610986,0.00016328756573685206
1325.5393522916397,1325.5393522916397,0.9998300824186215,0.00016332037984336165
1325.5462967527287,1325.5462967527287,0.9999654900276115,0.00016335379540082868
1325.5532412139105,1325.5532412139105,1.000038121386071,0.00016339534520376655
1325.5601856752094,1325.5601856752094,0.9999094621140715,0.00016340128332296673
1325.5671301366008,1325.5671301366008,1.0000957703765416,0.00016345947965862943
1325.5740745981202,1325.5740745981202,1.0002503095809,0.00016349424231664145
1325.5810190597215,1325.5810190597215,0.9998448529902818,0.0001634728828975994
1325.5879635214271,1325.5879635214271,0.9999883673940275,0.00016351211438411694
1325.5949079832494,1325.5949079832494,1.0002123140548806,0.00016354389351818207
1325.601852445153,1325.601852445153,0.9997580198123817,0.0001635226321631868
1325.6087969071614,1325.6087969071614,1.0001651537210035,0.00016356287524686065
1325.615741369275,1325.615741369275,0.9998739928284396,0.00016355703770553983
1325.6226858314815,1325.6226858314815,0.9998072832476197,0.00016355425520152408
1325.6296302937808,1325.6296302937808,1.0001791012304255,0.0001635784594383818
1325.6365747561736,1325.6365747561736,1.0000633596938007,0.00016357894583124926
1325.6435192186593,1325.6435192186593,0.9998121045569384,0.00016355923702580322
1325.6504636812383,1325.6504636812383,0.9999054393456068,0.00016358063674007286
1325.6574081439219,1325.6574081439219,1.00008126183915,0.00016358073486877442
1325.6643526066757,1325.6643526066757,1.0002250326449635,0.0001635891322270447
1325.671297069522,1325.671297069522,0.9997712166097117,0.0001635516788100857
1325.6782415324622,1325.6782415324622,1.0001552261154023,0.0001635734505921214
1325.6851859954954,1325.6851859954954,1.0000499940189158,0.0001635843161893692
1325.692130458598,1325.692130458598,1.000021182015064,0.00016357085795052918
1325.6990749218057,1325.6990749218057,1.0000925741940925,0.0001636057309459105
1325.7060193850834,1325.7060193850834,1.000095636461659,0.0001636032379260505
1325.7129638484535,1325.7129638484535,0.9998438431876675,0.00016359337957039849
1325.7199083119056,1325.7199083119056,0.9997163411159777,0.00016358507885389322
1325.726852775416,1325.726852775416,1.0000815616186578,0.00016363116098613452
1325.733797239031,1325.733797239031,0.9999610783457727,0.00016362179769026475
1325.7407417027043,1325.7407417027043,0.9999948987894817,0.00016364766146769987
1325.747686166482,1325.747686166482,1.0001835910404948,0.00016365246302539203
1325.7546306303186,1325.7546306303186,0.9999469311316673,0.0001636611015859235
1325.7615750942364,1325.7615750942364,1.0000408636590445,0.00016367991728037128
1325.7685195582471,1325.7685195582471,1.0002880528280766,0.00016370834492214817
1325.7754640223047,1325.7754640223047,0.9996196293787152,0.0001636848418429553
1325.7824084864435,1325.7824084864435,1.0000461049355336,0.0001637198247684761
1325.7893529506755,1325.7893529506755,0.9997488316500558,0.00016369994749284862
1325.796297414954,1325.796297414954,1.0000339460546455,0.00016373593116316096
1325.8032418793143,1325.8032418793143,1.0000645442821474,0.00016374973387496772
1325.8101863437562,1325.8101863437562,1.0002157979602144,0.00016377972715994567
1325.8171308082553,1325.8171308082553,1.0000412670825436,0.00016376636484710292
1325.8240752728254,1325.8240752728254,0.9999589089656447,0.0001637517016226864
1325.8310197374533,1325.8310197374533,1.0003415060377674,0.00016380741640897287
1325.8379642021628,1325.8379642021628,0.9999727723942782,0.00016379603034799315
1325.8449086669302,1325.8449086669302,0.9997091989321005,0.0001637580175173915
1325.8518531317673,1325.8518531317673,1.0000283363045999,0.00016377108816898806
1325.8587975966632,1325.8587975966632,0.9998941891574953,0.00016377803437768316
1325.8657420616519,1325.8657420616519,0.9997312796563742,0.0001637595384064783
1325.8726865266642,1325.8726865266642,1.0000243912293527,0.00016374284221108004
1325.8796309917693,1325.8796309917693,1.000089313016574,0.00016373683683256233
1325.886575456921,1325.886575456921,0.9998935579138241,0.00016370585830666025
1325.893519922131,1325.893519922131,1.0002846025984713,0.00016371862865200215
1325.900464387399,1325.900464387399,1.00010844721314,0.0001636951982458861
1325.9074088527368,1325.9074088527368,1.0001479377712754,0.0001636853550933726
1325.914353318133,1325.914353318133,1.0000493403282802,0.00016365110863536563
1325.9212977835757,1325.9212977835757,0.9997569516590167,0.00016364263552167178
1325.9282422491003,1325.9282422491003,1.0000426443896517,0.00016365797727371383
1325.9351867146477,1325.9351867146477,1.0000779912902868,0.00016365956384753558
1325.9421311802769,1325.9421311802769,1.0000279457495467,0.00016363665539265122
1325.9490756459527,1325.9490756459527,0.9995689691832765,0.00016361418418887685
1325.9560201116979,1325.9560201116979,0.9998980444244673,0.00016362887292549033
1325.9637979133852,1325.9637979133852,1.0000593712227925,0.0001636546633446675
1325.9712979364754,1325.9712979364754,1.0002654053606281,0.00016364642732638585
1325.9782424023956,1325.9782424023956,0.9999279775841098,0.00016362654828830413
1325.9851868683386,1325.9851868683386,0.9998414875246174,0.00016361201331831142
1325.9921313343516,1325.9921313343516,1.0003539943495166,0.00016364621928529173
1325.9990758004235,1325.9990758004235,1.0000883326641905,0.00016365327519358427
1326.0060202665063,1326.0060202665063,0.9999515373507117,0.00016364096247002384
1326.012964732671,1326.012964732671,0.9999833946726879,0.00016366731849152893
1326.0199091988586,1326.0199091988586,0.9998995817381656,0.0001636510008483531
1326.026853665128,1326.026853665128,0.9998926887045043,0.00016367711420664627
1326.0337981314208,1326.0337981314208,0.9998685768932543,0.0001636919259629534
1326.0407425977946,1326.0407425977946,1.000103739360445,0.00016368649640102802
1326.0476870641692,1326.0476870641692,1.000139538844675,0.00016368836307811835
1326.0546315306012,1326.0546315306012,0.9999177711234457,0.00016367947177846237
1326.06157599708,1326.06157599708,0.9999891841911486,0.00016370035460942184
1326.0685204636172,1326.0685204636172,1.0000338365030768,0.0001636947772928374
1326.0754649302003,1326.0754649302003,0.9998518734523651,0.00016367057549519372
1326.0824093967963,1326.0824093967963,1.0000665120689503,0.00016368797716790769
1326.0893538634614,1326.0893538634614,0.9999664775509867,0.0001636850116396467
1326.096298330173,1326.096298330173,0.9999666090630717,0.00016368726298306044
1326.1032427969083,1326.1032427969083,1.0000706834443138,0.00016368587089105773
1326.1101872637012,1326.1101872637012,1.0001157721884533,0.0001637042812698574
1326.1171317305293,1326.1171317305293,1.0001498296252769,0.00016370409882462668
1326.124076197392,1326.124076197392,1.0000033372446886,0.00016369823195122542
1326.1310206643022,1326.1310206643022,1.0000748541092421,0.00016367969105006346
1326.1379651312345,1326.1379651312345,0.9996335069815053,0.0001636539619417393
1326.1449095982377,1326.1449095982377,1.0000307201800531,0.00016367416891378389
1326.1518540652637,1326.1518540652637,0.9999316241510854,0.00016367010341252232
1326.1587985323126,1326.1587985323126,0.9996439648647761,0.00016365974093766135
1326.1657429994207,1326.1657429994207,1.0004477699626029,0.0001636951388375684
1326.172687466551,1326.172687466551,0.9999320760040419,0.0001636681700263835
1326.1796319337286,1326.1796319337286,1.0001156905490343,0.00016368054405927076
1326.186576400941,1326.186576400941,1.0001099801704734,0.00016366436863189156
1326.193520868176,1326.193520868176,1.0000467882059811,0.00016364850739144466
1326.2004653354586,1326.2004653354586,1.000227980152312,0.00016366425114487383
1326.2074098027756,1326.2074098027756,0.9999035999844592,0.00016364633936443324
1326.214354270128,1326.214354270128,0.9998408509617752,0.00016364549696273374
1326.2212987375028,1326.2212987375028,0.9996231150494014,0.0001636149074912959
1326.2282432049246,1326.2282432049246,1.0000247224429437,0.00016364893395457016
1326.2351876723699,1326.2351876723699,1.0000462994740429,0.0001636495894883758
1326.2421321398494,1326.2421321398494,0.9999843239042345,0.00016363578328903848
1326.2490766073536,1326.2490766073536,1.0000915366545076,0.00016362781034233762
1326.2560210748914,1326.2560210748914,1.0001669446145436,0.00016364374124462605
1326.262965542488,1326.262965542488,0.9999641101280519,0.00016363466317714185
1326.269910010096,1326.269910010096,1.0001382471477769,0.00016362896227737944
1326.2768544777273,1326.2768544777273,0.9998956412127609,0.00016361631042039628
1326.2837989453824,1326.2837989453824,0.9998483569845658,0.00016360435805398563
1326.290743413095,1326.290743413095,0.9999690650086765,0.00016361200210715242
1326.2976878808197,1326.2976878808197,1.0000791630328858,0.00016361024542723993
1326.304632348567,1326.304632348567,1.0000210267166858,0.00016361108551436556
1326.3115768163618,1326.3115768163618,1.0003134327792753,0.00016365028962994226
1326.3185212841443,1326.3185212841443,0.9999501707461927,0.00016362862405416005
1326.3254657520083,1326.3254657520083,0.999728619912491,0.00016361313052665232
1326.3324102198617,1326.3324102198617,0.9997860086765014,0.0001636114885447778
1326.3393546877603,1326.3393546877603,1.0003538498410065,0.0001636608794686536
1326.3468547130974,1326.3468547130974,0.9999206718701312,0.00016362090891451595
1326.3560214108068,1326.3560214108068,0.9999520498523158,0.00016364500533790945
1326.3629658787756,1326.3629658787756,1.0000230681136746,0.00016365901505660912
1326.3699103467911,1326.3699103467911,0.9999187860348396,0.0001636490617844994
1326.3768548148184,1326.3768548148184,0.9998669653959196,0.00016365059734231414
1326.3837992828805,1326.3837992828805,1.000160878840976,0.00016366620673061578
1326.3907437509545,1326.3907437509545,0.9999331098416742,0.00016365381843486379
1326.3976882190748,1326.3976882190748,0.9999744288788316,0.00016365929782259433
1326.404632687195,1326.404632687195,1.0000792996544086,0.00016366859574074597
1326.4115771553274,1326.4115771553274,1.0001065006591052,0.00016366515762523877
1326.4185216235057,1326.4185216235057,1.0001444663742374,0.00016367889589389406
1326.4254660917074,1326.4254660917074,0.9996675116492273,0.0001636467741038271
1326.4324105599324,1326.4324105599324,1.000016129342992,0.00016367872918036187
1326.4393550281575,1326.4393550281575,1.0002774282245415,0.00016368905431875214
1326.4462994964294,1326.4462994964294,0.9997491234108242,0.0001636641408868484
1326.4532439647126,1326.4532439647126,1.0000910484266279,0.00016370205507254028
1326.4601884330075,1326.4601884330075,0.9998689172235011,0.00016367960951741884
1326.4671329013374,1326.4671329013374,1.000149366732257,0.00016370656730905646
1326.474077369679,1326.474077369679,0.9999672300008997,0.00016369957110355947
1326.481021838044,1326.481021838044,1.0000382896963553,0.00016371368688666087
1326.4879663064435,1326.4879663064435,1.0000793452329517,0.00016370816832112943
1326.494910774855,1326.494910774855,1.0000986359824755,0.00016371643758008808
1326.5018552432662,1326.5018552432662,0.9996643603031223,0.00016369752927919824
1326.5087997117012,1326.5087997117012,0.9999896394524448,0.00016371219833226968
1326.515744180159,1326.515744180159,1.0000249261409655,0.00016371557717887432
1326.5226886486403,1326.5226886486403,1.000163121994329,0.00016372084092270924
1326.5296331171446,1326.5296331171446,0.9999494422445994,0.0001637340739367405
1326.5365775856606,1326.5365775856606,0.9999048247119328,0.00016372227579798307
1326.5435220541888,1326.5435220541888,1.0000869612166992,0.0001637605885804099
1326.5504665227395,1326.5504665227395,1.000059400384782,0.00016375719286648125
1326.557410991302,1326.557410991302,0.9998977324915594,0.0001637484620411076
1326.5643554598882,1326.5643554598882,1.0002009874044508,0.0001637711963737079
1326.5712999284858,1326.5712999284858,0.9997803483420888,0.00016374074260063225
1326.578244397107,1326.578244397107,1.0002422564667663,0.00016376246458504613
1326.5851888657392,1326.5851888657392,0.9998340709638789,0.00016374476435647192
1326.5921333343954,1326.5921333343954,0.999930482529264,0.00016376863576078785
1326.5990778030628,1326.5990778030628,1.0000253793552605,0.00016378398256200138
1326.6060222717188,1326.6060222717188,0.9999778721006465,0.00016376825121799187
1326.6129667404095,1326.6129667404095,1.0001743494636899,0.00016380396420784949
1326.619911209123,1326.619911209123,1.0002169732155701,0.000163803993209708
1326.6268556778728,1326.6268556778728,0.999707887802915,0.00016375890802629333
1326.6338001465979,1326.6338001465979,0.9998182772003986,0.00016377434792144957
1326.6407446153473,1326.6407446153473,0.9999852874022055,0.00016379251635462709
1326.6476890841193,1326.6476890841193,1.000159513976437,0.00016380345126316411
1326.6546335528915,1326.6546335528915,0.9998197961251758,0.0001637635357842992
1326.6615780216757,1326.6615780216757,1.0001284675730138,0.00016377486307267276
1326.6685224904943,1326.6685224904943,1.0000966480499398,0.00016376926709902744
1326.6754669593017,1326.6754669593017,0.9998753754258807,0.0001637387207944001
1326.6824114281437,1326.6824114281437,0.9999482758142284,0.00016373630911979036
1326.6904670119898,1326.6904670119898,1.0002023248640226,0.00016373961525604925
1326.6976892596147,1326.6976892596147,0.9995960092990377,0.0001636917201846962
1326.7046337284803,1326.7046337284803,1.000339202586554,0.00016373747840993133
1326.7121337548767,1326.7121337548767,1.000242351807477,0.00016372123836192804
1326.719911560033,1326.719911560033,1.0001778232581646,0.00016370179869923396
1326.7268560289335,1326.7268560289335,0.9996755028119804,0.00016366260279860752
1326.7338004978453,1326.7338004978453,0.9998413685644195,0.00016367403545970802
1326.740744966781,1326.740744966781,0.9999413547361152,0.00016365312921867597
1326.7476894357158,1326.7476894357158,0.9999324608594641,0.00016366535197784288
1326.7546339046742,1326.7546339046742,1.000050851998775,0.00016367765844545152
1326.7615783736214,1326.7615783736214,0.9999241510139285,0.00016365154663878378
1326.768522842603,1326.768522842603,1.0001322382536284,0.00016367212482749146
1326.7754673115965,1326.7754673115965,1.0004017905476492,0.00016367454411078084
1326.7824117805899,1326.7824117805899,1.0000147579447842,0.00016364890736515864
1326.7893562495835,1326.7893562495835,1.0000416026710528,0.00016365842422071217
1326.7963007185767,1326.7963007185767,0.999873511498657,0.00016365866445066553
1326.8032451875704,1326.8032451875704,0.9999391802375097,0.00016366313840262533
1326.8101896566218,1326.8101896566218,1.0000432820202012,0.00016366487634066114
1326.8171341256384,1326.8171341256384,0.9999657750568449,0.0001636744781988832
1326.8240785946787,1326.8240785946787,1.0001906679342472,0.0001636589052654852
1326.8310230637303,1326.8310230637303,1.0000808664866159,0.00016367196302466292
1326.8379675327938,1326.8379675327938,0.999902870923077,0.00016365191926848965
1326.844912001857,1326.844912001857,0.9997157143132742,0.00016363563932990068
1326.851856470932,1326.851856470932,1.0000309257085955,0.0001636585863424763
1326.8588009400185,1326.8588009400185,1.0000112307362454,0.0001636504055171733
1326.8657454091172,1326.8657454091172,1.0001410330176037,0.00016363972779608304
1326.8726898782036,1326.8726898782036,1.0000836432151976,0.00016365078043525035
1326.8796343473016,1326.8796343473016,0.9999042671299527,0.00016361772140987069
1326.8865788164117,1326.8865788164117,0.9999179906239213,0.00016359581011372097
1326.8935232855329,1326.8935232855329,1.0000831152365601,0.00016360394192759697
1326.9004677546545,1326.9004677546545,1.0002333793623857,0.00016359357037634724
1326.9074122237992,1326.9074122237992,0.9998141104523992,0.00016355793616679775
1326.9143566929324,1326.9143566929324,0.9999954229203134,0.00016353169549545248
1326.9213011620773,1326.9213011620773,0.9997994156835887,0.00016349370114118292
1326.9282456312103,1326.9282456312103,0.9999136399856091,0.00016350119088817875
1326.935190100367,1326.935190100367,1.0000156753695002,0.0001634853496607115
1326.9421345695232,1326.9421345695232,1.0001333285561531,0.00016346962700163352
1326.9490790386913,1326.9490790386913,0.9999944837214073,0.00016344637390377408
1326.9560235078593,1326.9560235078593,1.000093674330331,0.00016345159397536423
1326.9629679770394,1326.9629679770394,1.0002570297319444,0.0001634410249148098
1326.969912446219,1326.969912446219,0.9998422844385096,0.0001633971882009071
1326.9768569153982,1326.9768569153982,0.9997756686818906,0.0001633918340725396
1326.983801384602,1326.983801384602,1.0000190829175413,0.00016338940349296552
1326.990745853793,1326.990745853793,0.9998757834421461,0.00016337326723497563
1326.9976903229847,1326.9976903229847,1.0001472559751385,0.00016337682091956265
1327.0046347921875,1327.0046347921875,0.9997489463073055,0.00016337039544414366
1327.011579261402,1327.011579261402,0.999885442038399,0.00016335176591426756
1327.018523730605,1327.018523730605,0.9998085797774898,0.00016335906431136184
1327.0254681998194,1327.0254681998194,1.000220042282469,0.00016339008786881782
1327.0324126690462,1327.0324126690462,1.0001373174683745,0.00016338870544646995
1327.0393571382604,1327.0393571382604,0.9999833002338072,0.00016338117230013663
1327.046301607487,1327.046301607487,1.0001005054234748,0.00016336228188613343
1327.053246076713,1327.053246076713,1.0001353579269654,0.00016336682566505382
