time,time,flux,flux_err
1385.9572695506577,1385.9572695506577,0.9996414714635126,0.0002547126470747724
1385.9656030017015,1385.9656030017015,1.0002378208406153,0.00025479179386649704
1385.9732419983507,1385.9732419983507,1.00002625176358,0.00023257642297235494
1385.9801865406512,1385.9801865406512,1.0002366628848645,0.00023259579773710288
1385.9871310828596,1385.9871310828596,1.0002295613490957,0.00023260687495728618
1385.9940756249744,1385.9940756249744,1.0001697730099457,0.0002325896482913477
1386.0010201669952,1386.0010201669952,0.9996331123160036,0.00023254613280546027
1386.0079647090174,1386.0079647090174,1.0000623782346056,0.00023259705328281568
1386.0149092507595,1386.0149092507595,0.9997416759391557,0.00023258498170656308
1386.0218537925944,1386.0218537925944,0.9997889032633962,0.00023257047988600342
1386.0287983340577,1386.0287983340577,0.9999853888772657,0.00023259020711759943
1386.0357428757072,1386.0357428757072,1.000069341143377,0.00023260282659235093
1386.0426874171694,1386.0426874171694,0.9997346130291799,0.00023255980357024704
1386.0496319585393,1386.0496319585393,1.0003214513853287,0.00023260775567483322
1386.0565764997232,1386.0565764997232,1.0002445822100035,0.00023260181149754232
1386.0635210409062,1386.0635210409062,0.9999401562214448,0.0002325890084128903
1386.0704655819031,1386.0704655819031,1.0001199875092701,0.00023256783034321564
1386.0774101229006,1386.0774101229006,1.0001096395722429,0.00023259741808007465
1386.0843546638046,1386.0843546638046,0.999819845376616,0.00023256900727792432
1386.0912992045219,1386.0912992045219,1.0000323777728246,0.00023258586215511753
1386.0982437453333,1386.0982437453333,1.0000059903319847,0.00023261354228197654
1386.1051882858646,1386.1051882858646,0.9997771518941929,0.00023257031633385205
1386.1121328263957,1386.1121328263957,1.0002367353505859,0.0002326456084647943
1386.1190773665553,1386.1190773665553,0.9998492255776135,0.00023261656676011396
1386.1260219069936,1386.1260219069936,1.0000263746212852,0.00023262020554413982
1386.1329664470588,1386.1329664470588,0.9999289533285974,0.00023259364132740198
1386.1399109872182,1386.1399109872182,0.9997783329565341,0.00023259379772993337
1386.1468555272845,1386.1468555272845,1.0002082508697616,0.00023264708437492875
1386.1538000670703,1386.1538000670703,1.0000761858361698,0.00023263867526607043
1386.160744607043,1386.160744607043,1.00011572308011,0.00023263963475418092
1386.1676891466436,1386.1676891466436,1.0001165163907326,0.00023262883262696764
1386.1746336863366,1386.1746336863366,0.999736907024268,0.0002325857782862668
1386.1815782257504,1386.1815782257504,1.0000153122699866,0.00023260256051705147
1386.1885227652579,1386.1885227652579,0.9998590449166566,0.0002326008136275827
1386.1954673044852,1386.1954673044852,0.9998511689863516,0.0002325919017488907
1386.202411843899,1386.202411843899,1.0000128268903712,0.00023261122394071273
1386.2093563829408,1386.2093563829408,0.9998056650739746,0.00023257870825735098
1386.2163009220756,1386.2163009220756,1.000592170627598,0.0002326645017661096
1386.2232454610228,1386.2232454610228,1.000324841155271,0.00023262435849887315
1386.2301899998786,1386.2301899998786,0.99978083340448,0.0002325770355592482
1386.2371345386407,1386.2371345386407,0.9995218042150935,0.00023255065712798531
1386.244079077309,1386.244079077309,0.9999947176145559,0.00023260416166876575
1386.251023615885,1386.251023615885,0.9998039153265253,0.00023257391166443575
1386.2579681542747,1386.2579681542747,1.000037911179472,0.00023261040316947956
1386.2649126928502,1386.2649126928502,1.0002029932048095,0.00023263201400673482
1386.2718572311464,1386.2718572311464,1.0001288881706434,0.00023262676678645908
1386.27880176935,1386.27880176935,1.0000658013052972,0.00023261405018539815
1386.2857463075532,1386.2857463075532,0.9995918123026255,0.0002325907277477088
1386.2926908452903,1386.2926908452903,0.999986929198738,0.00023259852302177372
1386.2996353833073,1386.2996353833073,0.9999601391625763,0.00023260938418725373
1386.3065799211386,1386.3065799211386,1.0001019104626365,0.0002325807356822558
1386.313524458875,1386.313524458875,0.9998888523339685,0.00023258302175623193
1386.32046899652,1386.32046899652,0.9999993941598391,0.00023260655448810149
1386.3274135341649,1386.3274135341649,0.9998336549432555,0.00023258189258195828
1386.3343580715289,1386.3343580715289,1.000094736681363,0.00023261957481351785
1386.3413026088942,1386.3413026088942,1.000453968608566,0.00023262822978714252
1386.3482471461666,1386.3482471461666,0.9997007479611912,0.0002325611399494193
1386.355191683345,1386.355191683345,0.9999696380164789,0.0002325984188933494
1386.3621362204308,1386.3621362204308,1.0001888327933144,0.00023262270762796966
1386.3696363203867,1386.3696363203867,1.0000666884249036,0.00023261899792321187
1386.377414201684,1386.377414201684,0.9996139826487148,0.00023257848980016751
1386.3843587383967,1386.3843587383967,0.9994435391525356,0.00023255953610171694
1386.391303275017,1386.391303275017,1.000276456574356,0.0002326489505126464
1386.3982478117305,1386.3982478117305,0.9998467916171645,0.00023259193028498103
1386.4051923481632,1386.4051923481632,1.00005323669283,0.00023263198814600468
1386.412136884597,1386.412136884597,0.9997741898231434,0.00023259110540946993
1386.4190814209383,1386.4190814209383,1.0004359971876,0.0002326644953148558
1386.426025957185,1386.426025957185,1.0000301210611133,0.00023262595923379662
1386.4329704932466,1386.4329704932466,0.9999034809103522,0.00023259475741205246
1386.439915029308,1386.439915029308,1.0000263708474664,0.00023262398854170747
1386.446859565462,1386.446859565462,0.9999463733054039,0.00023260003392052285
1386.4538041013368,1386.4538041013368,0.9998769450782004,0.000232610479020423
1386.4607486367463,1386.4607486367463,0.9997566985736805,0.0002326166511904915
1386.467693172621,1386.467693172621,1.0001765732162264,0.00023265245501016086
1386.4746377081233,1386.4746377081233,1.0004040745085547,0.00023269069241056012
1386.4815822436258,1386.4815822436258,0.9999517643357498,0.00023263628721100572
1386.4885267790353,1386.4885267790353,1.000066221599512,0.00023263778972216516
1386.4954713143504,1386.4954713143504,0.9995615778629912,0.0002326008450315959
1386.5024158494805,1386.5024158494805,0.9997164318365938,0.0002325887770919551
1386.509360384611,1386.509360384611,1.0001843969268451,0.00023265970747830405
1386.5163049196474,1386.5163049196474,1.0002543792809007,0.00023265711677160618
1386.5232494545905,1386.5232494545905,0.9996842545122192,0.00023258044803087236
1386.5301939894416,1386.5301939894416,0.9999465675776161,0.0002326050900114941
1386.537138524292,1386.537138524292,1.0003858397319045,0.00023265552423640446
1386.5440830588625,1386.5440830588625,0.9999542954000145,0.0002326140161318613
1386.5510275934341,1386.5510275934341,1.0003135190737171,0.00023262636047631724
1386.5579721279123,1386.5579721279123,0.9998350088026491,0.00023258684438962713
1386.5651944436381,1386.5651944436381,0.9998332942068389,0.00023260562615609782
1386.5732501033908,1386.5732501033908,1.0002408911012934,0.00023263363825465284
1386.5801946375898,1386.5801946375898,0.9998634954104808,0.00023263234845277283
1386.5871391716948,1386.5871391716948,0.999813354839058,0.00023261310520229276
1386.5940837056137,1386.5940837056137,0.9998632209664067,0.0002325939201430606
1386.601028239533,1386.601028239533,1.0002650629902168,0.0002326402354834512
1386.6079727734523,1386.6079727734523,0.9998350895019188,0.0002326008760275924
1386.6149173070912,1386.6149173070912,1.0000225175461266,0.00023261352195282336
1386.6218618406383,1386.6218618406383,1.0000614054428505,0.00023261891016461775
1386.6288063741854,1386.6288063741854,0.999881811679742,0.00023261803163693445
1386.635750907731,1386.635750907731,1.000057816433499,0.00023263595048701285
1386.6426954410922,1386.6426954410922,1.0001364814147324,0.0002326404090439031
1386.6496399743596,1386.6496399743596,0.999792932018402,0.00023260280576545294
1386.6565845075331,1386.6565845075331,1.0001842419076583,0.0002326359309065893
1386.6635290406143,1386.6635290406143,1.0004922583622804,0.00023268749827627314
1386.6704735736953,1386.6704735736953,0.9997147051553681,0.00023259794043680942
1386.6774181064968,1386.6774181064968,0.9998426798310103,0.00023261484642822652
1386.684362639298,1386.684362639298,1.0000760298943598,0.00023263289308854914
1386.6913071720996,1386.6913071720996,0.9998902465021174,0.00023261970502751493
1386.6982517047154,1386.6982517047154,0.9998247863475301,0.0002326302883297479
1386.7051962372366,1386.7051962372366,1.0000183490188452,0.00023264422522889782
1386.712140769666,1386.712140769666,0.9998278692423057,0.00023262240553010633
1386.7190853020024,1386.7190853020024,1.0000340744459053,0.00023264516864524482
1386.726029834338,1386.726029834338,0.9999875665273803,0.00023263195897029316
1386.7329743664873,1386.7329743664873,1.000431528957251,0.0002326544321996274
1386.7399188986371,1386.7399188986371,0.9999325131544452,0.0002326137716770011
1386.746863430694,1386.746863430694,1.0000036240848138,0.0002326130236855398
1386.7538079624705,1386.7538079624705,0.9997639563049919,0.00023258632284106178
1386.7607524942475,1386.7607524942475,1.0003887137176553,0.00023263994867389598
1386.767697026025,1386.767697026025,1.000075968157566,0.00023262864507455684
1386.7749193389577,1386.7749193389577,0.9998383497188224,0.00023259634121019167
1386.7829749956363,1386.7829749956363,0.9994773093559461,0.00023257681337394103
1386.7899195268549,1386.7899195268549,1.000256975251973,0.0002326453203391788
1386.7968640584456,1386.7968640584456,0.9995334633187033,0.00023255959503838916
1386.8038085897565,1386.8038085897565,1.00032358830464,0.00023265240918207597
1386.810753120882,1386.810753120882,1.000198403950137,0.00023262926927089517
1386.8176976517284,1386.8176976517284,1.000406616875345,0.00023264873467391777
1386.8246421829458,1386.8246421829458,1.0000774672690735,0.00023263736868605928
1386.8315867136992,1386.8315867136992,0.9999057474527577,0.0002326271749685393
1386.8385312445448,1386.8385312445448,0.9999682527706263,0.0002326226284837918
1386.8454757752972,1386.8454757752972,0.9999028211047161,0.00023262205469160775
1386.8524203058635,1386.8524203058635,0.9997637453990305,0.0002326126763806809
1386.8593648365234,1386.8593648365234,0.9998563693944128,0.00023264420469140814
1386.8663093669968,1386.8663093669968,1.0000065912553486,0.0002326326988901371
1386.8732538972831,1386.8732538972831,0.99983435789226,0.0002326255856207135
1386.8801984275701,1386.8801984275701,1.0002442045059783,0.0002326618018101653
1386.8871429577646,1386.8871429577646,0.9999329131419865,0.00023264799561743964
1386.8940874877715,1386.8940874877715,1.0000226983562155,0.00023262064927579923
1386.9010320178722,1386.9010320178722,1.0000227241588229,0.00023262056894982346
1386.9079765477873,1386.9079765477873,0.9998725924640318,0.00023260585843902157
1386.9149210776086,1386.9149210776086,1.0002807675334036,0.00023264862525838203
1386.9218656074293,1386.9218656074293,1.0003179994569031,0.0002326537524730888
1386.9288101370646,1386.9288101370646,0.9999559540853926,0.00023260112319028236
1386.935754666607,1386.935754666607,0.9999287058212964,0.00023259463358941114
1386.9426991961484,1386.9426991961484,0.9998596791019008,0.0002326059248649763
1386.9496437255038,1386.9496437255038,0.9997757222776624,0.0002325607321589442
1386.9565882547668,1386.9565882547668,1.0000528412530545,0.00023264745304995535
1386.9635327840292,1386.9635327840292,0.9998932387796875,0.0002326244644776336
1386.970477313105,1386.970477313105,1.000304831936384,0.00023265745172696258
1386.977421842275,1386.977421842275,1.000146050308163,0.0002326295547433657
1386.985199714632,1386.985199714632,0.9995689123055154,0.00023260708689412803
1386.9926998058327,1386.9926998058327,1.000219060082655,0.00023265814042574615
1386.9996443344432,1386.9996443344432,1.0000149717884832,0.0002326116160378321
1387.0065888631475,1387.0065888631475,0.9997798610780293,0.00023261146207645915
1387.0135333916646,1387.0135333916646,0.999879431255217,0.0002325931971915861
1387.0204779201817,1387.0204779201817,1.0002788944752055,0.0002326728154419788
1387.0274224486063,1387.0274224486063,0.9998482072016399,0.0002326205736690672
1387.034366976938,1387.034366976938,1.0001079209550203,0.00023261892173448336
1387.0413115050824,1387.0413115050824,1.0000420223264186,0.00023262073449913464
1387.0482560332275,1387.0482560332275,1.0002009024076997,0.0002326497831670462
1387.0552005612797,1387.0552005612797,1.0000070743470233,0.00023263129602560346
1387.0621450892381,1387.0621450892381,0.9996793852968315,0.0002326171935393447
1387.0690896171964,1387.0690896171964,0.9997785690161878,0.0002326325061380904
1387.0760341449693,1387.0760341449693,1.0000899863143018,0.0002326665135194834
1387.0829786726488,1387.0829786726488,1.00031588587807,0.00023268372349201155
1387.089923200141,1387.089923200141,1.0001974552278134,0.00023267649433007074
1387.0968677277276,1387.0968677277276,1.000373682947896,0.00023268083231677548
1387.1038122552209,1387.1038122552209,0.9998351355734585,0.00023266027634054163
1387.110756782528,1387.110756782528,0.9999267608370026,0.000232676443178075
1387.1177013097408,1387.1177013097408,0.9998445411450211,0.0002326374114640919
1387.1246458369544,1387.1246458369544,0.9995987084426137,0.0002326038928824147
1387.1315903639825,1387.1315903639825,1.0003557384099455,0.00023271369786403775
1387.1385348910092,1387.1385348910092,0.9999284279010243,0.000232654310252763
1387.145479417943,1387.145479417943,1.0002150515669888,0.000232677978646961
1387.152423944692,1387.152423944692,0.9997432732567324,0.00023265584750713206
1387.1593684714394,1387.1593684714394,1.0005501418750264,0.00023272372874116038
1387.1663129982803,1387.1663129982803,0.9997458536335891,0.00023263457164308786
1387.1732575248425,1387.1732575248425,0.9998883415909893,0.0002326476607914049
1387.1802020510318,1387.1802020510318,0.9999652615348896,0.0002326621903780776
1387.1871465775,1387.1871465775,0.9997958938802404,0.000232617058472225
1387.1940911037823,1387.1940911037823,1.0001426104019635,0.00023268047540956193
1387.2010356300648,1387.2010356300648,0.9999884755570128,0.00023265295134023504
1387.2079801561613,1387.2079801561613,1.0004722450025851,0.00023271306607073214
1387.214924682163,1387.214924682163,0.9995730543494773,0.00023260913752601314
1387.2218692081665,1387.2218692081665,1.0001801995975175,0.00023266644118921428
1387.2288137338903,1387.2288137338903,1.000225556171065,0.00023266486114689847
1387.2357582597067,1387.2357582597067,0.9998407092943274,0.0002326367866939001
1387.24270278543,1387.24270278543,0.9997548276106663,0.00023261227035456126
1387.2496473110607,1387.2496473110607,0.9996426177451863,0.00023261206590680225
1387.256591836505,1387.256591836505,1.0002065615349114,0.0002326642781187652
1387.2635363618554,1387.2635363618554,1.0003686895494497,0.00023269851838667136
1387.2704808872998,1387.2704808872998,0.9998821284783646,0.00023263972654301925
1387.277425412558,1387.277425412558,1.0003244104810733,0.0002326900926902295
1387.2843699377222,1387.2843699377222,1.000076795166486,0.00023266790792146852
1387.2913144627935,1387.2913144627935,1.0000123385022592,0.0002326435074843015
1387.2982589877724,1387.2982589877724,0.9998726039746225,0.0002326241683146457
1387.305203512658,1387.305203512658,0.9992411790516005,0.0002325722697488874
1387.3129813805438,1387.3129813805438,1.000079473609809,0.00023266023139528183
1387.3215925911522,1387.3215925911522,0.9999306236738551,0.00023263557568659063
1387.328814896728,1387.328814896728,1.000508501982278,0.0002327008275655911
1387.3365927641485,1387.3365927641485,1.0000147584790047,0.00023265496374771612
1387.3440928505997,1387.3440928505997,0.9999842178380284,0.0002326483973789878
1387.3513151559894,1387.3513151559894,1.0003663509675946,0.00023267175371589712
1387.3593708041,1387.3593708041,1.0002168688668778,0.00023267792075183356
1387.3663153282396,1387.3663153282396,0.9994514836990623,0.00023259040426421728
1387.3732598521008,1387.3732598521008,0.9995107375807585,0.0002326153980287556
1387.3802043762414,1387.3802043762414,1.0000128465290152,0.0002326679487759592
1387.3871489001017,1387.3871489001017,1.000178468208554,0.0002326869434482285
1387.3940934238694,1387.3940934238694,1.0001914881089522,0.0002326707179610659
1387.4010379475444,1387.4010379475444,1.0004148257281442,0.0002326993952890258
1387.4079824712194,1387.4079824712194,0.999690150420391,0.00023263712658347304
1387.4149269947068,1387.4149269947068,0.999873335989817,0.00023264635493360934
1387.4218715181955,1387.4218715181955,1.000052835128765,0.00023266509259911366
1387.4288160415908,1387.4288160415908,0.9995764588128695,0.0002326229137260107
1387.435760564893,1387.435760564893,0.9999408010206065,0.0002326312145915352
1387.4427050880083,1387.4427050880083,1.0005948208688795,0.00023272272696786203
1387.4496496111246,1387.4496496111246,1.0000589944640164,0.00023266548166439284
1387.4565941341477,1387.4565941341477,0.9999126908060811,0.00023263913854450305
1387.4635386571695,1387.4635386571695,1.0000801064763531,0.00023268637115648468
1387.4704831800059,1387.4704831800059,1.000133472615351,0.000232657718802246
1387.4774277028428,1387.4774277028428,0.9995810115332457,0.00023260828747724698
1387.4843722255864,1387.4843722255864,1.0001349323487982,0.0002326547558797058
1387.4913167480495,1387.4913167480495,0.9999705944269206,0.00023263341379519607
1387.4982612707001,1387.4982612707001,1.0000321020463447,0.0002326553025778244
1387.5052057930711,1387.5052057930711,0.9997443361751179,0.00023259866380923806
1387.5121503153484,1387.5121503153484,0.9998692004247886,0.00023261368595136594
1387.519094837719,1387.519094837719,1.0002704048172848,0.00023266519629578787
1387.5260393598107,1387.5260393598107,0.9998965263082666,0.0002326179200178512
1387.5329838819955,1387.5329838819955,1.000337876784672,0.0002326741200551609
1387.5399284039001,1387.5399284039001,0.9999485452813314,0.0002326304337798886
1387.546872925805,1387.546872925805,1.0000499825476519,0.0002326556501596044
1387.5538174477108,1387.5538174477108,1.0001564031557453,0.00023265902487252916
1387.560761969523,1387.560761969523,0.9996204115471412,0.0002326114271606755
1387.5677064910544,1387.5677064910544,1.0000434640249878,0.00023265419791571179
1387.5746510126805,1387.5746510126805,1.0000273283905878,0.00023266213898014945
1387.5815955342134,1387.5815955342134,0.9999244662853158,0.00023264194589166492
1387.5885400555599,1387.5885400555599,0.9999821071859415,0.00023265677899346845
1387.5954845769054,1387.5954845769054,0.999921067353242,0.00023266433461577963
1387.6024290980658,1387.6024290980658,1.0002417606626988,0.00023268594531332623
1387.6093736193193,1387.6093736193193,0.9998077162755287,0.00023264411072470743
1387.6163181403858,1387.6163181403858,1.0001299766308178,0.00023267010708432544
1387.6232626613594,1387.6232626613594,0.9999947076907706,0.00023264975057135773
1387.6302071822408,1387.6302071822408,1.0001004074988007,0.00023265812764863993
1387.6371517030286,1387.6371517030286,0.9997269811056991,0.0002326312607667885
1387.6440962237223,1387.6440962237223,1.0000116061569706,0.00023265150193758563
1387.6510407445098,1387.6510407445098,0.9999177743183504,0.00023265133958928075
1387.6579852650182,1387.6579852650182,1.0004641761299258,0.00023270840305752142
1387.6649297854333,1387.6649297854333,0.9993662548660935,0.0002325730330471069
1387.6718743059405,1387.6718743059405,1.0002776901116293,0.00023268989311077192
1387.6788188261696,1387.6788188261696,0.999787876089495,0.00023263015718780252
1387.685763346399,1387.685763346399,1.000077254887095,0.00023267520865840122
1387.692707866534,1387.692707866534,1.000067456443261,0.00023267851664553825
1387.6996523866692,1387.6996523866692,0.9999468242044252,0.00023266861679838245
1387.7065969066189,1387.7065969066189,0.9998786895032797,0.000232646609508663
1387.7135414263823,1387.7135414263823,0.999787943278619,0.0002326428797411188
