time,time,flux,flux_err
1624.9624948235996,1624.9624948235996,0.999949249147301,0.0001457681457910031
1624.9708283291375,1624.9708283291375,1.0001338238768853,0.00014603971067085256
1624.9791618347142,1624.9791618347142,0.9999253888384289,0.00014633500167084192
1624.9868008815283,1624.9868008815283,1.0001128954666834,0.0001338560981126687
1624.9937454696096,1624.9937454696096,1.0000826953311954,0.00013413074756432158
1625.0006900576448,1625.0006900576448,0.9998274313081679,0.00013446220582166542
1625.0076346457263,1625.0076346457263,0.999773218500196,0.00013477010586503195
1625.0145792339013,1625.0145792339013,1.000041742825056,0.00013512976674114258
1625.0215238220753,1625.0215238220753,0.9999925858975643,0.00013552201991099146
1625.0284684103904,1625.0284684103904,1.0000884943491013,0.0001359401262427582
1625.0354129986579,1625.0354129986579,1.0001080667536422,0.00013637283321378616
1625.042357587019,1625.042357587019,1.0000329106368575,0.00013680967483337334
1625.04930217538,1625.04930217538,0.9998268544404547,0.00013724611308724198
1625.0562467638342,1625.0562467638342,1.0002205331616572,0.0001377685948993692
1625.0631913523812,1625.0631913523812,0.9999638009733287,0.00013822668926677986
1625.070135940882,1625.070135940882,0.999748088512605,0.00013870785645506638
1625.0770805295222,1625.0770805295222,1.0000733861730704,0.00013916572261621284
1625.0840251181628,1625.0840251181628,1.0001258085066953,0.00013961498894512635
1625.0909697068964,1625.0909697068964,0.9998971864171768,0.00014000768296055607
1625.0979142956767,1625.0979142956767,1.0000567604424577,0.0001404222592362868
1625.1048588845497,1625.1048588845497,1.0000436018339331,0.00014084160681043692
1625.1118034734693,1625.1118034734693,0.999946279608797,0.00014124340466844983
1625.1187480624358,1625.1187480624358,1.0001232499186392,0.00014162792375728257
1625.125692651495,1625.125692651495,0.9999324873983857,0.00014198699920524145
1625.1326372406015,1625.1326372406015,0.999975683052537,0.00014234736694530934
1625.1395818298467,1625.1395818298467,0.9999456903675006,0.00014269756337457264
1625.1465264189999,1625.1465264189999,0.9999464880369053,0.00014305174690343837
1625.1534710083383,1625.1534710083383,1.000137448479371,0.00014333513071610897
1625.160415597817,1625.160415597817,1.000009870595505,0.0001437398609781669
1625.167360187249,1625.167360187249,1.0001069572955295,0.00014406159203233235
1625.174304776821,1625.174304776821,0.9999288639838312,0.00014438526862930066
1625.1823605008267,1625.1823605008267,0.999831930887269,0.00014467451935157083
1625.1895828741112,1625.1895828741112,1.000033834303772,0.0001449545592385092
1625.1965274639158,1625.1965274639158,1.0001504057111656,0.00014526899581407307
1625.2034720537208,1625.2034720537208,1.000042477689835,0.000145430838756603
1625.2104166437111,1625.2104166437111,1.000089542915919,0.0001457749288599972
1625.2184723681821,1625.2184723681821,0.9998402283302156,0.00014605884104934775
1625.2270836598939,1625.2270836598939,1.0002920123537098,0.00014640549378337406
1625.234028250118,1625.234028250118,0.9999226153617229,0.00014668364478511372
1625.2420839748218,1625.2420839748218,1.000136512357151,0.00014697948861466014
1625.2493063488985,1625.2493063488985,1.0002181221826647,0.00014731061657762402
1625.256250939401,1625.256250939401,0.9999525501845732,0.00014756145500547567
1625.2631955299046,1625.2631955299046,1.0002514023173499,0.000147757255631193
1625.2712512550277,1625.2712512550277,0.9998362083812935,0.00014823307621059835
1625.2784736293372,1625.2784736293372,1.000046916678126,0.0001486034732601326
1625.2854182201195,1625.2854182201195,0.9999189733565628,0.00014887533452402288
1625.2923628110418,1625.2923628110418,0.999885995392203,0.000149196147539508
1625.299585185677,1625.299585185677,1.0000098847213337,0.0001496991758925713
1625.309029829506,1625.309029829506,1.0000816239657933,0.00015021014740648487
1625.315974420661,1625.315974420661,1.0000584226125784,0.00015064924900919525
1625.3240301464832,1625.3240301464832,0.9999658419980044,0.00015117058399514554
1625.3312525214442,1625.3312525214442,1.000103154529159,0.00015163281734795572
1625.3381971128786,1625.3381971128786,0.9999432373768087,0.0001519954994687272
1625.3451417043593,1625.3451417043593,1.0000902657688506,0.0001524448508699384
1625.3520862960265,1625.3520862960265,0.9999668082612487,0.00015287383452354286
1625.3590308876935,1625.3590308876935,0.9998706418642419,0.00015324763798871792
1625.3659754793607,1625.3659754793607,1.000089323093651,0.00015365785508396102
1625.3729200711678,1625.3729200711678,0.9998847484786367,0.0001539902927821444
1625.3798646630214,1625.3798646630214,1.000174046767348,0.00015425503655312173
1625.3868092549678,1625.3868092549678,0.9998150839230572,0.00015456659779393414
1625.393753847054,1625.393753847054,0.9999199958671714,0.00015489708792477226
1625.4006984391867,1625.4006984391867,1.0000545160798175,0.00015507012618677538
1625.407643031413,1625.407643031413,1.0000910614645069,0.0001553469896830101
1625.4145876236391,1625.4145876236391,0.9998189913673272,0.00015549794019503917
1625.4215322160512,1625.4215322160512,0.9999999036094384,0.00015566569334025135
1625.428476808463,1625.428476808463,1.0002733741678853,0.0001558763712594222
1625.4354214009684,1625.4354214009684,1.0002684801622561,0.00015598956455519628
1625.4423659935674,1625.4423659935674,0.9999272014692371,0.00015613196345844887
1625.4493105862123,1625.4493105862123,1.0000036468223217,0.00015622813510554606
1625.4562551789506,1625.4562551789506,1.000134797337704,0.00015633481485355448
1625.4631997717815,1625.4631997717815,0.9998079354474708,0.00015637901787805608
1625.4701443646131,1625.4701443646131,0.9999527789165636,0.00015648661281738994
1625.4782000925302,1625.4782000925302,0.9998100575567372,0.0001565356985568656
1625.4854224692613,1625.4854224692613,1.0000348373188894,0.00015666396353588723
1625.492367062418,1625.492367062418,0.9998429957841756,0.00015666726497740808
1625.499311655576,1625.499311655576,1.000027637065751,0.00015665922577605637
1625.506256248873,1625.506256248873,1.000218001788093,0.00015680028847180543
1625.5132008422163,1625.5132008422163,1.0000995167459166,0.00015683849257227577
1625.520145435606,1625.520145435606,0.9999576495025874,0.00015680715237643056
1625.5270900290893,1625.5270900290893,1.00009715544385,0.0001567951894298264
1625.5340346226196,1625.5340346226196,0.9995802005609656,0.00015676612175185073
1625.5409792162422,1625.5409792162422,0.9999307683756928,0.0001566368389555018
1625.5479238099583,1625.5479238099583,0.9999316621028316,0.00015658189935935832
1625.5548684036746,1625.5548684036746,1.0001626855778156,0.00015643280253808752
1625.561812997484,1625.561812997484,1.0001589747482356,0.00015634651133836282
1625.568757591433,1625.568757591433,1.0000215098664191,0.00015619609793047465
1625.5757021854283,1625.5757021854283,1.0000478266640909,0.00015604293254921218
1625.5826467794236,1625.5826467794236,1.000006031522116,0.00015581867516448297
1625.589591373419,1625.589591373419,0.9997783410968563,0.00015560677731781637
1625.5965359676472,1625.5965359676472,0.9999440551218279,0.00015541471912548332
1625.6034805618292,1625.6034805618292,1.0003006959241576,0.0001551857311093438
1625.6104251561505,1625.6104251561505,0.9999719381266831,0.00015494316683572557
1625.617369750472,1625.617369750472,1.0000692767869421,0.0001546823357880831
1625.624314344887,1625.624314344887,0.9998715778302303,0.00015446269891576165
1625.631258939348,1625.631258939348,1.00013984430489,0.0001542498724710467
1625.638203533902,1625.638203533902,0.9997885276554008,0.00015398345045872957
1625.6451481284562,1625.6451481284562,0.999912695143346,0.00015376325002478664
1625.65209272315,1625.65209272315,1.0001895253875055,0.00015358513757847143
1625.6590373178904,1625.6590373178904,0.9998003795659324,0.00015337634572649137
1625.6659819126312,1625.6659819126312,1.0000845626229766,0.00015319851935702918
1625.672926507465,1625.672926507465,0.999982654426135,0.00015300373085806732
1625.6798711023916,1625.6798711023916,1.0000311292340387,0.0001527987755456848
1625.6868156973185,1625.6868156973185,1.0000612644587616,0.00015264731840042997
1625.6937602923383,1625.6937602923383,0.9999881041932271,0.00015243187730381176
1625.7007048873588,1625.7007048873588,0.999899679034695,0.00015230113935969057
1625.7076494825178,1625.7076494825178,1.0002668266843462,0.0001521635485597711
1625.7145940776777,1625.7145940776777,0.9999790065262729,0.0001519625003300999
1625.7215386729301,1625.7215386729301,0.9998478848100261,0.00015182574388436108
1625.7284832682294,1625.7284832682294,1.0000147601729346,0.00015170404310474222
1625.7354278635753,1625.7354278635753,0.9999598127263226,0.00015153100578882314
1625.742372458968,1625.742372458968,1.0000489731647448,0.0001513961997406742
1625.7493170544535,1625.7493170544535,0.9998863844148532,0.00015126560212383157
1625.7562616499392,1625.7562616499392,0.9999540292571897,0.00015112288387654434
1625.7632062455184,1625.7632062455184,1.0002331918373908,0.0001509929815858957
1625.770150841097,1625.770150841097,1.0002082861297872,0.00015085319670672412
1625.777095436722,1625.777095436722,0.9999102879616508,0.00015066944325632049
1625.784040032487,1625.784040032487,0.9998237926864915,0.00015048859342704603
1625.7909846282055,1625.7909846282055,0.9997963979480018,0.0001503237586208624
1625.7979292240636,1625.7979292240636,1.0000240808831762,0.00015012706783269937
1625.8048738199218,1625.8048738199218,0.9997860016525918,0.00014991632922476962
1625.811818415826,1625.811818415826,1.0003821807016657,0.00014978069462521978
1625.8187630117307,1625.8187630117307,1.0003347762425234,0.0001496044239014629
1625.8257076077753,1625.8257076077753,1.000086847817406,0.00014940347906195527
1625.83265220382,1625.83265220382,1.0000145439011354,0.00014918431082159151
1625.8395967999109,1625.8395967999109,1.0000325829084216,0.0001489798202759369
1625.846541396048,1625.846541396048,0.9997850077926185,0.0001487234163246418
1625.8534859922788,1625.8534859922788,0.9999878758468711,0.0001485362638159161
1625.8604305885092,1625.8604305885092,0.9999406342738532,0.0001483396610943888
1625.8673751846932,1625.8673751846932,0.9996988348070444,0.00014806962451432501
1625.8743197810177,1625.8743197810177,1.0003502810116656,0.00014785171107639493
1625.8812643774806,1625.8812643774806,0.9999705191689495,0.0001475732529999788
1625.8882089738977,1625.8882089738977,1.0000493185949328,0.00014739614291683895
1625.8951535703145,1625.8951535703145,1.000105526094714,0.00014708339220510563
1625.9020981668248,1625.9020981668248,1.0001144900901886,0.00014690952551521576
1625.9090427633814,1625.9090427633814,1.0001565367546257,0.0001466192754949729
1625.9159873599378,1625.9159873599378,0.9998750185059055,0.00014639268957311572
1625.922931956588,1625.922931956588,0.9999930978197131,0.000146082124478022
1625.9298765532371,1625.9298765532371,0.9999603846905405,0.00014580350079398534
1625.9368211499336,1625.9368211499336,1.00007963948755,0.000145529908337049
1625.9437657466765,1625.9437657466765,1.0000217820360657,0.00014526291372145582
1625.950710343466,1625.950710343466,1.000061382770775,0.00014504445726004405
1625.9576549402552,1625.9576549402552,1.0001267795428268,0.0001448247416126727
1625.964599537138,1625.964599537138,1.00006763384165,0.00014454627406461774
1625.9715441340202,1625.9715441340202,0.9997845404237677,0.00014428807730452068
1625.9784887309497,1625.9784887309497,1.0000092745974054,0.00014406481513683358
1625.9854333279252,1625.9854333279252,0.9999953395609256,0.00014383252928840386
1625.9923779249013,1625.9923779249013,0.9999514128569371,0.00014365761247710207
1625.9993225219696,1625.9993225219696,0.9998055262050564,0.000143476114070113
1626.0062671189921,1626.0062671189921,1.000221626565049,0.00014326065417447572
1626.013211716154,1626.013211716154,1.0002374791039537,0.00014308610664170188
1626.0201563132696,1626.0201563132696,1.000072773247281,0.00014292567538690948
1626.0271009104777,1626.0271009104777,1.0000741442935528,0.0001427706207253379
1626.0340455076864,1626.0340455076864,0.9998803218723167,0.00014256559321436588
1626.0409901049413,1626.0409901049413,0.9999675061218462,0.0001424305437333
1626.0479347021962,1626.0479347021962,0.999788273455372,0.0001422567062783155
1626.0548792994987,1626.0548792994987,0.9998938515508049,0.00014215233430486698
1626.0618238968934,1626.0618238968934,1.000086805079777,0.0001420075156152197
1626.068768494195,1626.068768494195,0.9999984152474914,0.00014188959883393252
1626.075713091636,1626.075713091636,1.0000311713528762,0.00014178458233503403
1626.082657689124,1626.082657689124,1.000285007022346,0.00014169264573253131
1626.0896022866123,1626.0896022866123,0.9998592275142075,0.00014158802885365446
1626.0965468841,1626.0965468841,1.0000987081835822,0.00014149270476582437
1626.1034914815878,1626.1034914815878,0.9999826689078024,0.0001413547699564806
1626.1104360790757,1626.1104360790757,1.0003702385953332,0.0001412826222932804
1626.11738067675,1626.11738067675,0.9997940268452579,0.00014116342226436207
1626.1243252742845,1626.1243252742845,0.99980968009145,0.00014108008379181005
1626.1312698720053,1626.1312698720053,1.00005725880072,0.00014094266299296063
1626.138214469633,1626.138214469633,0.9999934568396099,0.00014088476404512751
1626.1451590673537,1626.1451590673537,0.9998093599929131,0.00014082793189349076
1626.1521036650743,1626.1521036650743,1.0001628342334192,0.0001407014124300326
1626.1590482627948,1626.1590482627948,1.0000365072497563,0.0001406280692120728
1626.1659928606089,1626.1659928606089,1.00020962971732,0.0001405235256806263
1626.172937458423,1626.172937458423,1.0003522597730063,0.00014045296529749442
1626.1798820562367,1626.1798820562367,0.9999759717122695,0.00014034897726482908
1626.1868266540973,1626.1868266540973,1.0000313722835843,0.0001402297022248885
1626.1937712519577,1626.1937712519577,0.9996520998694084,0.00014008703571731415
1626.2007158499114,1626.2007158499114,1.000051983845455,0.00014001345576021356
1626.2076604478182,1626.2076604478182,0.9999863403849407,0.00013988907844434727
1626.214605045772,1626.214605045772,1.0000418275379936,0.00013979970088235527
1626.2215496437254,1626.2215496437254,0.9999390153387177,0.0001396992042917844
1626.2284942417723,1626.2284942417723,0.9997439142167435,0.0001395715763113029
1626.2354388397257,1626.2354388397257,0.9999609115711754,0.0001394594311727111
1626.2423834378192,1626.2423834378192,0.9999354555840778,0.00013934246413647362
1626.2493280358658,1626.2493280358658,1.0002798086348332,0.00013922477229967622
1626.2562726339593,1626.2562726339593,1.000248216556028,0.00013911656583030755
1626.263217232099,1626.263217232099,1.0001422389447385,0.00013900824223497235
1626.2701618301921,1626.2701618301921,1.0000809215044033,0.00013884429590665026
1626.2771064283784,1626.2771064283784,0.9997169966025294,0.00013868893679594218
1626.284051026565,1626.284051026565,0.9997755453249348,0.00013853369411084794
1626.2909956247508,1626.2909956247508,0.9998732137281984,0.00013852049006565778
1626.2979402229844,1626.2979402229844,1.0001080630357329,0.00013842854295442335
1626.3048848212172,1626.3048848212172,1.000421385601479,0.00013833310945809664
1626.311829419497,1626.311829419497,0.9998030063813623,0.0001381941225669834
1626.318774017776,1626.318774017776,1.0001062232815816,0.00013812246056550375
1626.3257186160095,1626.3257186160095,1.0001205393065524,0.00013799961542216237
1626.3326632143821,1626.3326632143821,1.0001070449119933,0.00013790260780602114
1626.3396078126618,1626.3396078126618,1.0000728679840662,0.0001378451455254967
1626.3465524110347,1626.3465524110347,0.9996620545320717,0.00013775275569178667
1626.3534970094072,1626.3534970094072,1.0000213729196938,0.00013768964202957596
1626.3604416077796,1626.3604416077796,0.9999096340072962,0.00013765908251154585
1626.3673862061987,1626.3673862061987,1.0000606272569654,0.00013757612900178754
1626.3743308046178,1626.3743308046178,1.000081988723949,0.0001375335625703982
1626.3812754030373,1626.3812754030373,0.9999787904994617,0.00013745292372577066
1626.3882200014568,1626.3882200014568,1.0000235437554463,0.00013739184033800459
1626.3951645999691,1626.3951645999691,1.000123325371222,0.0001373698418144857
1626.4021091984348,1626.4021091984348,1.000003386023792,0.00013732500388634648
1626.4090537969007,1626.4090537969007,1.000102223562974,0.00013724816649123264
1626.4159983954592,1626.4159983954592,0.9999261091336716,0.0001371927718759008
1626.422942993972,1626.422942993972,0.9997399768677129,0.00013713291414660413
1626.4298875924844,1626.4298875924844,0.9999784212228358,0.00013711106483987894
1626.436832191043,1626.436832191043,0.9999953747803563,0.0001370336306083315
1626.443776789695,1626.443776789695,0.9999476992569398,0.00013701051998309878
1626.4507213881607,1626.4507213881607,1.000153227370443,0.0001369260920374923
1626.4576659867666,1626.4576659867666,1.000057414094761,0.0001369121921256226
1626.4646105854185,1626.4646105854185,1.0000750333362667,0.00013687827452274153
1626.4715551840704,1626.4715551840704,0.9998187855949151,0.00013681763003235733
1626.478499782723,1626.478499782723,1.0001132240879032,0.0001367946441484196
1626.4854443813747,1626.4854443813747,1.0002265064742561,0.00013675810321821103
1626.492388980027,1626.492388980027,0.9997693057516812,0.00013671081057085893
1626.499333578679,1626.499333578679,1.0001714874020684,0.00013667643077755793
1626.5062781773308,1626.5062781773308,1.0001246879597303,0.00013662094666830554
1626.5132227759827,1626.5132227759827,0.999905104953052,0.00013657563729179133
1626.5201673747283,1626.5201673747283,1.0000385419156739,0.000136618792583865
1626.5271119735203,1626.5271119735203,1.0000647712378186,0.00013658680961657564
1626.5340565721722,1626.5340565721722,1.0000617778754242,0.00013656389699278536
1626.5410011709173,1626.5410011709173,0.999925692575618,0.0001364989998760402
1626.5479457697088,1626.5479457697088,0.9998086559100964,0.0001364499852241792
1626.5548903684078,1626.5548903684078,0.9999518360867627,0.0001364487164325871
1626.5618349672463,1626.5618349672463,1.0000345469703888,0.00013638827645325038
1626.5687795659912,1626.5687795659912,1.0000772236374407,0.00013641429644843203
1626.575724164783,1626.575724164783,1.0002009042058888,0.00013640367449366462
1626.582668763621,1626.582668763621,0.9997827709963202,0.00013633376676455317
1626.5896133623664,1626.5896133623664,0.9999242102451629,0.00013635415983011755
1626.5965579612048,1626.5965579612048,1.0001610756618031,0.00013633899809095234
1626.6035025600431,1626.6035025600431,0.9999777924640352,0.00013625094522436257
1626.6104471588812,1626.6104471588812,1.000065915981226,0.00013626949849050848
1626.6173917576732,1626.6173917576732,0.9999791293010818,0.00013623386053904801
1626.6243363565584,1626.6243363565584,0.9999129604126201,0.00013621739384300536
1626.6312809553967,1626.6312809553967,0.9999844926278172,0.00013612255133340327
1626.6382255542815,1626.6382255542815,1.000070517629878,0.0001361346708577328
1626.6451701531662,1626.6451701531662,1.000017332300367,0.00013614119878855164
1626.6521147520045,1626.6521147520045,0.9998795960533959,0.0001361265690669253
1626.6590593508893,1626.6590593508893,1.0000355703206165,0.000136076448506098
1626.6660039497744,1626.6660039497744,1.0003273025904378,0.00013605176577838912
1626.672948548706,1626.672948548706,1.0001607358427294,0.0001359812755216647
1626.679893147591,1626.679893147591,0.999966479499227,0.00013600147319595154
1626.686837746522,1626.686837746522,0.9999548683829659,0.00013598189903997669
1626.693782345407,1626.693782345407,1.0000325216927493,0.0001359611027338758
1626.7007269443384,1626.7007269443384,0.9998821931542178,0.00013594573048557494
1626.7076715432697,1626.7076715432697,1.0000717672778223,0.00013594773504413572
1626.7146161422015,1626.7146161422015,0.999870834366923,0.00013592439359803155
1626.7215607411795,1626.7215607411795,1.0001519454080658,0.00013591382721333444
1626.7285053401108,1626.7285053401108,1.0000493887701176,0.00013586628932670688
