time,time,flux,flux_err
1517.3662444968445,1517.3662444968445,1.000124216315911,0.00041198424454488413
1517.3748558780571,1517.3748558780571,1.0003646803663018,0.0003887771375496524
1517.3820783275642,1517.3820783275642,0.9995850923895873,0.00037861664249121157
1517.3890229906556,1517.3890229906556,1.0001445538239637,0.00037034800768630043
1517.3959676543989,1517.3959676543989,0.9994464910865206,0.0003631955276443988
1517.4043012511518,1517.4043012511518,0.9999929218218602,0.0003548520913853265
1517.4112459155472,1517.4112459155472,1.0006006816673405,0.00034860003220814616
1517.4181905803148,1517.4181905803148,1.0003751504560945,0.00034266682098450996
1517.4251352453618,1517.4251352453618,1.0001745475895156,0.0003372542621297958
1517.432079910968,1517.432079910968,1.0000443931563936,0.00033237699322817197
1517.4390245766672,1517.4390245766672,1.000259100615844,0.00032777851400787086
1517.4459692427388,1517.4459692427388,1.0002209289724828,0.0003237956140779051
1517.452913909183,1517.452913909183,1.0002383356066915,0.0003202324141663391
1517.4598585759065,1517.4598585759065,1.000263441193731,0.0003170813086723431
1517.466803243096,1517.466803243096,1.000290872454766,0.0003142593395603582
1517.4737479104713,1517.4737479104713,0.9998584362806643,0.00031158174290341496
1517.48069257794,1517.48069257794,0.9997606603405993,0.0003091958320964815
1517.4876372458743,1517.4876372458743,1.000431667333435,0.0003068592653536322
1517.494581913995,1517.494581913995,1.0000184206536986,0.0003046077828289776
1517.5015265823947,1517.5015265823947,0.9997878001947796,0.0003025062262703612
1517.5084712512607,1517.5084712512607,0.9995893296209815,0.0003004021442635654
1517.515415920126,1517.515415920126,0.9999717988237775,0.00029846315007825126
1517.5223605893643,1517.5223605893643,1.00002004774129,0.00029662038977920754
1517.529305258789,1517.529305258789,1.0003832632076235,0.0002949200900927302
1517.5362499284925,1517.5362499284925,0.9999365300269991,0.0002932785351774296
1517.5431945984756,1517.5431945984756,1.0000912673043196,0.0002917823770488443
1517.5501392686451,1517.5501392686451,1.000148811366192,0.00029033024825693334
1517.5570839390011,1517.5570839390011,1.0001592649703674,0.0002889583533668481
1517.5640286096361,1517.5640286096361,0.9998683067969335,0.00028760958602587635
1517.5709732804576,1517.5709732804576,1.000026632764558,0.0002864819774819668
1517.5779179515582,1517.5779179515582,0.9999546966432931,0.00028537397904238173
1517.5848626227528,1517.5848626227528,1.0000449238441032,0.00028427618616134326
1517.5918072941322,1517.5918072941322,0.9996499643803227,0.0002832135320453296
1517.5987519656987,1517.5987519656987,1.0000209149610417,0.0002822558202428523
1517.6056966376382,1517.6056966376382,0.9999442631597061,0.0002813758793668988
1517.6126413096697,1517.6126413096697,1.0004792738211463,0.00028052627263619966
1517.6195859817021,1517.6195859817021,1.0000299615502826,0.00027962484640223207
1517.6265306540138,1517.6265306540138,1.0000832793722012,0.00027886710003659167
1517.6334753265114,1517.6334753265114,0.9998876122500828,0.00027810598718245797
1517.6404199991953,1517.6404199991953,0.9997138652716776,0.000277376038793253
1517.6473646720658,1517.6473646720658,1.0002396659460562,0.0002768701765311621
1517.6543093450296,1517.6543093450296,1.0002672611758059,0.0002761879203715505
1517.661254018179,1517.661254018179,1.0001102419942067,0.00027556737149247215
1517.6681986914216,1517.6681986914216,1.0003743409258363,0.000274906559187244
1517.675143364851,1517.675143364851,0.9997672936605018,0.000274294226558248
1517.6820880383734,1517.6820880383734,1.0000145153067972,0.0002737146886543313
1517.6890327120814,1517.6890327120814,1.0002726477344634,0.0002731260007582232
1517.6959773859767,1517.6959773859767,1.0000276018861727,0.00027251192194229754
1517.7029220598713,1517.7029220598713,0.9996878289940812,0.0002719179596325025
1517.7098667339521,1517.7098667339521,0.9998187744866449,0.0002714250786140716
1517.7168114083127,1517.7168114083127,0.9997188534569403,0.00027089415022458964
1517.7237560826732,1517.7237560826732,1.0004137239360253,0.0002703445064139528
1517.7307007570337,1517.7307007570337,1.0001663067742832,0.0002697672255961649
1517.737645431394,1517.737645431394,0.9997626782447877,0.0002691847561253942
1517.74459010622,1517.74459010622,1.0001832372879769,0.00026873126690201045
1517.7515347808599,1517.7515347808599,1.000192152129116,0.00026818241802338495
1517.758479455686,1517.758479455686,1.000269692511354,0.000267748657025514
1517.7654241306982,1517.7654241306982,0.9999114121282624,0.0002671460759801589
1517.772368805711,1517.772368805711,0.9992615374420012,0.00026659403249985696
1517.7793134809094,1517.7793134809094,0.9997606109616293,0.0002661826395267147
1517.7862581561078,1517.7862581561078,1.0001159635505084,0.0002657315376000814
1517.7932028314929,1517.7932028314929,1.0003273989430421,0.0002651751683936219
1517.8001475067845,1517.8001475067845,1.000008462350952,0.0002647406963019248
1517.8070921823555,1517.8070921823555,1.0000501856372763,0.00026432406981219956
1517.8140368578338,1517.8140368578338,0.9999971293875634,0.00026393849516361103
1517.820981533591,1517.820981533591,1.0002519320541967,0.0002636087130857684
1517.8279262092556,1517.8279262092556,0.9999083550232071,0.00026306285693698594
1517.8348708850128,1517.8348708850128,1.0000195098060765,0.0002628631768650187
1517.8418155609563,1517.8418155609563,0.9999730314280381,0.0002624993648638465
1517.848760236807,1517.848760236807,1.0000475023084288,0.000262273790576398
1517.8557049127508,1517.8557049127508,0.9995081068543378,0.00026195481093642295
1517.8626495887875,1517.8626495887875,1.0002543702621596,0.0002616324847585836
1517.8695942649174,1517.8695942649174,0.9999991770031349,0.00026143059771500954
1517.8765389410478,1517.8765389410478,1.0005676201847868,0.00026126228800685237
1517.8834836172703,1517.8834836172703,0.9994961517533412,0.00026090649540671564
1517.8904282934934,1517.8904282934934,1.000059983572915,0.00026075817480890724
1517.8973729698098,1517.8973729698098,0.9999471430041107,0.00026059076298664825
1517.9043176463122,1517.9043176463122,0.9999196081365598,0.0002604375195888113
1517.9112623225353,1517.9112623225353,0.9998830220932113,0.0002602283189048696
1517.9182069991307,1517.9182069991307,0.999865018135616,0.0002599849202892808
1517.925151675447,1517.925151675447,1.0003874529635006,0.00025992723060548975
1517.9320963521354,1517.9320963521354,1.0001974714565856,0.000259810945249821
1517.9390410288245,1517.9390410288245,0.9996565510363926,0.0002596038913613818
1517.9470968534108,1517.9470968534108,1.000343573832319,0.0002595126447268647
1517.9543193170744,1517.9543193170744,1.0001690575262185,0.00025935869346931236
1517.9612639937627,1517.9612639937627,0.9998042682914342,0.00025913188969670933
1517.9682086704515,1517.9682086704515,0.9997479261687705,0.00025908570367993766
1517.9751533472333,1517.9751533472333,0.9998159607660367,0.00025886139273575867
1517.9820980242944,1517.9820980242944,0.999613738398771,0.00025869739874116173
1517.9890427009834,1517.9890427009834,1.0001986570858894,0.0002587157646718102
1517.9959873776722,1517.9959873776722,1.0003975945929116,0.0002585679114888459
1518.0029320544538,1518.0029320544538,1.0000281793643708,0.0002584312357424965
1518.009876731515,1518.009876731515,1.000091080998732,0.00025827682918661904
1518.0168214082041,1518.0168214082041,1.0003290781225942,0.00025812600344661096
1518.023766085265,1518.023766085265,0.9996798773491425,0.0002580191379754684
1518.0307107620472,1518.0307107620472,1.000235141118087,0.00025791727945099054
1518.0376554391082,1518.0376554391082,0.9994414179684604,0.0002577187034830964
1518.0446001158903,1518.0446001158903,1.000232179802007,0.00025767472472740894
1518.0515447929515,1518.0515447929515,0.9998129679256114,0.00025755006302135707
1518.0584894698263,1518.0584894698263,1.0000611039966665,0.00025751726284572096
1518.0654341468876,1518.0654341468876,1.0004277266431714,0.0002573379574167734
1518.0723788237626,1518.0723788237626,0.999757205832591,0.00025709641087465733
1518.0793235007309,1518.0793235007309,1.0001536367780877,0.0002571753533010905
1518.0862681777921,1518.0862681777921,1.000371695430106,0.0002569595752126331
1518.09321285476,1518.09321285476,0.9997617171944686,0.0002569190613172319
1518.1001575317282,1518.1001575317282,1.0004147462811397,0.0002569235699664043
1518.1071022087895,1518.1071022087895,0.9995431764536249,0.0002566161683372363
1518.1140468856643,1518.1140468856643,0.9999686442039355,0.00025660420951806453
1518.120991562726,1518.120991562726,0.9997278784233314,0.0002564572148056684
1518.1279362397868,1518.1279362397868,1.0000832807867808,0.0002564250575671105
1518.134880916662,1518.134880916662,1.0000648248575836,0.0002562912173382306
1518.1418255937233,1518.1418255937233,1.0001501762127947,0.00025631113630865166
1518.1487702706913,1518.1487702706913,1.000266095908105,0.000256196640525533
1518.1557149475664,1518.1557149475664,1.0000350755407694,0.0002560557284524872
1518.1626596246274,1518.1626596246274,0.9998734813498569,0.0002560157117809596
1518.1696043014092,1518.1696043014092,0.9996455632014607,0.0002558257921991982
1518.1765489785637,1518.1765489785637,0.9998342051923004,0.0002558102841518193
1518.183493655346,1518.183493655346,0.9999718659734655,0.00025569344505078386
1518.1904383324068,1518.1904383324068,1.000196952927943,0.0002556241682002603
1518.197383009096,1518.197383009096,0.9999654797002984,0.00025551253400762924
1518.20432768625,1518.20432768625,1.0002944362856678,0.00025555000057885045
1518.2112723629389,1518.2112723629389,0.9996467634364873,0.00025545189326833253
1518.2182170398141,1518.2182170398141,0.9997395566494698,0.00025540472601877714
1518.2251617167817,1518.2251617167817,1.0000567037176555,0.00025535465572536014
1518.232106393471,1518.232106393471,1.0001112459908286,0.00025530274524105447
1518.2390510701593,1518.2390510701593,0.9997940747389432,0.0002552272994967787
1518.2459957472206,1518.2459957472206,1.0003657181988226,0.0002552713191475541
1518.2529404240026,1518.2529404240026,1.0000825626148908,0.00025525059638705963
1518.2598851006915,1518.2598851006915,0.999966400221815,0.0002551657401052897
1518.267107564447,1518.267107564447,0.9997624990447562,0.00025508132782497284
1518.2751633894065,1518.2751633894065,0.9999301021087081,0.00025504610106589695
1518.282108066095,1518.282108066095,1.0001291292383248,0.0002551013322288504
1518.2890527427837,1518.2890527427837,0.9997024412632225,0.00025475874919579324
1518.2959974194725,1518.2959974194725,1.0001522629216972,0.0002549419540981499
1518.3029420957887,1518.3029420957887,1.0000158050950176,0.0002549005228911539
1518.3098867723843,1518.3098867723843,0.9999277153520334,0.000254880394746392
1518.318220384411,1518.318220384411,1.000240949407445,0.0002548507234219818
1518.3251650607267,1518.3251650607267,1.0000689347204907,0.0002546713051425949
1518.332109737323,1518.332109737323,1.0000608289852122,0.0002547746068641594
1518.3390544136387,1518.3390544136387,1.0001013484335177,0.00025460893896093225
1518.3459990902343,1518.3459990902343,1.0001128407124233,0.00025473271187874565
1518.3529437664577,1518.3529437664577,0.9997602731396841,0.00025455623718111066
1518.3598884428668,1518.3598884428668,0.999822681758968,0.0002545260298442177
1518.366833119183,1518.366833119183,0.9997185432917643,0.00025443789715522575
1518.373777795499,1518.373777795499,0.9998525166681477,0.00025446186655579505
1518.380722471722,1518.380722471722,0.9999659045293049,0.00025437533147373446
1518.3876671479452,1518.3876671479452,1.0001969481097661,0.0002544309663577856
1518.3946118240751,1518.3946118240751,1.0002670192329306,0.00025433172257909416
1518.4015565002046,1518.4015565002046,1.000160488799728,0.000254396458512162
1518.408501176335,1518.408501176335,1.000270307276707,0.00025418074631648405
1518.4162792134816,1518.4162792134816,1.000123154153412,0.0002541044612735338
1518.4237794636533,1518.4237794636533,0.9996084718648419,0.0002541325648614659
1518.430724139597,1518.430724139597,1.0000547579896415,0.0002540806785774049
1518.4376688155405,1518.4376688155405,0.999452468169254,0.0002539909951101836
1518.444613491484,1518.444613491484,0.9999935622684551,0.00025398264044163737
1518.4515581673347,1518.4515581673347,0.9999611451662724,0.0002541007565329901
1518.4585028430922,1518.4585028430922,1.0004205103438701,0.0002541172352205157
1518.4668364540944,1518.4668364540944,0.9999369172214465,0.00025380911020083963
1518.4737811297582,1518.4737811297582,1.0000738979482997,0.00025407569721144936
1518.4807258055157,1518.4807258055157,1.0001916259219246,0.00025402543764023987
1518.4876704810872,1518.4876704810872,0.9997594381023542,0.00025392597828436346
1518.4946151568442,1518.4946151568442,1.0004284337116611,0.00025399187325613793
1518.5015598323225,1518.5015598323225,0.9997749365245412,0.00025389322035849034
1518.5085045078936,1518.5085045078936,0.9998474962055439,0.00025379668314928197
1518.5154491831852,1518.5154491831852,0.9998974031653096,0.0002538308226962583
1518.522393858663,1518.522393858663,0.9998920148439796,0.0002538382253831223
1518.529338534048,1518.529338534048,0.9998108189633284,0.0002538632346796604
1518.5362832093397,1518.5362832093397,1.0002350584989455,0.00025378642479358495
1518.5432278846315,1518.5432278846315,1.0000226616179155,0.0002538868996924535
1518.5501725599233,1518.5501725599233,1.000158143417317,0.0002538748264562914
1518.557117235029,1518.557117235029,1.0003710435167616,0.0002538362585710018
1518.5640619101346,1518.5640619101346,0.9999342260713575,0.00025385550112627805
1518.5710065853327,1518.5710065853327,0.9996384831726562,0.0002538295866342545
1518.5779512602521,1518.5779512602521,0.9998447601493836,0.00025376481811660616
1518.5848959353575,1518.5848959353575,0.9999609603206109,0.00025367247592263966
1518.591840610277,1518.591840610277,0.9999255281939629,0.0002536752391221257
1518.5987852851026,1518.5987852851026,1.0002339294417057,0.00025376257895187026
1518.605729960022,1518.605729960022,0.9999912393329744,0.00025381942320842074
1518.612674634755,1518.612674634755,0.9996125686615687,0.0002537171591525633
1518.6196193094877,1518.6196193094877,1.000571955002544,0.0002538628037666375
1518.6265639842209,1518.6265639842209,0.9996087591134757,0.0002536102940812939
1518.6335086587676,1518.6335086587676,1.0005994791383501,0.00025394894217797994
1518.6404533334075,1518.6404533334075,1.0000173424547842,0.0002538815126320707
1518.6473980077676,1518.6473980077676,1.0001409957973206,0.00025382557142452136
1518.6543426824076,1518.6543426824076,0.9996590134662056,0.00025373451660458656
1518.6612873569543,1518.6612873569543,0.9998752937181546,0.0002537810317137995
1518.6682320313143,1518.6682320313143,0.9997946227936267,0.0002537586922808068
1518.6751767054889,1518.6751767054889,1.0003407270059812,0.00025377273607207074
1518.6821213795697,1518.6821213795697,0.9999769404078332,0.0002537712434840274
1518.68906605393,1518.68906605393,0.9999203736230722,0.0002538862473879746
1518.696010728011,1518.696010728011,1.0000428760211546,0.0002538452575500002
1518.7029554021854,1518.7029554021854,1.0001216167559384,0.0002538206599638164
1518.7099000760797,1518.7099000760797,0.9999283617718093,0.0002538465325241203
1518.7168447500676,1518.7168447500676,1.0002479142630698,0.0002537083564316641
1518.723789424056,1518.723789424056,0.9998385702067243,0.0002535953004308354
1518.7307340978575,1518.7307340978575,1.0002488473650015,0.00025381310281652356
1518.7376787715662,1518.7376787715662,1.0000270361604984,0.00025376365436729576
1518.7446234453676,1518.7446234453676,0.9998219225878918,0.00025382143049229795
1518.7515681190762,1518.7515681190762,0.999833389953233,0.0002537328096685017
1518.7585127926914,1518.7585127926914,1.0001852005217746,0.00025380925635833405
1518.7654574663068,1518.7654574663068,1.000367324615992,0.0002538505702169486
1518.7724021397357,1518.7724021397357,1.000196539215485,0.0002537498358750501
1518.779346813165,1518.779346813165,1.000099856032455,0.00025371292552555286
1518.786291486594,1518.786291486594,0.9999245642351386,0.00025378439692087237
1518.7932361599296,1518.7932361599296,1.0002389209563647,0.0002538217619915949
1518.8001808330796,1518.8001808330796,1.0004867013034766,0.00025371656850503506
1518.8071255063223,1518.8071255063223,0.999571347473249,0.0002537414461318594
1518.814070179472,1518.814070179472,1.0000304037296137,0.00025382352705724754
1518.8210148526218,1518.8210148526218,0.9997336736658171,0.00025383570549164026
1518.8279595255856,1518.8279595255856,1.0002646348549376,0.0002537773517554447
1518.8349041985487,1518.8349041985487,0.9998982187561112,0.0002537841184960586
1518.841848871419,1518.841848871419,1.000443888526827,0.0002537798478466637
1518.8487935441963,1518.8487935441963,1.0000283455971797,0.00025384472919974435
1518.8557382169734,1518.8557382169734,0.9998501228610822,0.00025379559260855784
1518.8626828897504,1518.8626828897504,1.0003895909713414,0.0002539033765322831
1518.869627562341,1518.869627562341,1.0005826641706408,0.00025392874893868337
1518.8765722349322,1518.8765722349322,1.0003966152981494,0.0002539323268205763
1518.883516907523,1518.883516907523,1.0007543054347054,0.00025397534225626476
1518.8904615799274,1518.8904615799274,1.0003391972446103,0.0002539370752312453
1518.8974062522389,1518.8974062522389,0.9987403259398622,0.00025367221370406446
1518.9043509246437,1518.9043509246437,0.998784707611561,0.0002538232628931885
1518.911295596862,1518.911295596862,0.998272149040966,0.0002537639663060073
1518.9182402691736,1518.9182402691736,0.9995142513901737,0.0002540381169674142
1518.9251849412058,1518.9251849412058,0.9989978703122377,0.00025398358846986837
1518.9321296132377,1518.9321296132377,0.9985293765051189,0.0002539714375574318
1518.9390742852697,1518.9390742852697,0.9987445570794637,0.0002539843037852155
1518.946018957302,1518.946018957302,0.9984482634483207,0.0002538976399192949
1518.9529636289615,1518.9529636289615,0.9987087255588827,0.0002539241952332711
1518.959908300901,1518.959908300901,0.9987038806663169,0.0002538573285386341
1518.96685297256,1518.96685297256,0.9991158857145914,0.00025399625368306065
1518.9737976442198,1518.9737976442198,0.9992787033361576,0.00025405332265923555
1518.9807423158795,1518.9807423158795,0.9990746599675461,0.00025409644821988524
1518.9876869873526,1518.9876869873526,0.9990448709637201,0.00025402596544565957
1518.9946316589187,1518.9946316589187,0.9988862988026599,0.0002539222576712022
1519.001576330206,1519.001576330206,0.9990268328514158,0.0002539520234113389
1519.0085210015861,1519.0085210015861,0.9990482797083958,0.0002539949055748377
1519.01546567278,1519.01546567278,0.9987714922242716,0.00025388161109883496
1519.0224103440673,1519.0224103440673,0.9985645559587566,0.0002537591746713312
1519.0293550151678,1519.0293550151678,0.9982457528259012,0.00025371285450304174
1519.0362996861757,1519.0362996861757,0.9997647687136787,0.00025386441051650406
1519.043244357276,1519.043244357276,1.0007345314922458,0.0002540263652420594
1519.0501890280977,1519.0501890280977,1.0004245210760643,0.00025388247667030005
1519.0571336990124,1519.0571336990124,0.9999444705123686,0.0002538394673660398
1519.0640783697404,1519.0640783697404,1.000374139690051,0.0002539315289305935
1519.0710230404686,1519.0710230404686,1.0003790663330592,0.0002539015603704605
1519.0779677111036,1519.0779677111036,1.0001000987429396,0.00025385418543016593
1519.0849123816456,1519.0849123816456,1.0002043804871472,0.00025390013382120644
1519.0918570520944,1519.0918570520944,0.9995665475681716,0.0002537863541591331
1519.0988017226364,1519.0988017226364,0.9997833193115488,0.00025382010502430146
1519.1057463929924,1519.1057463929924,0.9998533303125008,0.00025380653400181025
1519.1126910633477,1519.1126910633477,0.9999421471350105,0.0002538353807946363
1519.1196357335173,1519.1196357335173,1.0000460010369505,0.00025384029202731614
1519.1265804035936,1519.1265804035936,1.0001682597080597,0.0002538258809182687
