time,time,flux,flux_err
1410.9099192792953,1410.9099192792953,1.0001036455061927,0.002943062357834191
1410.9182528816025,1410.9182528816025,0.9990581218337334,0.0029388318286361448
1410.9258920168645,1410.9258920168645,0.9988735478887383,0.0026851730866810043
1410.9328366852205,1410.9328366852205,0.9993905062102361,0.002683617272548223
1410.9397813534847,1410.9397813534847,1.0018914943521762,0.002686463171786141
1410.946726021701,1410.946726021701,0.9966910105398243,0.0026824273175024287
1410.9536706898245,1410.9536706898245,0.99981327770513,0.002684825508616237
1410.9608931445523,1410.9608931445523,0.9992312035919302,0.0026831600855409627
1410.9703378929953,1410.9703378929953,0.9998433814877234,0.0026827802176944684
1410.9856161621221,1410.9856161621221,0.9986576490470547,0.0026856423980595543
1410.9925608297806,1410.9925608297806,1.004846388003063,0.0026842621914222606
1411.0033945111034,1411.0033945111034,1.0034194789231419,0.0026822015786625987
1411.0120058987109,1411.0120058987109,0.9925610309465126,0.0026802475850274963
1411.0189505660894,1411.0189505660894,0.9993865472443515,0.002683885520292915
1411.0258952333284,1411.0258952333284,0.9960072706640192,0.0026800261168996057
1411.0328399004275,1411.0328399004275,0.9998221839230025,0.0026829260380374694
1411.0397845675263,1411.0397845675263,0.9966035608290789,0.0026817895834057278
1411.0467292344863,1411.0467292344863,1.004401103894213,0.0026827680207480633
1411.0550628346973,1411.0550628346973,1.0000622752504191,0.002680952483001863
1411.0620075014715,1411.0620075014715,1.0014988263311728,0.002682853161794458
1411.0689521681045,1411.0689521681045,0.9998385074964785,0.002682948416421727
1411.0758968346913,1411.0758968346913,0.9998259773989953,0.0026823315926678927
1411.0828415010926,1411.0828415010926,1.0000299918128301,0.002681933753414626
1411.0897861675858,1411.0897861675858,1.0036435251324594,0.0026835610776321565
1411.0967308338475,1411.0967308338475,1.0004156486938984,0.0026848353662621205
1411.1036754999684,1411.1036754999684,0.998110647240573,0.0026823382078069876
1411.1106201660432,1411.1106201660432,0.9969378307266862,0.0026835411818631636
1411.1175648320252,1411.1175648320252,1.0017175143810175,0.002683341131596749
1411.1245094978665,1411.1245094978665,0.9994083717682395,0.0026835696016559918
1411.131454163709,1411.131454163709,0.9992983770436336,0.002679952367386376
1411.1383988293644,1411.1383988293644,1.0025563531981818,0.002683280724168042
1411.1453434949267,1411.1453434949267,1.005066955613166,0.0026784811342690706
1411.15228816035,1411.15228816035,0.9970693334723204,0.002678231072874772
1411.1592328257725,1411.1592328257725,0.9986473569051469,0.002678354989300098
1411.166177491056,1411.166177491056,1.000429614136951,0.002677935560934688
1411.1731221561993,1411.1731221561993,0.9977114050608618,0.002677099615221168
1411.180066821296,1411.180066821296,1.0021475314956614,0.00267725022231077
1411.1870114861606,1411.1870114861606,1.0051472875261453,0.002678088308006537
1411.1939561509776,1411.1939561509776,0.9974377202938008,0.0026760465249077445
1411.2009008157488,1411.2009008157488,1.001431235882631,0.0026793258438336585
1411.2078454803334,1411.2078454803334,0.9973988307923587,0.0026799067551181474
1411.2147901448711,1411.2147901448711,0.9987036357357599,0.0026792683802474757
1411.2217348093163,1411.2217348093163,1.0014280470317591,0.002679377595896911
1411.2286794736212,1411.2286794736212,0.9967333866383992,0.002678143773980661
1411.2356241378338,1411.2356241378338,1.0052208306943855,0.002680324785625835
1411.2425688018595,1411.2425688018595,0.9969543116719033,0.0026792787835244174
1411.249513465978,1411.249513465978,0.9989149856846582,0.0026801092229703665
1411.2564581297252,1411.2564581297252,0.9958470827906343,0.0026764137914487146
1411.2634027935178,1411.2634027935178,1.0052035187397512,0.002678435180127375
1411.2703474571717,1411.2703474571717,0.9988158730999552,0.0026801172510188724
1411.2772921206847,1411.2772921206847,1.0009172407232438,0.002677138826162359
1411.2842367841517,1411.2842367841517,1.0023969467942524,0.0026762579397691865
1411.2911814474328,1411.2911814474328,0.9981434724654932,0.002674891850804198
1411.2981261106202,1411.2981261106202,1.001090814731405,0.0026774323976803886
1411.3050707737618,1411.3050707737618,1.0009334220505548,0.0026778565988947933
1411.312015436716,1411.312015436716,0.9994121221144565,0.0026768319160339698
1411.3189600995784,1411.3189600995784,1.0014906612959873,0.0026748434420646072
1411.3259047623003,1411.3259047623003,0.9981322677417616,0.002675390757944206
1411.3328494250218,1411.3328494250218,0.9964054892472346,0.0026772505228547087
1411.3397940875116,1411.3397940875116,0.999773091706029,0.002676527732768356
1411.3467387499536,1411.3467387499536,1.0014109947522944,0.0026763631515221817
1411.35368341221,1411.35368341221,1.001603463212693,0.0026767184569829543
1411.3606280744202,1411.3606280744202,0.9986802128213196,0.0026763564524826767
1411.3675727364432,1411.3675727364432,1.00590470187717,0.002676876231396394
1411.3745173984673,1411.3745173984673,0.9992429149105488,0.002677045467455455
1411.3814620603039,1411.3814620603039,0.9998104085502533,0.002677078255911855
1411.3884067220483,1411.3884067220483,0.9975145857940635,0.002675469462950477
1411.395351383653,1411.395351383653,1.0009542767495576,0.002674733704622292
1411.4022960451173,1411.4022960451173,0.9975971921322214,0.0026739630088766465
1411.4092407065361,1411.4092407065361,0.995726966687071,0.002670954769808662
1411.4161853677674,1411.4161853677674,1.0027757293624013,0.002675432563605007
1411.423130028953,1411.423130028953,1.0015073664837506,0.0026751532334057574
1411.4300746899985,1411.4300746899985,0.9985511974407066,0.002672673581789335
1411.4370193508573,1411.4370193508573,1.0050531987169173,0.0026748642638512125
1411.4439640117175,1411.4439640117175,1.000467116148069,0.002673006816320804
1411.4509086723435,1411.4509086723435,0.9973091494595133,0.002670380988106868
1411.4578533329702,1411.4578533329702,1.0025637146537008,0.0026697517851644874
1411.464797993411,1411.464797993411,0.9995550534444806,0.0026702978755430967
1411.471742653711,1411.471742653711,0.9940662559616322,0.0026695436562243495
1411.4786873139653,1411.4786873139653,0.9972742237018675,0.0026688706170664
1411.4856319740327,1411.4856319740327,1.0033970874893083,0.0026716890598023485
1411.4925766340543,1411.4925766340543,1.0070184309785366,0.002673105599796602
1411.4995212939352,1411.4995212939352,0.998667293431262,0.0026706478197186276
1411.5064659536306,1411.5064659536306,0.9952506139017443,0.002672052362764767
1411.5134106132796,1411.5134106132796,1.002338610884904,0.0026701911278455923
1411.5203552727878,1411.5203552727878,1.0017881301162936,0.002671463645877766
1411.527299932251,1411.527299932251,0.9989164944943602,0.0026699455043833107
1411.5342445915267,1411.5342445915267,1.0002447954158584,0.002671008368949766
1411.5411892506168,1411.5411892506168,0.9944590591529314,0.0026689738734633215
1411.5481339097066,1411.5481339097066,1.0051869526605806,0.0026716402716133202
1411.5550785685632,1411.5550785685632,0.996800726827091,0.0026717565345346066
1411.562023227421,1411.562023227421,0.997467811592456,0.002671604976756195
1411.5689678860913,1411.5689678860913,1.00076860223759,0.0026703871093074682
1411.5759125446693,1411.5759125446693,1.0078670185573688,0.002673908807861001
1411.582857203107,1411.582857203107,0.9988985190778454,0.0026748913402332613
1411.5898018614514,1411.5898018614514,0.9982552658143403,0.0026743405763926752
1411.5967465196572,1411.5967465196572,0.9974598599159462,0.0026745717962504737
1411.6036911777685,1411.6036911777685,0.9999821508647907,0.002676991798886226
1411.6106358357415,1411.6106358357415,1.0032223652890238,0.002679341870282773
1411.6175804936204,1411.6175804936204,0.9998240919977117,0.0026798042464457558
1411.6245251513126,1411.6245251513126,0.9991115425186894,0.002676272034545066
1411.6314698090064,1411.6314698090064,1.000636044400407,0.002678321375570545
1411.6384144664657,1411.6384144664657,0.997420429178708,0.002677187374776484
1411.6453591238796,1411.6453591238796,0.9991991390542351,0.002678695414553505
1411.6523037811069,1411.6523037811069,0.9989122574155009,0.002676724138765099
1411.6592484382406,1411.6592484382406,0.9992271463345925,0.002677856737234062
1411.6661930951886,1411.6661930951886,1.0020229482134497,0.0026760713036273723
1411.6731377521362,1411.6731377521362,1.0016739757561366,0.002674592245558316
1411.6800824089914,1411.6800824089914,0.9984853761053347,0.0026738022265803637
1411.6870270656595,1411.6870270656595,1.005517700473821,0.002673923384542809
1411.6939717222351,1411.6939717222351,0.9977047754166408,0.002673182357159738
1411.7009163787172,1411.7009163787172,0.9986604706543387,0.0026733521089678455
1411.707861035013,1411.707861035013,0.9972922746095094,0.002673787095090743
1411.7148056911694,1411.7148056911694,1.0042885742430492,0.0026764615670501384
1411.7217503472784,1411.7217503472784,1.0023559074044766,0.002673713239656867
1411.7286950032953,1411.7286950032953,0.9975534455819901,0.0026756486825655124
1411.7356396590787,1411.7356396590787,0.9966852280804922,0.0026788236021789112
1411.7425843148626,1411.7425843148626,0.998341334087462,0.0026786102255307283
1411.7495289704134,1411.7495289704134,1.0041236811427705,0.002680883739552665
1411.7564736258707,1411.7564736258707,0.9980404537318528,0.00268017014818482
1411.763418281283,1411.763418281283,0.9966168689551826,0.002677513484745143
1411.7703629365537,1411.7703629365537,1.0073694473196626,0.00268173576453046
1411.7773075916857,1411.7773075916857,1.003782300525074,0.0026798271917924483
1411.7842522466776,1411.7842522466776,0.9911354222884071,0.00267832265916768
1411.7911969015763,1411.7911969015763,0.9973486635875759,0.002677583710615106
1411.7981415563825,1411.7981415563825,1.0010994810735987,0.0026811629643094313
1411.8050862110945,1411.8050862110945,1.0026803883748698,0.002679766015079529
1411.8120308655284,1411.8120308655284,0.9982533418056562,0.0026784319439901705
1411.8189755200078,1411.8189755200078,1.004815224530918,0.002679756419913007
1411.825920174348,1411.825920174348,0.9985288859057384,0.0026793005746241776
1411.8328648284555,1411.8328648284555,0.9988647962761836,0.002678046644415868
1411.8398094825625,1411.8398094825625,1.0020221266176186,0.0026806163827060225
1411.8467541365305,1411.8467541365305,0.9982812108756344,0.0026790561676883593
1411.853698790358,1411.853698790358,1.000290935715321,0.0026787708955464695
1411.860643444093,1411.860643444093,1.0012884560584059,0.0026818263520591904
1411.8675880976878,1411.8675880976878,1.0019085687761247,0.002683817652099765
1411.8745327512363,1411.8745327512363,0.9954925042284488,0.0026810896774427345
1411.881477404459,1411.881477404459,0.9989858618054743,0.0026792141955823815
1411.8884220577743,1411.8884220577743,1.0027734762471616,0.0026825336908719868
1411.8953667109042,1411.8953667109042,0.9989592654902294,0.0026792982078775395
1411.90231136394,1411.90231136394,0.9988991981625833,0.0026797149164299334
1411.9092560168374,1411.9092560168374,0.9979040824819088,0.0026788052995607267
1411.9162006695474,1411.9162006695474,1.0023770397530645,0.0026811844060200462
1411.9231453222576,1411.9231453222576,1.0013978187709704,0.002679658445698876
1411.9300899747818,1411.9300899747818,1.0014532156606062,0.002677227328484219
1411.9370346272121,1411.9370346272121,1.000629421322353,0.0026781418226294288
1411.9439792795042,1411.9439792795042,1.001463901240552,0.0026760871543084347
1411.950923931748,1411.950923931748,0.9957492726654266,0.002673798854785052
1411.95786858376,1411.95786858376,1.0000408068797735,0.002674642814499846
1411.964813235772,1411.964813235772,0.9968157310442727,0.002671480769784773
1411.971757887551,1411.971757887551,0.9992451303678976,0.0026731129931315
1411.9787025392836,1411.9787025392836,1.0001325241873988,0.00267110050688439
1411.9856471909227,1411.9856471909227,1.0062878415442482,0.0026740540971478917
1411.9925918424228,1411.9925918424228,0.9974557961414883,0.0026725633176843885
1411.9995364937822,1411.9995364937822,1.0007931246107722,0.0026728697109906544
1412.0064811450025,1412.0064811450025,1.0025398620692676,0.0026737785983617763
1412.0134257961297,1412.0134257961297,1.0007369893389162,0.0026727997745874628
1412.0203704472565,1412.0203704472565,1.0002926192455466,0.00267372287248079
1412.0273150981045,1412.0273150981045,0.9960080731677934,0.0026732003832919135
1412.0342597489516,1412.0342597489516,1.0012604020238505,0.002675956490566076
1412.0412043996134,1412.0412043996134,1.002089310962362,0.00267821960501587
1412.0481490501816,1412.0481490501816,0.994967146091516,0.0026755066126976125
1412.0550937006099,1412.0550937006099,0.9988792025041281,0.0026786363668356624
1412.062038350946,1412.062038350946,1.0002635388328946,0.002678965621685535
1412.0689830011875,1412.0689830011875,0.9987248966704785,0.0026792424715098547
1412.0759276512447,1412.0759276512447,1.0052879040133862,0.002683022225208464
1412.0828723012999,1412.0828723012999,0.9998555884852574,0.0026807371574800133
1412.089816951077,1412.089816951077,0.9991946336307622,0.002680860289676292
1412.0967616008534,1412.0967616008534,1.004560581499764,0.0026821163389304068
1412.1037062504902,1412.1037062504902,0.9995402229547775,0.0026795697078073263
1412.1106509000342,1412.1106509000342,0.9979649732032332,0.0026805186000752193
1412.1175955494843,1412.1175955494843,0.9958887635841716,0.002679430543560644
1412.1245401987028,1412.1245401987028,1.002470272924041,0.002680965472005858
1412.1314848479203,1412.1314848479203,0.9960950222052233,0.002681222428511965
1412.1384294969525,1412.1384294969525,0.9986214346427355,0.0026794318744609606
1412.1453741458906,1412.1453741458906,1.0019902396161702,0.0026783424568398236
1412.152318794689,1412.152318794689,1.002277238252208,0.0026772019574294497
1412.1592634434883,1412.1592634434883,1.0010587451555526,0.00267857926429809
1412.1662080921,1412.1662080921,0.9943823059914292,0.0026759093365888893
1412.1731527405268,1412.1731527405268,0.9976847254798308,0.002675956636939206
1412.1800973889526,1412.1800973889526,0.9998330991984922,0.0026753046276596004
1412.1870420372397,1412.1870420372397,1.004476750135136,0.0026775634824038794
1412.1939866853397,1412.1939866853397,1.0021495220262522,0.0026750164729209096
1412.2009313333933,1412.2009313333933,0.9993693814778963,0.0026770294289571337
1412.207875981308,1412.207875981308,0.9987543235764029,0.0026775204238056465
1412.214820629128,1412.214820629128,0.9974242483778365,0.002677653765089432
1412.2217652768566,1412.2217652768566,0.9961796449048059,0.0026775970500627776
1412.2287099243977,1412.2287099243977,1.0011210221512896,0.0026752434095333533
1412.2356545718462,1412.2356545718462,1.0021306736620235,0.0026769344866018974
1412.2425992192013,1412.2425992192013,1.001248188029913,0.002676905179322431
1412.2495438664632,1412.2495438664632,1.0008750706663947,0.0026789209996230536
1412.257599657114,1412.257599657114,0.9989201958461276,0.0026779484870670988
1412.2667665911072,1412.2667665911072,0.9981125304063891,0.002673856677031094
1412.276766882537,1412.276766882537,1.001982855798038,0.0026785011178837347
1412.2876005313105,1412.2876005313105,1.0027852510152733,0.0026747151983878966
1412.29537853545,1412.29537853545,1.0012185089144505,0.0026757811652518538
1412.3023231817347,1412.3023231817347,0.9975180193056566,0.0026766854360089415
1412.309267828065,1412.309267828065,0.9960236869144078,0.0026734482310623005
1412.3162124742098,1412.3162124742098,1.0000952532593608,0.002673960200820744
1412.323157120261,1412.323157120261,0.9968650415464385,0.0026708822747653787
1412.3301017661724,1412.3301017661724,1.0009968289483064,0.0026700994142403395
1412.3370464119917,1412.3370464119917,1.0001070419554192,0.002669081554612679
1412.34399105767,1412.34399105767,1.0026278377782532,0.0026691154400686817
1412.3509357033026,1412.3509357033026,1.0006032904539996,0.0026675350711249674
1412.3578803488413,1412.3578803488413,0.9998408470554008,0.0026679188633683413
1412.3648249941482,1412.3648249941482,1.0026501249313036,0.0026679572341436852
1412.3717696394542,1412.3717696394542,1.0042495499223796,0.0026695682681566143
1412.3787142845279,1412.3787142845279,0.9983698421058375,0.002669247793305123
1412.3856589296013,1412.3856589296013,1.0031291720906919,0.0026736658897299663
1412.3926035745346,1412.3926035745346,0.9960719427016207,0.00267143073658344
1412.3995482193295,1412.3995482193295,0.9962598382354354,0.0026725153382287804
1412.406492864076,1412.406492864076,0.9982755201144876,0.0026743707641840734
1412.4134375086383,1412.4134375086383,1.002466655417948,0.002673874084312356
1412.4203821531526,1412.4203821531526,1.0028988850291287,0.0026765302478817103
1412.4273267974809,1412.4273267974809,1.0003905049901851,0.00267537139907801
1412.4342714417628,1412.4342714417628,0.9964706171352967,0.002673908430378147
1412.4412160859515,1412.4412160859515,1.0022962434523615,0.0026715319124693505
1412.4481607299078,1412.4481607299078,1.0012822050102792,0.0026699413137626533
1412.4551053738628,1412.4551053738628,0.9979390293456751,0.0026685456924616918
1412.4620500176334,1412.4620500176334,0.9975488298526036,0.0026677260883670247
1412.4689946614023,1412.4689946614023,1.001661174816953,0.0026688816641382835
1412.4759393050329,1412.4759393050329,1.00441065912887,0.0026681676469497333
1412.4828839484762,1412.4828839484762,1.0003182042082925,0.002666507223177343
1412.489828591873,1412.489828591873,1.002629112090061,0.002669778784533987
1412.496773235131,1412.496773235131,1.0005943884275044,0.002666359072679479
1412.5037178782945,1412.5037178782945,0.9953992415112534,0.002666068401615926
1412.5106625213666,1412.5106625213666,1.0007277780793893,0.0026710414912614385
1412.5176071642975,1412.5176071642975,0.9964658091165999,0.002667795100511742
1412.5245518070897,1412.5245518070897,0.9965689490688545,0.002671205131762136
1412.531496449788,1412.531496449788,1.0038231037429375,0.002672326810143447
1412.5384410924398,1412.5384410924398,1.0026100928394652,0.002673515811626051
1412.5453857349057,1412.5453857349057,1.005920411820429,0.0026750115441030006
1412.552330377325,1412.552330377325,0.9967269387925507,0.002672377344937606
1412.559275019558,1412.559275019558,0.9974160407980677,0.002673758842318282
1412.5662196617907,1412.5662196617907,0.9936350722340549,0.0026693069289730484
1412.573164303838,1412.573164303838,1.003148931552227,0.0026731399781078228
1412.5801089457912,1412.5801089457912,1.0013522277495421,0.0026734358710001904
1412.5870535876054,1412.5870535876054,1.0000172957449807,0.0026741649715601055
1412.593998229419,1412.593998229419,1.0025145873773549,0.002676006714893881
1412.600942871,1412.600942871,0.998849880209147,0.0026750078416193706
1412.607887512488,1412.607887512488,1.0007225070718233,0.0026749775942182374
1412.6148321539288,1412.6148321539288,0.9958096667262721,0.002672772524024579
1412.6217767952312,1412.6217767952312,1.0087669818396123,0.0026776085196812604
1412.628721436439,1412.628721436439,0.9986976048699097,0.002675852562314217
1412.6356660775084,1412.6356660775084,1.000051969652812,0.0026767017155062177
1412.6426107185305,1412.6426107185305,0.9950642174666348,0.002676859152893796
1412.6495553593666,1412.6495553593666,0.9986082245582366,0.002678227035861127
1412.6565000001558,1412.6565000001558,0.9983141023519657,0.0026784840981394706
1412.6634446408054,1412.6634446408054,1.0021038469391796,0.002679365743233481
1412.670389281362,1412.670389281362,0.999194830119583,0.0026770300982074282
1412.6773339217784,1412.6773339217784,1.0030225986026824,0.0026776091559888486
1412.6842785621495,1412.6842785621495,0.9996710986554704,0.0026768644357286187
1412.6912232023794,1412.6912232023794,1.0007781352867764,0.0026767375934737886
1412.6981678424713,1412.6981678424713,1.002064572212817,0.002676801786871293
1412.7051124825152,1412.7051124825152,0.9957966176216415,0.00267315654131179
1412.71205712242,1412.71205712242,1.0022283876999565,0.002673255933692455
