time,time,flux,flux_err
1570.3188714031246,1570.3188714031246,0.9998194906209349,0.0002686380564387934
1570.3281308703215,1570.3281308703215,0.9998645533774063,0.00026784108536951457
1570.3364643909372,1570.3364643909372,0.999757793894379,0.0002674946981798546
1570.3449368036727,1570.3449368036727,0.9997654669838051,0.00024344044951021522
1570.352436972366,1570.352436972366,0.9996949246418554,0.00024347263871465653
1570.359659357137,1570.359659357137,0.9998087749259892,0.00024309378590129963
1570.3677150940707,1570.3677150940707,1.0002104465505528,0.0002427437539002993
1570.3754930470825,1570.3754930470825,1.0003283032962984,0.00024239963233173406
1570.383548784132,1570.383548784132,0.9999978179093008,0.00024197380276207216
1570.3913267372832,1570.3913267372832,1.0004478890210133,0.00024174536003797724
1570.4004936106978,1570.4004936106978,1.0001754257834288,0.00024145874498153924
1570.4079937799502,1570.4079937799502,1.0002776978704644,0.0002412229883823062
1570.4149383811712,1570.4149383811712,1.0004691137283612,0.0002409186459242021
1570.421882982439,1570.421882982439,1.0005845379795568,0.00024053997434390532
1570.4316054242795,1570.4316054242795,1.0010708818776473,0.0002406411253310881
1570.4410500821987,1570.4410500821987,1.0002362162383607,0.0002402251740955317
1570.4496613880706,1570.4496613880706,1.0001869480729937,0.0002400967004683705
1570.4566059896176,1570.4566059896176,1.0002538436857624,0.00024002835103862323
1570.4635505911656,1570.4635505911656,0.9998361608769321,0.00023980116431292334
1570.4704951928068,1570.4704951928068,0.9998296747584225,0.00023982267080547838
1570.477439794517,1570.477439794517,1.0000560127033566,0.0002395272866160638
1570.4843843962503,1570.4843843962503,0.9997107420562857,0.0002393166683335278
1570.4913289980536,1570.4913289980536,0.9999815005000366,0.00023922596521047025
1570.4982735999042,1570.4982735999042,1.000080738348159,0.00023919796873996934
1570.5052182018014,1570.5052182018014,0.9998705429217631,0.00023883743750686693
1570.5121628037214,1570.5121628037214,1.0002088396546194,0.00023910712526591977
1570.5191074057107,1570.5191074057107,1.0002682958823725,0.0002390766672509132
1570.527440928196,1570.527440928196,0.9998851214895691,0.00023874153794303153
1570.5343855302333,1570.5343855302333,1.000037447915787,0.0002386307087287514
1570.5432746210292,1570.5432746210292,0.9996317768700335,0.00023865786917727318
1570.5510525754605,1570.5510525754605,1.0004000577263235,0.0002385243128875466
1570.5579971777295,1570.5579971777295,0.9999989630929346,0.0002384206883577402
1570.564941779999,1570.564941779999,0.9998672354259167,0.00023848901770636048
1570.571886382339,1570.571886382339,0.9997532950493515,0.0002383982781848651
1570.5788309847242,1570.5788309847242,1.000206037828165,0.00023838102412258822
1570.5857755871327,1570.5857755871327,0.9999344435594943,0.00023827392536753116
1570.5927201895881,1570.5927201895881,0.9997032872051974,0.0002381775814474346
1570.5996647920906,1570.5996647920906,1.0000460686586923,0.00023816476865459678
1570.6074427469416,1570.6074427469416,1.0005600688506973,0.0002381638473481773
1570.6149429177303,1570.6149429177303,1.0001131298023522,0.0002379933791123644
1570.6218875203717,1570.6218875203717,0.9998963062153561,0.00023788760937936006
1570.629665475339,1570.629665475339,0.9998115736210993,0.00023774252154211894
1570.6371656462684,1570.6371656462684,1.0000517440424392,0.0002377074255883041
1570.6441102490267,1570.6441102490267,0.9999807916235456,0.00023774423349487054
1570.6510548518077,1570.6510548518077,0.9997365265899558,0.00023770072871568592
1570.6579994546587,1570.6579994546587,0.999730300294912,0.0002374714374180547
1570.66494405751,1570.66494405751,1.0000754103517748,0.00023740808705251351
1570.671888660409,1570.671888660409,0.9998556641728692,0.00023738302294314283
1570.6788332633296,1570.6788332633296,1.00031518016089,0.00023730380917208623
1570.6857778663204,1570.6857778663204,0.9998329363980931,0.00023714986174761015
1570.6927224693345,1570.6927224693345,0.9998121568155204,0.00023716839009493788
1570.6996670723488,1570.6996670723488,1.0003007888582431,0.00023705907318844274
1570.7066116754338,1570.7066116754338,0.9998521184763085,0.0002369141223888786
1570.7135562785177,1570.7135562785177,1.0000564896924076,0.00023692556290555734
1570.7205008816716,1570.7205008816716,0.9998703368382484,0.00023678209193895723
1570.7274454848252,1570.7274454848252,1.000335518827044,0.00023667963371673726
1570.7343900880492,1570.7343900880492,1.000093360345327,0.00023654832196664342
1570.7413346912506,1570.7413346912506,0.9996917681428711,0.00023646104782066758
1570.748279294544,1570.748279294544,0.9998640184314749,0.00023630026101701757
1570.7552238978374,1570.7552238978374,0.9998329510913502,0.00023625083756575443
1570.762168501131,1570.762168501131,1.0000157029936112,0.00023611174574949414
1570.769113104518,1570.769113104518,0.9996523114741571,0.00023594162841259272
1570.7760577078823,1570.7760577078823,1.000138550071012,0.0002359074032273113
1570.7830023113154,1570.7830023113154,1.000381802455335,0.00023586600423598946
1570.7899469147487,1570.7899469147487,1.0002110923262253,0.00023577627402295926
1570.7968915182282,1570.7968915182282,0.9997244643799895,0.000235751257133294
1570.8038361217082,1570.8038361217082,1.0002415600352879,0.00023557382916655902
1570.8107807252359,1570.8107807252359,0.9998816224403688,0.00023552644352991384
1570.8177253287852,1570.8177253287852,1.0003968874044429,0.0002354781578349475
1570.8246699323813,1570.8246699323813,1.0000106467498162,0.00023537084016804185
1570.8316145359775,1570.8316145359775,0.9999232723647445,0.00023535459636756816
1570.8385591396204,1570.8385591396204,0.9997609647108213,0.00023531096379901086
1570.8455037432645,1570.8455037432645,1.0000645558761154,0.00023525102017111078
1570.8524483469537,1570.8524483469537,1.0000057337930974,0.00023526565392054528
1570.8593929506658,1570.8593929506658,0.9997024474395733,0.00023511698702180918
1570.8663375544018,1570.8663375544018,0.9999939551379166,0.0002351598578867494
1570.8732821581611,1570.8732821581611,0.9997089427822063,0.00023507447020832558
1570.8816156826736,1570.8816156826736,1.0004599191734365,0.0002350973467813421
1570.8885602865257,1570.8885602865257,0.9997813843099005,0.00023495608823290295
1570.8955048903076,1570.8955048903076,1.000297985115959,0.00023500417412528353
1570.9024494941834,1570.9024494941834,1.000166965028718,0.0002349351927012823
1570.9093940980595,1570.9093940980595,0.9997022237143625,0.0002348542454709257
1570.9163387019357,1570.9163387019357,0.9999613119912866,0.00023479645012098333
1570.9232833059045,1570.9232833059045,0.9999581517047172,0.00023474106733501523
1570.9302279098265,1570.9302279098265,1.0002278963753248,0.00023467982685251542
1570.9371725137953,1570.9371725137953,1.0000360429760093,0.00023469728496280495
1570.944117117788,1570.944117117788,1.0000707033736838,0.00023450570584297565
1570.9510617218039,1570.9510617218039,1.0002612948833391,0.00023449394131599223
1570.958006325819,1570.958006325819,0.9997407842572953,0.0002344435655771575
1570.9649509298342,1570.9649509298342,0.999489359848868,0.00023436950281146497
1570.9718955339192,1570.9718955339192,1.0005368945224933,0.00023434857162599253
1570.9788401380047,1570.9788401380047,0.9993952630532927,0.0002342945038160943
1570.985784742114,1570.985784742114,1.000353940283252,0.00023440158721293292
1570.9927293462226,1570.9927293462226,0.9999231082845853,0.00023425534465636418
1570.9996739504008,1570.9996739504008,0.999835128394959,0.0002341509740532105
1571.0066185545093,1571.0066185545093,1.0003632206704052,0.00023414313913743668
1571.013563158734,1571.013563158734,1.0001353751154674,0.00023400790214871855
1571.02050776289,1571.02050776289,1.0002233023216296,0.00023392515990037526
1571.0274523671153,1571.0274523671153,1.000099407755173,0.00023395684886513813
1571.0343969713397,1571.0343969713397,0.9992480482622266,0.00023375340640048432
1571.041341575588,1571.041341575588,0.9999527697589959,0.0002338028381020355
1571.048286179836,1571.048286179836,1.0003059577376896,0.0002336779150839856
1571.0552307841315,1571.0552307841315,0.9996851300176843,0.00023362163685009015
1571.0621753884034,1571.0621753884034,0.9999037445801247,0.00023356447881646734
1571.0691199927214,1571.0691199927214,1.0000754012370094,0.00023349515523210415
1571.0760645970622,1571.0760645970622,1.0000420498700193,0.0002334495933434126
1571.08300920138,1571.08300920138,1.0007828806245755,0.000233433931462197
1571.0899538057456,1571.0899538057456,0.9994067469474623,0.00023325021012447859
1571.0968984101105,1571.0968984101105,1.0000632259470776,0.00023324650362490152
1571.1038430144984,1571.1038430144984,0.9996702145856105,0.0002331937262858456
1571.1107876188862,1571.1107876188862,1.0000344976067284,0.0002331690961341098
1571.1177322232968,1571.1177322232968,1.0001817947921272,0.00023313592127660604
1571.1246768277554,1571.1246768277554,0.9998923516669471,0.0002330620994584731
1571.1316214322137,1571.1316214322137,1.0005247905556756,0.00023305271261783825
1571.1385660366711,1571.1385660366711,1.0000298382963297,0.00023305402852077275
1571.145510641129,1571.145510641129,0.9999014963746063,0.00023295040744443192
1571.1524552455862,1571.1524552455862,0.9998849099687979,0.0002329695002536544
1571.1593998500443,1571.1593998500443,0.9996961427069893,0.00023284532299295326
1571.166344454526,1571.166344454526,0.9998981986400137,0.00023290557226754256
1571.173289059077,1571.173289059077,0.9999213540287833,0.00023280147767386545
1571.1802336635583,1571.1802336635583,1.0002119853097953,0.00023278382801491252
1571.187178268109,1571.187178268109,1.000178884617462,0.00023281015014779122
1571.1941228726596,1571.1941228726596,1.0002972999451485,0.0002327758510357059
1571.2010674772114,1571.2010674772114,0.9998400490327599,0.00023271784967569798
1571.2080120817857,1571.2080120817857,0.9997394618616084,0.0002326289630381297
1571.2149566863598,1571.2149566863598,1.0003451340505418,0.00023274999334075094
1571.2219012909568,1571.2219012909568,1.0000980140315319,0.0002325731254498167
1571.228845895531,1571.228845895531,0.9999878666728792,0.0002326324643622863
1571.2357905001759,1571.2357905001759,0.9999938028828824,0.0002325560600401733
1571.2427351047736,1571.2427351047736,1.0000208995505688,0.00023256670814441002
1571.2496797093943,1571.2496797093943,0.9997360296909337,0.0002324490056943432
1571.256624314038,1571.256624314038,1.0000117674689109,0.0002325253916590472
1571.263568918705,1571.263568918705,0.9997057742106252,0.00023241949743998993
1571.2705135233493,1571.2705135233493,1.0001879298306577,0.00023245009584801804
1571.2774581279941,1571.2774581279941,1.0001421927812317,0.0002323838342711215
1571.2844027326614,1571.2844027326614,1.000036594771725,0.00023240390943572034
1571.291347337352,1571.291347337352,0.9999881397924216,0.00023234329830914825
1571.2982919420422,1571.2982919420422,1.0000448662089403,0.00023232471068164229
1571.3052365467329,1571.3052365467329,1.000121895751644,0.00023228168319977243
1571.3121811514475,1571.3121811514475,1.0002587043222073,0.00023225608743147804
1571.3191257561614,1571.3191257561614,0.9997819670274453,0.0002321378823019001
1571.326070360852,1571.326070360852,0.9995632946567159,0.00023211889966149034
1571.3330149655887,1571.3330149655887,1.0001303882216246,0.00023219705642978469
1571.339959570326,1571.339959570326,1.000070998580536,0.00023213222997203476
1571.3469041750404,1571.3469041750404,1.0000338786355976,0.00023205870573050113
1571.353848779778,1571.353848779778,0.9997644247239439,0.00023204833750409016
1571.3607933845385,1571.3607933845385,1.0001440516183862,0.00023200719466339226
1571.3677379892756,1571.3677379892756,1.000580548461826,0.00023209834819443734
1571.3746825940823,1571.3746825940823,1.0000014298829845,0.00023200734056177177
1571.3816271988426,1571.3816271988426,0.99968668074206,0.0002318855681859479
1571.388571803604,1571.388571803604,0.9999722841849146,0.0002318502940167804
1571.3955164083877,1571.3955164083877,0.9998292623009641,0.0002318280439330707
1571.4024610131714,1571.4024610131714,0.9997470663710206,0.00023180382593927614
1571.409405617955,1571.409405617955,0.9998248257684207,0.00023179171961822042
1571.4163502227618,1571.4163502227618,1.000323490278322,0.0002317575759265971
1571.4232948275455,1571.4232948275455,1.0001768949507703,0.00023179249483508201
1571.4302394323536,1571.4302394323536,1.0001527587596286,0.00023174083116821658
1571.4371840371607,1571.4371840371607,1.0001201324248434,0.00023173399498557733
1571.444128641967,1571.444128641967,1.0002431928178905,0.00023165565338317205
1571.451073246774,1571.451073246774,0.9998946094447296,0.0002316493982613146
1571.4580178515812,1571.4580178515812,0.9997843954217128,0.00023162961394612112
1571.4649624564354,1571.4649624564354,0.999933607465891,0.00023160005321324644
1571.4719070612427,1571.4719070612427,1.000186846390546,0.0002317615806280221
1571.4788516660724,1571.4788516660724,0.9998733961594215,0.00023158710441422326
1571.485796270903,1571.485796270903,1.0001282974069023,0.00023169124950651572
1571.4927408757333,1571.4927408757333,1.0000807214943657,0.00023166985933861366
1571.4996854805868,1571.4996854805868,1.000232586203095,0.00023172132052896635
1571.5066300854412,1571.5066300854412,0.9998935292109777,0.0002316955889174758
1571.513574690248,1571.513574690248,0.999736416328655,0.00023170705427960457
1571.5205192950782,1571.5205192950782,1.0000152818365773,0.00023163383304667442
1571.5274638999317,1571.5274638999317,0.9999930399046576,0.0002317334837558335
1571.5344085048087,1571.5344085048087,0.9999888790745688,0.0002316529985056995
1571.5413531096629,1571.5413531096629,1.0001665678894565,0.00023169236562692146
1571.5482977145166,1571.5482977145166,1.000159901008581,0.00023157867610221574
1571.5552423193467,1571.5552423193467,0.9997312489330851,0.00023158336634569848
1571.5621869242,1571.5621869242,1.0004038851745083,0.0002317038384012494
1571.5691315290537,1571.5691315290537,1.000110115088901,0.0002316553276254075
1571.5760761339302,1571.5760761339302,1.000314573950477,0.00023164587792734367
1571.583020738785,1571.583020738785,0.9999382026259698,0.0002315741910777868
1571.589965343615,1571.589965343615,0.9997135077288937,0.00023152801614633885
1571.596909948515,1571.596909948515,1.000286673917946,0.00023165939370164098
1571.6038545533452,1571.6038545533452,0.9997944490963107,0.00023159333386714624
1571.6107991582217,1571.6107991582217,0.9994692427184011,0.00023150801882459654
1571.6177437630763,1571.6177437630763,0.9996703296022653,0.00023154878702707644
1571.62468836793,1571.62468836793,1.0002383746598373,0.0002316271461731054
1571.6316329728068,1571.6316329728068,1.0004499841317904,0.00023166427320694526
1571.6385775776603,1571.6385775776603,1.0002371668939491,0.0002316220271888452
1571.6455221825136,1571.6455221825136,0.9998846942675785,0.00023154859539083983
1571.6524667873905,1571.6524667873905,1.0003429165379423,0.00023157472985446364
1571.659411392245,1571.659411392245,1.0002523787683004,0.00023152972889149527
1571.6663559970752,1571.6663559970752,0.9994761931411261,0.00023153338451094665
1571.6733006019754,1571.6733006019754,1.0000609763163941,0.00023159786400022306
1571.6802452068055,1571.6802452068055,0.9997304426179783,0.00023149694799536828
1571.687189811659,1571.687189811659,0.9998210812628189,0.00023152752170517785
1571.6941344165125,1571.6941344165125,0.9997680439258456,0.00023149466778753453
1571.7010790213903,1571.7010790213903,1.0001659198356048,0.0002314712052324972
1571.708023626244,1571.708023626244,0.999928885692381,0.00023149658293230305
1571.7149682310742,1571.7149682310742,1.0001495412589234,0.00023146605022825577
1571.721912835927,1571.721912835927,1.000134315475393,0.0002315825173378018
1571.7288574407808,1571.7288574407808,1.0002867955023762,0.0002314514881537783
1571.7358020456115,1571.7358020456115,1.0002704212530735,0.00023145282029493353
1571.7427466504655,1571.7427466504655,0.9998965587404586,0.00023143324503134438
1571.7496912553192,1571.7496912553192,0.999580168043779,0.00023134497924475953
1571.7566358601493,1571.7566358601493,0.9999734842900129,0.0002314258100832015
1571.7635804649558,1571.7635804649558,1.0000595655910522,0.00023137822766769087
1571.7705250698098,1571.7705250698098,0.9996361232616984,0.00023129955947944988
1571.7774696746403,1571.7774696746403,0.9999942073321328,0.00023128698637751212
1571.784414279471,1571.784414279471,1.0002168006331302,0.00023131363760595892
1571.791358884278,1571.791358884278,1.0001666906967677,0.00023134419212218093
1571.798303489108,1571.798303489108,0.9999467357807964,0.00023127288819423895
1571.8052480939152,1571.8052480939152,1.0000990130939562,0.00023122780141535034
1571.8121926987453,1571.8121926987453,0.9997251483123717,0.00023124679157274426
1571.819137303553,1571.819137303553,1.0001633735826698,0.00023130711465658792
1571.8260819083603,1571.8260819083603,1.0005927178333365,0.00023136939332020072
1571.8330265131672,1571.8330265131672,0.999643579720624,0.00023114885137603768
1571.839971117974,1571.839971117974,1.0003146967539867,0.0002312506682990413
1571.8469157227573,1571.8469157227573,0.9999807572708237,0.0002311853750226068
1571.853860327541,1571.853860327541,1.0000080253622077,0.000231164346075125
1571.8608049323261,1571.8608049323261,1.0001416090006834,0.00023115320756828106
1571.8677495371328,1571.8677495371328,0.9996990171681077,0.00023119479322653464
1571.8746941418933,1571.8746941418933,1.0001282358778032,0.00023121900596738678
1571.8816387467002,1571.8816387467002,1.000042212993577,0.00023109515370122306
1571.8885833514369,1571.8885833514369,1.0001548011901504,0.00023116932722467274
1571.8955279562206,1571.8955279562206,0.9996395403929366,0.0002311127397456082
1571.9024725610052,1571.9024725610052,1.0002262481309079,0.0002311356805211659
1571.9094171657423,1571.9094171657423,1.0002122473593675,0.00023121442977288206
1571.916361770503,1571.916361770503,1.0000939586730595,0.00023112669636377254
1571.9233063752395,1571.9233063752395,0.9996996735326361,0.00023109774983936588
1571.9302509800002,1571.9302509800002,1.0001059244451087,0.0002312150359843054
1571.9371955847141,1571.9371955847141,1.0002399017050068,0.00023121308833449358
1571.9441401894285,1571.9441401894285,0.9997559612110454,0.0002310804178035374
1571.9510847941895,1571.9510847941895,0.9997482342891303,0.00023113185826615021
1571.9580293988797,1571.9580293988797,0.9999596471254305,0.00023112467006095893
1571.9649740036166,1571.9649740036166,1.0001686804862047,0.00023113563472684662
1571.9719186083073,1571.9719186083073,1.000022590820267,0.0002310976426674948
1571.9788632130208,1571.9788632130208,1.0003773506680131,0.0002311447030706461
1571.9858078177126,1571.9858078177126,0.9999200493104311,0.00023110112917002114
1571.9927524224033,1571.9927524224033,1.0000486317277477,0.000231169156312291
1571.9996970270936,1571.9996970270936,0.9997333172978763,0.00023110094968661226
1572.0066416317839,1572.0066416317839,0.9999185521447755,0.00023108526489383946
1572.0135862364511,1572.0135862364511,0.9996734390601129,0.00023099920742768572
1572.0205308411182,1572.0205308411182,0.9998475474033517,0.0002310507904532522
1572.0274754457635,1572.0274754457635,1.0002017149287603,0.00023115242476950205
1572.0344200504305,1572.0344200504305,1.000206219289598,0.00023107442271024406
1572.0413646550746,1572.0413646550746,1.0004666787344978,0.0002310710155236287
1572.0483092597183,1572.0483092597183,0.999824250560707,0.00023104805182460692
1572.055253864339,1572.055253864339,1.0002718632231793,0.00023105612739303104
1572.0621984689828,1572.0621984689828,0.9999132010753431,0.00023102029062716604
1572.069143073581,1572.069143073581,0.9995870512421803,0.00023093237980266286
1572.076087678202,1572.076087678202,0.9998175084456726,0.00023099792321972616
1572.0830322827994,1572.0830322827994,1.000145825470358,0.0002310352049377709
1572.0899768873965,1572.0899768873965,0.9999524760229557,0.0002310930092765597
