time,time,flux,flux_err,quality,centroid_col,centroid_row
2228.8719853654025,2228.8719853654025,1.0001409571005,2.895524961347421e-05,0,867.0169019576729,672.52503476635
2228.994580023906,2228.994580023906,1.0000846100110088,2.9137236332167502e-05,0,866.8580754136041,672.6086024269001
2229.117174727036,2229.117174727036,0.9997622577859682,2.9246025614549277e-05,0,866.6670785323614,672.7101523207101
2229.2295531950354,2229.2295531950354,0.9993338497037809,2.6692229290663484e-05,0,866.4948305418411,672.8117749225431
2229.3317154060032,2229.3317154060032,0.9987838146313148,2.6565053434494507e-05,0,866.3177520178544,672.9205302466967
2229.4420505941757,2229.4420505941757,0.9986493895254087,2.638534372097082e-05,8192,866.2495844578228,672.9644276766127
2229.576904661613,2229.576904661613,1.0000610765785383,2.673299828162851e-05,8192,866.6083763413686,672.7772443975061
2229.6831532455485,2229.6831532455485,0.9999219472867272,2.666776783487982e-05,0,866.5593922478278,672.8150516802442
2229.801661367055,2229.801661367055,1.0002318333371005,2.665762895064774e-05,0,866.8822606618456,672.6516658820311
2229.903823492529,2229.903823492529,0.9999026904071672,2.6713916536780068e-05,0,866.7470690062568,672.718263122995
2230.0059856025414,2230.0059856025414,0.9997772144318704,2.6725691088207615e-05,0,866.6044999489625,672.7985394691269
2230.1081477374682,2230.1081477374682,0.9994428348171654,2.6667884650176113e-05,0,866.4595854889678,672.8821356220299
2230.222569242981,2230.222569242981,0.9998377066162438,2.6551629277958183e-05,8192,866.7614164737755,672.7340760079056
2230.3329042490323,2230.3329042490323,1.000303922039725,2.6650083395196067e-05,0,866.9017516512404,672.6570420080077
2230.4350662754355,2230.4350662754355,1.0000886042768833,2.6715368339421407e-05,0,866.7358126781058,672.7375249870757
2230.5372283068455,2230.5372283068455,1.0002384327718539,2.6714148825903677e-05,0,866.5793400509241,672.8252700189119
2230.6393903229823,2230.6393903229823,0.9997996013131975,2.6600929339932703e-05,0,866.3982234702677,672.9287638028374
2230.76198471862,2230.76198471862,1.000381993904554,2.6452824093257353e-05,0,867.1014344165076,672.5725559881106
2230.864146721788,2230.864146721788,1.0003049410677156,2.661923993397091e-05,0,866.956339777906,672.6403577757355
2230.9663086898668,2230.9663086898668,0.9999977587124352,2.6696101465871583e-05,0,866.8031193450536,672.7136113139992
2231.0684706229526,2231.0684706229526,1.0000159272860656,2.6711709303551114e-05,0,866.6668734131559,672.788268507807
2231.1706325409496,2231.1706325409496,0.9997810056808278,2.6672724850450426e-05,0,866.5119572861355,672.8791575081116
2231.2727944441403,2231.2727944441403,0.9995355269234965,2.6561196967384052e-05,0,866.3781708897632,672.9532989318873
2231.3749563323363,2231.3749563323363,0.9994234736833443,2.634732315994142e-05,0,866.2356103051621,673.0298592337706
2231.497550658426,2231.497550658426,1.0002612225944023,2.669611222229985e-05,8192,866.5827179457314,672.8412512351454
2231.5997124938394,2231.5997124938394,1.0001239702749194,2.661710810898529e-05,0,866.4371145476543,672.9252606936604
2231.7182202671493,2231.7182202671493,1.0000050918772738,2.666556700253437e-05,0,866.6964599269413,672.7820971299542
2231.8244685633517,2231.8244685633517,1.0003425663539378,2.670848630791478e-05,0,866.6714144063242,672.7944545434988
2231.9266303511745,2231.9266303511745,1.0004217106014506,2.6688672647763182e-05,0,866.5760011968969,672.8503254996907
2232.0287921641893,2232.0287921641893,1.0001353860472038,2.6610234591463603e-05,0,866.4443119259707,672.9239459448513
2232.135040453081,2232.135040453081,0.9996069096938655,2.6523198189599365e-05,0,866.4200583892114,672.936255327271
2232.253548116982,2232.253548116982,1.0000482429189048,2.6696274109639707e-05,0,866.6978487451819,672.7833961021144
2232.3557098828705,2232.3557098828705,1.0000099776243687,2.666491609841266e-05,0,866.5501332249069,672.865507397841
2232.4578716137667,2232.4578716137667,0.9997319542269685,2.655149530180851e-05,0,866.3938250885778,672.9549664207734
2232.5600333104144,2232.5600333104144,0.9993482467791186,2.6322917695574035e-05,0,866.2416168571538,673.0346403564643
2232.6744544348985,2232.6744544348985,0.9996489123798117,2.6410929652924513e-05,0,866.5802012529055,672.8520266669935
2232.7847890548232,2232.7847890548232,1.0001657318703983,2.668640165321904e-05,0,866.7909982213553,672.7379233112786
2232.8869507843456,2232.8869507843456,1.0003087685700867,2.66952936210019e-05,0,866.6922184916535,672.7897031342582
2232.9891124393384,2232.9891124393384,1.0004757482058977,2.6676798813793236e-05,0,866.588751212856,672.8500370758242
2233.091274099522,2233.091274099522,1.0002883150121726,2.6635192324664087e-05,0,866.4929713609641,672.9045758385606
2233.2138680488,2233.2138680488,0.9997466815129445,2.6645093100339124e-05,0,866.8934551215829,672.6892501507821
2233.3160296370406,2233.3160296370406,0.9997105309261187,2.668413949386647e-05,0,866.7663722699366,672.7526647794613
2233.4181912508457,2233.4181912508457,0.99996905247358,2.6679028454416035e-05,0,866.6211563641027,672.8335999289989
2233.520352830214,2233.520352830214,1.0001953085903525,2.6615957736612526e-05,0,866.4714636602955,672.9187025286792
2233.6306873591952,2233.6306873591952,0.9997660527596262,2.6558564024754133e-05,0,866.487952882954,672.9085808766865
2233.745108333716,2233.745108333716,0.9998359983853679,2.667382864853056e-05,0,866.6181747973558,672.8374731024958
2233.8472698667056,2233.8472698667056,1.0002377179546682,2.66325261670416e-05,0,866.5015630421354,672.9052694572144
2233.949431405445,2233.949431405445,0.9999987127255825,2.651484427802017e-05,0,866.3671165652279,672.9786562058728
2234.05159288975,2234.05159288975,0.9994583896220846,2.625951438292994e-05,0,866.2160181026895,673.0578746322352
2234.170100216351,2234.170100216351,0.9998072107257754,2.656052505666578e-05,8192,866.5485139177529,672.8757982922926
2234.276348168685,2234.276348168685,1.0003354648371956,2.6649037564628456e-05,0,866.540143638581,672.885934983103
2234.390769020666,2234.390769020666,1.0002191175422082,2.6644816459799797e-05,0,866.6841864624033,672.8079101074467
2234.5011034184254,2234.5011034184254,1.0000425136625224,2.669413352108086e-05,0,866.7429084175479,672.7722433588884
2234.611437778486,2234.611437778486,0.9999786835060925,2.6677456174102706e-05,0,866.7237712412201,672.7856874778428
2234.725858559058,2234.725858559058,0.9999823201683444,2.6691263603129768e-05,0,866.7628563120646,672.7642751678529
2234.8280199345854,2234.8280199345854,0.9999360998091585,2.668131184349691e-05,0,866.6544294335861,672.8264968313495
2234.930181316141,2234.930181316141,0.999824404419579,2.6666261490485757e-05,0,866.5851279173687,672.8635529828186
2235.0323427036333,2235.0323427036333,0.9999343490853863,2.6635396453319397e-05,0,866.5060282335595,672.9099342614088
2235.150849911725,2235.150849911725,0.9997013088425917,2.6607209429878758e-05,0,866.8815253659141,672.7137675387364
2235.2570977021255,2235.2570977021255,1.0000962453873898,2.6644930225178412e-05,0,866.9204664018519,672.6896024828111
2235.3592590643575,2235.3592590643575,1.0000829429709528,2.6687370914307315e-05,0,866.8137294405,672.7416796260223
2235.4614203925244,2235.4614203925244,1.0002884567591206,2.6691774264643575e-05,0,866.7231210510133,672.7897076279244
2235.5635816866297,2235.5635816866297,1.0002095911078355,2.667848925875889e-05,0,866.6240518511617,672.8478320897532
2235.665742926672,2235.665742926672,1.0000185984197265,2.6641972094086326e-05,0,866.529622960388,672.9016103794058
2235.7679042127434,2235.7679042127434,0.9999953741429556,2.6572659705245336e-05,0,866.4273957639205,672.9598663342846
2235.8864112836745,2235.8864112836745,0.9998665009148262,2.6577423640326066e-05,0,866.8860144710401,672.7175999273605
2235.9926590089294,2235.9926590089294,0.9999763000337586,2.663617464801043e-05,0,866.9468887257553,672.6820466337338
2236.0948202503905,2236.0948202503905,0.9996858361599219,2.6673236441783267e-05,0,866.8506524952585,672.7271335532735
2236.196981478069,2236.196981478069,0.9998839471938474,2.6693943498989582e-05,0,866.7930525295003,672.7560090901085
2236.2991426715903,2236.2991426715903,0.9999077666966644,2.6698094410892835e-05,0,866.7589566794911,672.7748696256931
2236.4013038314224,2236.4013038314224,1.0000992187841966,2.6694565543312802e-05,0,866.702339880452,672.8056076005472
2236.5034649973763,2236.5034649973763,1.0002164865515468,2.66860812859747e-05,0,866.6312794768161,672.8462312630647
2236.6219719524497,2236.6219719524497,1.0001111150114952,2.6641992055991336e-05,0,866.5157587417536,672.9140710210401
2236.7282195539547,2236.7282195539547,0.9999888660102997,2.661992318280382e-05,0,866.468194641436,672.9405520333339
2236.842640049124,2236.842640049124,1.0001516387973435,2.6603500365469093e-05,0,866.7846504760148,672.7748846754359
2236.9529740639455,2236.9529740639455,1.000188002333616,2.6616748706743732e-05,0,866.9929699249844,672.6645527929702
2237.0551351356744,2237.0551351356744,1.0001239126797803,2.6625819683243247e-05,0,866.9854658316923,672.6706684586296
2237.1572962137116,2237.1572962137116,0.999928554850684,2.6655113540758106e-05,0,866.9373633547532,672.691756795399
2237.25945731806,2237.25945731806,0.9997304306583965,2.6664560480552182e-05,0,866.9117319674654,672.7052618717272
2237.3616183487175,2237.3616183487175,0.9996653066556549,2.6688548041243144e-05,0,866.8570892606243,672.7314592029868
2237.4637794057767,2237.4637794057767,0.9998644428459246,2.6702813901403396e-05,0,866.8044241045984,672.7575841774334
2237.565940449333,2237.565940449333,0.9999280684685756,2.6703226032386342e-05,0,866.7576110020015,672.7829655587599
2237.668101499291,2237.668101499291,0.9998524217976008,2.670183959845896e-05,0,866.6972217941875,672.8171787088385
2237.7702624957456,2237.7702624957456,1.0001723926352364,2.66930581442309e-05,0,866.6287933364429,672.8565093693542
2237.8724234585097,2237.8724234585097,1.0003548562746185,2.6671927932139577e-05,0,866.5548806314821,672.8989317074563
2237.9745844680497,2237.9745844680497,1.000245447671615,2.663614548279861e-05,0,866.4866590506984,672.9391408619504
2238.0767454238958,2238.0767454238958,1.0000736371577381,2.6587681317731523e-05,0,866.4219105603721,672.975440120865
2238.17890636652,2238.17890636652,0.9999712521000037,2.6504483249163334e-05,0,866.3472060971583,673.0162480562265
2238.289240189023,2238.289240189023,0.9999522078549683,2.653980351299409e-05,0,866.4621461889577,672.9513021561049
2238.4036604327584,2238.4036604327584,0.9997890232588853,2.6690938332626826e-05,0,866.6583750911155,672.84189556057
2238.509907787929,2238.509907787929,0.9998359918778125,2.6624538324978555e-05,0,866.7219924095865,672.8158615990732
2238.628414434455,2238.628414434455,1.0000119418538833,2.6376073898351278e-05,0,867.1944440693948,672.5812573829172
2238.730575304714,2238.730575304714,0.9999565679682995,2.6383276872550197e-05,0,867.1948776361144,672.5801176079397
2238.83273616175,2238.83273616175,1.0000698470037268,2.643438662454914e-05,0,867.1682667069344,672.5932899938875
2238.9348970455612,2238.9348970455612,0.9999246418134005,2.6488228696865493e-05,0,867.1356390870629,672.6099461480254
2239.037057856053,2239.037057856053,1.0002115909962435,2.6520974280692287e-05,0,867.1186503291177,672.6180309049814
2239.1392186934145,2239.1392186934145,1.000242617549835,2.6509533127576112e-05,0,867.1271896564818,672.6141981281969
2239.2413795176444,2239.2413795176444,1.0000973165990534,2.65291064516915e-05,0,867.107637010077,672.6239525497124
2239.3435403284616,2239.3435403284616,1.000049499398518,2.6558837338739814e-05,0,867.0820331450623,672.6370224333725
2239.4457011263353,2239.4457011263353,0.999880052049145,2.659531653718947e-05,0,867.0446071134407,672.6538729426778
2239.5478618710767,2239.5478618710767,0.9998677109501222,2.6603117564530413e-05,0,867.0333309600271,672.6596512909598
2239.650022662686,2239.650022662686,0.9997705191152857,2.661293534370562e-05,0,867.0247287431546,672.6646015569036
2239.7521834013505,2239.7521834013505,0.9996798337460897,2.6620584154639278e-05,0,867.0151734649219,672.6688427234778
2239.8543441267902,2239.8543441267902,0.9998586937249547,2.659803301640552e-05,0,867.0468387717325,672.6559059451305
2239.9565048591903,2239.9565048591903,1.00010149651774,2.6557305231924015e-05,0,867.0918258590967,672.6352090693539
2240.0586655789243,2240.0586655789243,1.0001550375213628,2.656792810969491e-05,0,867.0852694969623,672.6384827829734
2240.160826285434,2240.160826285434,1.000307017765732,2.6589716227839646e-05,0,867.0657313165054,672.6482659628875
2240.262986959092,2240.262986959092,1.000195424367059,2.6600699084161226e-05,0,867.0545896663047,672.6542760634568
2240.3651476396176,2240.3651476396176,1.0001160104891311,2.6595310372475613e-05,0,867.0603407065146,672.6522095097022
2240.475481118231,2240.475481118231,0.9998668252320746,2.6633266634979162e-05,0,866.9979119928508,672.6835440641935
2240.6103332128014,2240.6103332128014,0.9999007438384817,2.6714728641417224e-05,0,866.8085940465453,672.7743059795523
2240.7124938298352,2240.7124938298352,0.9998814564221474,2.6715433093390765e-05,0,866.8220592338112,672.7653645051881
2240.814654453924,2240.814654453924,0.9999699352003939,2.6712194686403525e-05,0,866.8440458514639,672.7531607196693
2240.916815045252,2240.916815045252,1.0001040379950061,2.670572522630352e-05,0,866.8647318859372,672.7463810179447
2241.043494179407,2241.043494179407,0.9997976925804363,2.6708328629655927e-05,0,866.85418552528,672.7512492963895
2241.182432563289,2241.182432563289,0.9998201885208651,2.6702556903091743e-05,0,866.8761057759381,672.7413133002015
2241.28459308889,2241.28459308889,1.0001001666228324,2.670983722386745e-05,0,866.8696605667368,672.7450646402598
2241.3867536818243,2241.3867536818243,1.0001159169261933,2.6696819168407477e-05,0,866.9053475675086,672.7277819821487
2241.488914202001,2241.488914202001,1.0002689820161144,2.669024703740747e-05,0,866.9268123498425,672.7191702569834
2241.591074709603,2241.591074709603,1.0001346100734734,2.6690683749240553e-05,0,866.9298853196563,672.717700608729
2241.6932352048198,2241.6932352048198,0.9999754051777068,2.6693775457245868e-05,8192,866.9137597295309,672.7252850710717
2241.795395707371,2241.795395707371,0.9999823913339702,2.668766726115618e-05,0,866.932858809006,672.7172572529165
2241.8975562173496,2241.8975562173496,0.999905150805891,2.666738605340398e-05,0,866.968696820436,672.7013151657013
2241.9997166547532,2241.9997166547532,0.9999040337157246,2.664278843912412e-05,0,867.0111713011826,672.6823237311909
2242.1018771199583,2242.1018771199583,0.9996384631792491,2.6593128424364426e-05,0,867.0661505091077,672.6581749208656
2242.20403761231,2242.20403761231,0.9997628193561722,2.651441232909813e-05,0,867.1399784995607,672.6243915792824
2242.3061980123675,2242.3061980123675,1.000107433164269,2.6477107372521048e-05,0,867.1705962514139,672.6092915384759
2242.408358400228,2242.408358400228,1.000303738274869,2.6424123780745544e-05,0,867.204634814261,672.5942348248805
2242.530950892987,2242.530950892987,1.0001027704351657,2.672637536684195e-05,0,866.8221541165192,672.7744821525064
2242.6331112935572,2242.6331112935572,1.0002154715019338,2.6715018516311542e-05,0,866.8674549121395,672.7533862062955
2242.735271701554,2242.735271701554,1.0001307351938502,2.6693954332311313e-05,0,866.9206682500524,672.7279324084723
2242.8374320575385,2242.8374320575385,0.9999666504540723,2.6662946325055396e-05,0,866.9856654526535,672.6975078789171
2242.9395924212295,2242.9395924212295,0.9998963188792962,2.6634435912098443e-05,0,867.0247864452609,672.6806946375699
2243.041752752624,2243.041752752624,0.9996021938482489,2.6578741877022263e-05,0,867.088145899542,672.6526342280848
2243.143913071729,2243.143913071729,0.999868681641721,2.652963204164785e-05,0,867.136466418989,672.629829848066
2243.2460733787257,2243.2460733787257,1.0000025040345015,2.639775323477713e-05,0,867.2204874205385,672.5906159411222
2243.3482336934276,2243.3482336934276,1.0001477029222026,2.6186327640026078e-05,0,867.3134564018721,672.5440961936164
2243.4626532287975,2243.4626532287975,1.0002795953318442,2.630599483407442e-05,0,867.2240021328522,672.587554723606
2243.5729863793968,2243.5729863793968,1.0001735609372566,2.6447460769173053e-05,0,867.1968797109482,672.6037857299759
2243.6833194550027,2243.6833194550027,0.9999699881647214,2.649343857822621e-05,0,867.0939295533266,672.6502993284614
2243.7977389066946,2243.7977389066946,0.9999165794780172,2.669759834920077e-05,8192,866.9187771908009,672.7337581977847
2243.899899116298,2243.899899116298,0.9998123230331778,2.6639133682427382e-05,0,867.0217323340397,672.6865871246173
2244.002059393794,2244.002059393794,0.9999560184105791,2.6542824389564295e-05,0,867.1304409028314,672.6373247637387
2244.1042195793693,2244.1042195793693,0.9999253028233331,2.636981730319924e-05,0,867.2396372457285,672.5845607651947
2244.222725462723,2244.222725462723,1.0001399351639948,2.641245978627977e-05,0,867.2108825609648,672.5987790643302
2244.3289720696703,2244.3289720696703,1.0002547716487278,2.6166418594792583e-05,0,867.3181239536374,672.545376375923
2244.443391476052,2244.443391476052,0.9999358491579885,2.6212998004897784e-05,0,867.1686693629847,672.6163351000168
2244.5537244024135,2244.5537244024135,0.999812818222219,2.658506361940044e-05,0,867.0947498910751,672.6593131728498
2244.6640573543395,2244.6640573543395,0.9996533249895274,2.6532433930870483e-05,0,867.1236068371811,672.6425933486353
2244.778476737882,2244.778476737882,0.9999460796552535,2.659186270342652e-05,0,867.0938859463707,672.6574714683236
2244.8847232575863,2244.8847232575863,1.0001924970900002,2.6517505945048048e-05,0,867.1518512249007,672.6312781340249
2245.0032290564473,2245.0032290564473,1.0002331982023125,2.6602843310751482e-05,0,867.0878197243501,672.6617402265304
2245.105389146258,2245.105389146258,1.0001937484162768,2.640878736295985e-05,0,867.2303071017586,672.5936550139434
2245.2279812383845,2245.2279812383845,1.0000356902923204,2.6678187581263715e-05,0,866.9856987187082,672.7096354064895
2245.330141282399,2245.330141282399,1.0001717766483997,2.6556457243158498e-05,0,867.1337814733017,672.6411208587738
2245.4486469619324,2245.4486469619324,1.0000449418815918,2.6686649493210477e-05,0,866.8987836411064,672.7520959430279
2245.5548934023827,2245.5548934023827,0.9998470501393106,2.6722909729649857e-05,0,866.8830251966731,672.7586613039527
2245.657053469423,2245.657053469423,0.9995505142660177,2.6667379981428694e-05,0,867.0019705739967,672.7043365747907
2245.759213544728,2245.759213544728,0.9997276958807083,2.6575912554008164e-05,0,867.1191519895195,672.6511503935916
2245.861373528672,2245.861373528672,0.9999900934726151,2.6490367468131958e-05,0,867.1874003893399,672.6186569889376
2245.9635335210683,2245.9635335210683,1.0001756085336482,2.6317284647956904e-05,0,867.2811702422653,672.5704567648628
2246.0656935021007,2246.0656935021007,1.0000865020033376,2.5999883819550064e-05,0,867.3729565151498,672.523763526108
2246.1841990852436,2246.1841990852436,1.0000053757802823,2.638055519129476e-05,0,867.2019865961196,672.6109106868596
2246.290445440104,2246.290445440104,1.0000772392787665,2.6364599564761446e-05,0,867.2598336745984,672.5834745255466
2246.4048645967064,2246.4048645967064,1.000227400204896,2.6454480880349305e-05,0,867.1232175006664,672.6473805796819
2246.515197362787,2246.515197362787,0.9999860085278117,2.664163979365058e-05,0,867.0512513495129,672.6869980066507
2246.6173573223523,2246.6173573223523,1.0000228364550903,2.6556292324360005e-05,0,867.1437090826464,672.6420755656111
2246.719517210743,2246.719517210743,1.0001413550500649,2.6424431173210288e-05,0,867.2338756947686,672.5973595757672
2246.821677067678,2246.821677067678,1.0001512245207336,2.6249306267995864e-05,0,867.3142804995043,672.5565432122032
2246.944268989397,2246.944268989397,0.9995838507521583,2.666002136380186e-05,0,867.0280660613975,672.6969117621486
2247.0464288818357,2247.0464288818357,0.999678111173257,2.6560154910587836e-05,0,867.1406194258609,672.644497327234
