time,time,flux,flux_err
1354.1195605256046,1354.1195605256046,1.0000497509092272,0.00010618361380646355
1354.1283570763233,1354.1283570763233,0.9999995119056195,0.00010617679007254407
1354.1359961858784,1354.1359961858784,1.0000039339937052,9.692745923880623e-05
1354.1429408303443,1354.1429408303443,0.9999264859762226,9.691311791444466e-05
1354.149885474624,1354.149885474624,1.0000334426488853,9.69252190014969e-05
1354.1568301186246,1354.1568301186246,0.9998834359402725,9.691492697903733e-05
1354.163774762159,1354.163774762159,1.0001127346744991,9.692548538755004e-05
1354.1707194056007,1354.1707194056007,1.000006699947712,9.692101374432469e-05
1354.1776640486696,1354.1776640486696,0.9999620172801439,9.691673801458969e-05
1354.18460869118,1354.18460869118,1.000028229899757,9.6915965441319e-05
1354.19155333369,1354.19155333369,0.9997939873097513,9.690861619081699e-05
1354.1984979757349,1354.1984979757349,1.0001092821065674,9.691736140259931e-05
1354.2054426175,1354.2054426175,1.000072611031602,9.691528903639581e-05
1354.2123872590787,1354.2123872590787,0.9999599703997593,9.69151162508005e-05
1354.219331900192,1354.219331900192,0.9999016303247827,9.690724884278573e-05
1354.2262765411192,1354.2262765411192,0.999924063527042,9.691130080501431e-05
1354.2332211817666,1354.2332211817666,1.000221584868155,9.692543888086278e-05
1354.240165821949,1354.240165821949,1.0001073227691581,9.692143204068658e-05
1354.2471104619444,1354.2471104619444,0.9999545822092433,9.691437881888756e-05
1354.2540551017535,1354.2540551017535,0.9999114992100804,9.691468376847015e-05
1354.2609997411905,1354.2609997411905,1.0000326518918148,9.691657701672854e-05
1354.267944380255,1354.267944380255,0.9998832179429767,9.690798741674609e-05
1354.2748890191328,1354.2748890191328,1.0000130649905628,9.692369859594274e-05
1354.2818336578248,1354.2818336578248,1.0000220786971186,9.691982567432733e-05
1354.2887782960506,1354.2887782960506,1.0000370911251963,9.692495361569448e-05
1354.2957229339977,1354.2957229339977,1.0001277702584102,9.692899616332394e-05
1354.3026675717579,1354.3026675717579,0.9999514159977828,9.692050100064817e-05
1354.3096122092393,1354.3096122092393,0.9999993802648968,9.69241343607679e-05
1354.316556846348,1354.316556846348,0.9999509522391538,9.69199897145386e-05
1354.323501483363,1354.323501483363,0.9998655168211423,9.691639483547712e-05
1354.3304461199127,1354.3304461199127,0.9999244366774407,9.692117690220392e-05
1354.3373907563696,1354.3373907563696,0.9999862419258779,9.692238999648836e-05
1354.3443353925468,1354.3443353925468,1.0001635338388546,9.692967169964688e-05
1354.3512800282585,1354.3512800282585,1.0000016211668508,9.692442697064457e-05
1354.3582246638766,1354.3582246638766,1.000090261386828,9.693005378647862e-05
1354.3651692991225,1354.3651692991225,0.9999562121106489,9.692103794254307e-05
1354.3721139341828,1354.3721139341828,1.0000319374112365,9.692122104076755e-05
1354.3790585689626,1354.3790585689626,1.0000047446580482,9.691417943478177e-05
1354.3860032035568,1354.3860032035568,0.9998885842463089,9.691407130143192e-05
1354.3929478377781,1354.3929478377781,1.0001283682926156,9.692735820797141e-05
1354.3998924717202,1354.3998924717202,0.9999134502077862,9.691448066450393e-05
1354.4068371057556,1354.4068371057556,1.0000228059812983,9.691989377789603e-05
1354.4137817389526,1354.4137817389526,1.0000707653935215,9.692195641618117e-05
1354.4207263723356,1354.4207263723356,0.9999360180783162,9.691489009661057e-05
1354.4276710053466,1354.4276710053466,0.9999993573019583,9.691913095476886e-05
1354.4346156380775,1354.4346156380775,0.9999436257837846,9.691580363921926e-05
1354.4415602706229,1354.4415602706229,0.9999562623807374,9.69145258111997e-05
1354.4485049028885,1354.4485049028885,1.0000212306877945,9.692119682871475e-05
1354.455449534968,1354.455449534968,0.9999594943106036,9.691647274560612e-05
1354.4623941666753,1354.4623941666753,1.0000726915118374,9.6920155137489e-05
1354.4693387983818,1354.4693387983818,0.9999972818793642,9.691385792505822e-05
1354.476283429623,1354.476283429623,0.9999987603125515,9.691935219471989e-05
1354.4832280606784,1354.4832280606784,1.0001457513238459,9.692628536067605e-05
1354.4901726914536,1354.4901726914536,0.9999208846704268,9.690531944730163e-05
1354.497117322136,1354.497117322136,1.0000810810921634,9.692023784494129e-05
1354.5040619524461,1354.5040619524461,0.9999297305871087,9.691220163389951e-05
1354.5110065826625,1354.5110065826625,0.9998731788839598,9.690521873552728e-05
1354.5179512125073,1354.5179512125073,1.0000776262690967,9.692370827637289e-05
1354.5248958422585,1354.5248958422585,1.000030838373015,9.691788161426614e-05
1354.5318404716368,1354.5318404716368,1.0000332688184963,9.692105722163786e-05
1354.5387851010153,1354.5387851010153,0.9998791046511579,9.69133048443118e-05
1354.5457297300213,1354.5457297300213,0.9999752655525125,9.691637745984726e-05
1354.5526743586547,1354.5526743586547,1.0000352736486282,9.692355382963796e-05
1354.5596189872888,1354.5596189872888,0.9999794260663414,9.691648792754374e-05
1354.5665636155493,1354.5665636155493,0.9999609506088568,9.691799417294053e-05
1354.5735082437172,1354.5735082437172,1.0000153169108792,9.691967624408427e-05
1354.5804528716988,1354.5804528716988,1.0001650177237846,9.692303455565672e-05
1354.587397499308,1354.587397499308,0.9999412953428379,9.691310339230005e-05
1354.5943421268244,1354.5943421268244,1.0000442348362757,9.692162658744849e-05
1354.6012867540608,1354.6012867540608,0.999876735768866,9.691030276519664e-05
1354.608231381204,1354.608231381204,1.000044664102306,9.692288858148167e-05
1354.615176008068,1354.615176008068,1.0000588019959848,9.692454408299973e-05
1354.6221206347457,1354.6221206347457,1.0000115744139595,9.69221249435932e-05
1354.629065260958,1354.629065260958,1.000006747121923,9.69232610436986e-05
1354.6360098872633,1354.6360098872633,0.9999637753541503,9.691631253682424e-05
1354.6429545131955,1354.6429545131955,1.0000022769953512,9.692009051927193e-05
1354.6498991391286,1354.6498991391286,0.9999105742459061,9.690796553510516e-05
1354.6568437647816,1354.6568437647816,1.0000484191990577,9.692195656840262e-05
1354.6637883900626,1354.6637883900626,0.9998970359862124,9.691441316086379e-05
1354.6707330152506,1354.6707330152506,1.0001433973655083,9.692552938481315e-05
1354.6776776403447,1354.6776776403447,1.0000334593369877,9.692326278202024e-05
1354.6846222650668,1354.6846222650668,1.00002798847405,9.692355576534453e-05
1354.6915668898816,1354.6915668898816,0.9998736108397293,9.69135610933108e-05
1354.698511514231,1354.698511514231,0.9999163447601873,9.69178558127202e-05
1354.7054561383945,1354.7054561383945,1.0002830462006453,9.693143991109288e-05
1354.7124007623715,1354.7124007623715,1.0000487186771825,9.692158578227612e-05
1354.7193453861619,1354.7193453861619,0.9998919418852313,9.691701790319829e-05
1354.7262900097667,1354.7262900097667,0.999909381026837,9.691810279560271e-05
1354.7332346332778,1354.7332346332778,1.000028538171438,9.692078162751198e-05
1354.74017925651,1354.74017925651,1.0000600791279615,9.692797913289922e-05
1354.7471238795554,1354.7471238795554,0.9999547149152489,9.692029529883103e-05
1354.7540685025074,1354.7540685025074,1.0000040525387406,9.692245832477645e-05
1354.7610131251809,1354.7610131251809,1.0000564304829334,9.692080720827607e-05
1354.7679577476674,1354.7679577476674,0.9999784720054686,9.692037324815244e-05
1354.774902369968,1354.774902369968,1.000111940304248,9.692880685079716e-05
1354.7818469919891,1354.7818469919891,0.9999774475428733,9.692166419883412e-05
1354.7887916140103,1354.7887916140103,0.999940998297741,9.691691501093176e-05
1354.7957362358452,1354.7957362358452,1.0001330587884858,9.692555904269415e-05
1354.8026808574007,1354.8026808574007,0.9998737108798833,9.691263838068045e-05
1354.8096254788632,1354.8096254788632,1.0000210630452866,9.692440296774337e-05
1354.8165701000462,1354.8165701000462,0.9999660991761029,9.692384298718482e-05
1354.8235147212292,1354.8235147212292,1.0000435695903689,9.692592052788939e-05
1354.8304593420394,1354.8304593420394,1.0001173094370093,9.693104528689421e-05
1354.8374039627568,1354.8374039627568,1.0000196209787922,9.692833620136565e-05
1354.8443485831947,1354.8443485831947,0.9999934196299345,9.693368564265581e-05
1354.8512932036328,1354.8512932036328,0.9999058138859546,9.691911320474838e-05
1354.8582378237911,1354.8582378237911,0.9999357355730109,9.692416407310048e-05
1354.86518244367,1354.86518244367,0.9999067908612822,9.69256571911316e-05
1354.8721270638289,1354.8721270638289,0.9999270077785471,9.692426834275008e-05
1354.8790716834285,1354.8790716834285,0.9999819265029724,9.692715286453444e-05
1354.8860163027489,1354.8860163027489,1.0001901912434519,9.69365877290999e-05
1354.892960922162,1354.892960922162,1.000121800371058,9.693730304472354e-05
1354.8999055412962,1354.8999055412962,0.9999760979440049,9.692687673607577e-05
1354.9068501602442,1354.9068501602442,1.0000650421213684,9.693534762453993e-05
1354.9137947790985,1354.9137947790985,1.0000666146462553,9.693401873419013e-05
1354.92073939786,1354.92073939786,0.999789035984354,9.691828607401781e-05
1354.9276840163425,1354.9276840163425,0.9998110394386028,9.692093835824041e-05
1354.9346286346383,1354.9346286346383,1.0000827551726754,9.693538748751517e-05
1354.9429621765,1354.9429621765,0.9999572164758069,9.692696601160532e-05
1354.9499067944237,1354.9499067944237,1.00016917899896,9.693514384607178e-05
1354.9568514122539,1354.9568514122539,0.9999760863131353,9.692682544710493e-05
1354.9637960298046,1354.9637960298046,0.9999890686041132,9.693046695241286e-05
1354.9707406471691,1354.9707406471691,1.0001243531416493,9.693476388676747e-05
1354.9776852645332,1354.9776852645332,0.9998779387511139,9.691461569058677e-05
1354.9846298818984,1354.9846298818984,0.9999594492882267,9.692706286521709e-05
1354.9915744988903,1354.9915744988903,0.999935050406917,9.691611472037272e-05
1354.998519115789,1354.998519115789,1.000186638120709,9.693758613031904e-05
1355.0054637324083,1355.0054637324083,1.000066202734158,9.693392215653462e-05
1355.012408349028,1355.012408349028,0.9997178573437655,9.691105068366208e-05
1355.0193529654612,1355.0193529654612,1.00014078573671,9.693495211652396e-05
1355.0262975818011,1355.0262975818011,0.999979974642263,9.692297774729006e-05
1355.0332421977687,1355.0332421977687,1.0001008670943854,9.693206008527092e-05
1355.0401868137365,1355.0401868137365,0.9999615219999397,9.693172805679664e-05
1355.0471314295175,1355.0471314295175,1.0000174029514457,9.69267157090391e-05
1355.054076045206,1355.054076045206,0.9999187511221876,9.692666448879203e-05
1355.0610206607078,1355.0610206607078,0.9999676474068812,9.692933380797389e-05
1355.0679652760236,1355.0679652760236,1.0000435466077047,9.693322018449557e-05
1355.074909891339,1355.074909891339,0.9999333651599921,9.693283004914179e-05
1355.0818545063753,1355.0818545063753,1.0000725004148652,9.693530053855054e-05
1355.0887991211318,1355.0887991211318,0.9999519473834695,9.693188712596649e-05
1355.0957437359823,1355.0957437359823,1.0001364931579466,9.693952346789985e-05
1355.1026883504596,1355.1026883504596,0.9998298909234368,9.692473463941397e-05
1355.1096329649367,1355.1096329649367,1.0001481853982441,9.693944750865852e-05
1355.116577579321,1355.116577579321,0.9999838834422295,9.69288729277803e-05
1355.1235221934262,1355.1235221934262,1.000058922766997,9.693713901255983e-05
1355.130466807531,1355.130466807531,1.0000026461056577,9.693648492147053e-05
1355.13741142145,1355.13741142145,0.9996862719923799,9.69152601272219e-05
1355.144356035089,1355.144356035089,1.0001169726983057,9.693929747621663e-05
1355.1513006487285,1355.1513006487285,0.999951258162753,9.693137363375895e-05
1355.1582452621813,1355.1582452621813,1.0001690040052131,9.694370083118127e-05
1355.165189875541,1355.165189875541,0.9999915723762897,9.693252664413293e-05
1355.172134488715,1355.172134488715,1.0000378101993346,9.693712252446509e-05
1355.179079101702,1355.179079101702,0.9999516637921397,9.693269135046445e-05
1355.1860237146896,1355.1860237146896,1.0002946780097282,9.695153348240658e-05
1355.1929683273977,1355.1929683273977,0.9999571940359505,9.693172230302761e-05
1355.1999129401054,1355.1999129401054,0.9998994735495643,9.693626162646442e-05
1355.206857552441,1355.206857552441,1.0000179650763923,9.694166077831488e-05
1355.2138021648693,1355.2138021648693,0.9999369031724392,9.692981073938136e-05
1355.2207467771113,1355.2207467771113,1.0000338670236526,9.693179402708864e-05
1355.2276913892608,1355.2276913892608,1.0000058415003725,9.694144107519616e-05
1355.2346360011302,1355.2346360011302,0.9999300251851688,9.693968686677742e-05
1355.241580612907,1355.241580612907,1.0000647894599255,9.694637921710339e-05
1355.2485252244974,1355.2485252244974,0.9998125803231671,9.69325329413051e-05
1355.2554698360877,1355.2554698360877,1.0000277045590749,9.694391481097386e-05
1355.2624144475851,1355.2624144475851,1.0001164312001205,9.694936862259323e-05
1355.2693590588026,1355.2693590588026,1.0001872046755302,9.695054439534334e-05
1355.2763036699275,1355.2763036699275,1.0000009057008694,9.694274114179646e-05
1355.2832482810522,1355.2832482810522,0.9999701019588982,9.694013280022945e-05
1355.2901928918975,1355.2901928918975,0.9999323253830594,9.694194668393619e-05
1355.2971375026495,1355.2971375026495,0.9999744533392361,9.693888024607323e-05
1355.3040821133086,1355.3040821133086,0.9998952754761241,9.693905973947202e-05
1355.3110267238742,1355.3110267238742,0.9999069706298936,9.693608981369424e-05
1355.3179713342547,1355.3179713342547,1.000105260098092,9.694639441410194e-05
1355.3249159443544,1355.3249159443544,1.0000596862799482,9.693984934475912e-05
1355.3318605545478,1355.3318605545478,0.9999337474478637,9.693877499506823e-05
1355.3396385176143,1355.3396385176143,1.0000164380563743,9.694288365558594e-05
1355.3471386962653,1355.3471386962653,0.9999588894425926,9.693430021132896e-05
1355.3540833060863,1355.3540833060863,1.0000839382047784,9.694417396578045e-05
1355.3610279156278,1355.3610279156278,0.9999591153666559,9.694019738880768e-05
1355.367972525076,1355.367972525076,1.000124035894067,9.694909842610134e-05
1355.374917134338,1355.374917134338,0.9999825259000528,9.693192568577913e-05
1355.3818617436002,1355.3818617436002,1.0000382382982658,9.69368917749193e-05
1355.388806352676,1355.388806352676,1.0001353016158205,9.694251680058846e-05
1355.3957509616587,1355.3957509616587,0.9999280275415632,9.693603514526404e-05
1355.4038067078363,1355.4038067078363,0.9998636588271926,9.693570956140329e-05
1355.4110291008615,1355.4110291008615,0.9999378966509902,9.693800017499481e-05
1355.4179737094719,1355.4179737094719,0.9998434656802813,9.692938995659927e-05
1355.4249183178026,1355.4249183178026,1.0001629713840132,9.694881707642436e-05
1355.4318629263191,1355.4318629263191,1.0001029190278747,9.693597173688603e-05
1355.4388075343707,1355.4388075343707,1.000047346937488,9.6940263352939e-05
1355.445752142422,1355.445752142422,0.9997572825616556,9.692719391241495e-05
1355.4526967504733,1355.4526967504733,1.0000659775498835,9.694519846183555e-05
1355.4596413582453,1355.4596413582453,1.0000379286711112,9.69436917944359e-05
1355.4665859660174,1355.4665859660174,0.9999895588416287,9.693896235647252e-05
1355.473530573603,1355.473530573603,1.0001119619902314,9.694175401192717e-05
1355.4804751810957,1355.4804751810957,0.9999435000075694,9.693743279883273e-05
1355.4874197884017,1355.4874197884017,1.0000140066717502,9.694634379044056e-05
1355.494364395708,1355.494364395708,0.9999673268641864,9.694717758446446e-05
1355.501309002828,1355.501309002828,1.0000356049768968,9.694627553170305e-05
1355.5082536098548,1355.5082536098548,1.0000298241370116,9.693925522553067e-05
1355.5151982167886,1355.5151982167886,1.0000021817100488,9.694037767609148e-05
1355.5221428234431,1355.5221428234431,0.9998783408476066,9.693739975205902e-05
1355.5290874301904,1355.5290874301904,1.0000100369574292,9.694083745660328e-05
1355.5360320366583,1355.5360320366583,1.0000790563477675,9.69521855232783e-05
1355.5429766431266,1355.5429766431266,0.9999391697509681,9.693127250374668e-05
1355.5499212494083,1355.5499212494083,1.000003993511117,9.69473517954255e-05
1355.5568658555972,1355.5568658555972,1.000110001303952,9.694855044587429e-05
1355.5638104615996,1355.5638104615996,0.9998751478604572,9.693859864560856e-05
1355.5707550677882,1355.5707550677882,0.9999847772975125,9.694619578703309e-05
1355.5776996735115,1355.5776996735115,1.000004541611571,9.69454920833133e-05
1355.5846442792342,1355.5846442792342,0.9999876983142272,9.694492402221852e-05
1355.591588884957,1355.591588884957,1.0001541499667128,9.695339078506703e-05
1355.598533490401,1355.598533490401,1.0000714493103893,9.6951739333438e-05
1355.6054780958443,1355.6054780958443,1.0000021453297283,9.694409245057192e-05
1355.6124227011019,1355.6124227011019,1.0000971350016528,9.694792935474243e-05
1355.6193673062662,1355.6193673062662,0.9999237599307973,9.693871164040668e-05
1355.62631191143,1355.62631191143,1.0001006757305717,9.695059921042143e-05
1355.6332565163152,1355.6332565163152,0.9998094381246945,9.693795738450564e-05
1355.6402011212003,1355.6402011212003,0.999868011737765,9.693824935681216e-05
1355.6471457259915,1355.6471457259915,1.0000416241924601,9.694503274190175e-05
1355.6540903305042,1355.6540903305042,1.0000875390738642,9.695193641805582e-05
1355.6610349351097,1355.6610349351097,0.9999278266393563,9.693945640921087e-05
1355.6679795394352,1355.6679795394352,0.999896693044256,9.693500072490483e-05
1355.6749241437617,1355.6749241437617,1.0000889204728347,9.695426871726148e-05
1355.6818687479945,1355.6818687479945,0.9999587336445463,9.69455843329281e-05
1355.6888133520413,1355.6888133520413,1.000016270187607,9.694621745761465e-05
1355.6957579559948,1355.6957579559948,1.0000760592856166,9.694987133031348e-05
1355.702702559855,1355.702702559855,0.9999273136113602,9.694527203639954e-05
1355.7096471636223,1355.7096471636223,0.9998796465932525,9.694483564272919e-05
1355.7165917672964,1355.7165917672964,1.0002004212755238,9.69503395924494e-05
1355.7235363708774,1355.7235363708774,1.0000422561882452,9.694884150044957e-05
1355.7304809742723,1355.7304809742723,0.9998814683583838,9.694296543683231e-05
1355.7374255776667,1355.7374255776667,0.9998585353320649,9.693865385581664e-05
1355.744370180782,1355.744370180782,1.0000269866380698,9.694988733620203e-05
1355.7527037045763,1355.7527037045763,1.0000444725775142,9.695015644759136e-05
1355.7596483075054,1355.7596483075054,1.0000336254078388,9.693911934492534e-05
1355.7665929103414,1355.7665929103414,1.0000302646034713,9.694756273582526e-05
1355.7735375131774,1355.7735375131774,1.0000019905988657,9.694273977821574e-05
1355.7804821158265,1355.7804821158265,0.9999526549455308,9.694300437643114e-05
1355.7874267183836,1355.7874267183836,1.0001019121063177,9.694779368254393e-05
1355.794371320847,1355.794371320847,0.9999646344986584,9.694083113253173e-05
1355.8013159232173,1355.8013159232173,0.9999132395334558,9.693816659281929e-05
1355.808260525401,1355.808260525401,1.0000413239287036,9.69445304003183e-05
1355.8152051276782,1355.8152051276782,0.9999772931753768,9.694415326363696e-05
1355.8221497296763,1355.8221497296763,1.0000275824748797,9.693629297801134e-05
1355.8290943315808,1355.8290943315808,1.0001205077335327,9.69508853884748e-05
1355.8360389334853,1355.8360389334853,1.0000469645402519,9.694136756941825e-05
1355.842983535204,1355.842983535204,0.9999898204607929,9.694680988386263e-05
1355.8499281368288,1355.8499281368288,0.9999927860892779,9.694754439447701e-05
1355.8568727383608,1355.8568727383608,1.0000755402047747,9.695253867077596e-05
1355.863817339893,1355.863817339893,0.9999692091647484,9.695189609644375e-05
1355.8707619410527,1355.8707619410527,0.9999227672147384,9.694717495095045e-05
1355.8777065424918,1355.8777065424918,1.0000454643045067,9.695251507984984e-05
1355.8846511435581,1355.8846511435581,0.9998397641475709,9.694557618744292e-05
1355.8915957446243,1355.8915957446243,1.0000448339137251,9.695272463650801e-05
