time,time,flux,flux_err
1468.279039602525,1468.279039602525,0.9909745078731943,0.022914179933431617
1468.2873730865176,1468.2873730865176,0.9994380308303956,0.02288693496102282
1468.2957065703158,1468.2957065703158,1.001710702023525,0.022936402512666623
1468.3040400540367,1468.3040400540367,1.0033471698674592,0.022914467800781553
1468.3116790806384,1468.3116790806384,0.9946991239410876,0.020891941654052986
1468.3186236502763,1468.3186236502763,1.0041315069992525,0.020898068970752366
1468.3255682196811,1468.3255682196811,0.9913579226809048,0.02086883924249233
1468.33251278904,1468.33251278904,1.013825947166892,0.020932367231244094
1468.3394573583987,1468.3394573583987,0.9902528998678604,0.020886151775224036
1468.3464019276175,1468.3464019276175,0.9765431463689509,0.020908851287439044
1468.353346496743,1468.353346496743,1.01500199580907,0.020950422660680038
1468.360291065776,1468.360291065776,0.9952968928051874,0.02086760109381973
1468.3672356347154,1468.3672356347154,1.0136394087721081,0.020894323525162704
1468.3741802035615,1468.3741802035615,0.9996088560748919,0.020923307587003292
1468.3869582101117,1468.3869582101117,1.0025108134087855,0.020973593796505603
1468.397791737164,1468.397791737164,0.9961138124034346,0.020952941698779575
1468.4047363056384,1468.4047363056384,1.0010334853470382,0.0209667749956165
1468.411680874065,1468.411680874065,0.9919912800482807,0.02091198186220376
1468.4186254423523,1468.4186254423523,1.0219359736997753,0.020943905258645566
1468.425570010547,1468.425570010547,0.981061540895657,0.020914232380689023
1468.4325145787413,1468.4325145787413,0.9970801556054754,0.020868375996901486
1468.4394591467963,1468.4394591467963,0.9915714809051692,0.02086725890574504
1468.446403714804,1468.446403714804,1.0300643793215207,0.02083998273628772
1468.4533482826728,1468.4533482826728,1.0031210426218613,0.020840588014769783
1468.4602928504942,1468.4602928504942,0.9950915699720315,0.02076630391318405
1468.4672374181769,1468.4672374181769,1.008256211926828,0.020721330540455697
1468.4741819858596,1468.4741819858596,0.9986177572502557,0.020698081000970005
1468.481126553401,1468.481126553401,0.9917079165192841,0.02067035817809951
1468.4880711208039,1468.4880711208039,0.9869412570173142,0.02066675703720821
1468.4950156882537,1468.4950156882537,0.9914834837690767,0.02072409334051547
1468.5019602554705,1468.5019602554705,1.0077427507223495,0.02073094240676083
1468.5089048227333,1468.5089048227333,1.01641778461226,0.02078437243457094
1468.5158493898566,1468.5158493898566,1.014170641974561,0.020748430912147495
1468.5227939568867,1468.5227939568867,1.006510170513479,0.0207741312336093
1468.5297385238239,1468.5297385238239,1.0017798618588871,0.020856870765842424
1468.5366830907149,1468.5366830907149,0.9818894990530609,0.020782344194749124
1468.5436276574653,1468.5436276574653,0.9934815792868885,0.02074620236122133
1468.5505722241694,1468.5505722241694,0.9701956337128911,0.0206807601931169
1468.557516790781,1468.557516790781,1.0049313172928305,0.020777016681574396
1468.564461357299,1468.564461357299,1.0241949682940976,0.020742139761374085
1468.571405923724,1468.571405923724,0.9912451862938042,0.020751991967982324
1468.5783504900553,1468.5783504900553,1.0018752751468463,0.0207382796745367
1468.5852950563872,1468.5852950563872,1.0033791389609654,0.020721823492252787
1468.5922396225328,1468.5922396225328,1.0048823815368775,0.020637897051311298
1468.5991841886785,1468.5991841886785,1.004892535020078,0.02064119789022367
1468.6061287545913,1468.6061287545913,1.0045708394014412,0.02069978670142827
1468.61307332055,1468.61307332055,0.9888665148549272,0.02064083640346113
1468.6200178863696,1468.6200178863696,0.9818620054658787,0.020639655784426707
1468.6269624521428,1468.6269624521428,1.01992275015466,0.020758271383333388
1468.6339070178226,1468.6339070178226,1.0013736097801071,0.020767781666832786
1468.6408515834091,1468.6408515834091,0.9998143693909907,0.020761349761303026
1468.6477961489027,1468.6477961489027,1.0096895734406515,0.020801452436630716
1468.6547407142566,1468.6547407142566,0.9797197874884169,0.0208148131793088
1468.6616852796105,1468.6616852796105,0.9910274630043153,0.02082202128575648
1468.6686298448717,1468.6686298448717,1.028450604883436,0.02084611688272412
1468.6755744099924,1468.6755744099924,1.0073473127607622,0.020896621498121937
1468.6825189749736,1468.6825189749736,0.9784246805779284,0.02088337183281406
1468.6894635400015,1468.6894635400015,0.9999873491970181,0.020948257471171
1468.6964081049362,1468.6964081049362,0.9973633590972695,0.020992058515686255
1468.7033526697778,1468.7033526697778,1.0124582187065105,0.02092061250335314
1468.7102972345265,1468.7102972345265,0.98937501185745,0.020933292638700588
1468.7172417990885,1468.7172417990885,0.9998536713077997,0.020854024894780946
1468.7241863636978,1468.7241863636978,1.0006706811159658,0.020826707916446332
1468.7311309281667,1468.7311309281667,0.9785629487605807,0.020869685292336723
1468.7380754925425,1468.7380754925425,1.0071589981816969,0.020863383927304194
1468.7450200568721,1468.7450200568721,1.012514954339879,0.020845090384023587
1468.7519646210615,1468.7519646210615,1.0109743252011494,0.02078030229534526
1468.7589091852049,1468.7589091852049,1.0026262670698909,0.020772410243779533
1468.765853749255,1468.765853749255,1.0135962235502887,0.020760219820486783
1468.7727983132118,1468.7727983132118,0.9803535391393285,0.020665818512519633
1468.7797428770289,1468.7797428770289,0.9918215275632857,0.020673507944484578
1468.786687440846,1468.786687440846,0.994820024364795,0.020619076629634754
1468.793632004617,1468.793632004617,0.9979260965972021,0.020613157898688762
1468.8005765682014,1468.8005765682014,1.0015371526880177,0.020724652022303152
1468.807521131739,1468.807521131739,0.9993494836352298,0.020720274338525684
1468.8144656951838,1468.8144656951838,0.999751023286964,0.020695926113921945
1468.8214102585819,1468.8214102585819,1.0190352253593222,0.020738415193768227
1468.82835482184,1468.82835482184,1.0099564522941564,0.020746793362034284
1468.8352993850524,1468.8352993850524,1.0128997628304102,0.020764880556682984
1468.842243948124,1468.842243948124,0.9756724810326768,0.020724683498883838
1468.8491885111494,1468.8491885111494,0.9940107982707284,0.020802854327978747
1468.8561330740822,1468.8561330740822,1.003519846135594,0.020870480837568355
1468.8630776369682,1468.8630776369682,0.986864529966976,0.020835681943072237
1468.8700221996678,1468.8700221996678,0.9931159085441571,0.020871567138934146
1468.8769667623205,1468.8769667623205,1.0115848959852076,0.02095774842748825
1468.8839113249735,1468.8839113249735,1.001416789758738,0.020947860997512467
1468.8908558875341,1468.8908558875341,0.9973331743467009,0.020910950296327224
1468.897800449954,1468.897800449954,1.0058664035992155,0.02087727047595782
1468.9047450123276,1468.9047450123276,0.999458466862108,0.02086556074733402
1468.9116895745613,1468.9116895745613,0.9875760625588498,0.02088107787020322
1468.9186341367488,1468.9186341367488,1.0158401316471015,0.02089103179034138
1468.925578698843,1468.925578698843,0.9997162290826391,0.020902833787981003
1468.9325232608444,1468.9325232608444,0.9930431416230971,0.020912755290475267
1468.9394678227989,1468.9394678227989,1.0074743968128343,0.02098123957927136
1468.9464123846137,1468.9464123846137,1.009592775603081,0.020965172539287737
1468.9533569463351,1468.9533569463351,0.9937785215163295,0.02093840184652143
1468.9611348554356,1468.9611348554356,1.0006954994468846,0.020951857798705408
1468.9686349818903,1468.9686349818903,0.9888907583572315,0.02100715657976046
1468.975579543379,1468.975579543379,0.9965172488057583,0.021002588944825835
1468.9825241048213,1468.9825241048213,0.9871347602870599,0.020944231651856368
1468.9894686661241,1468.9894686661241,1.0212232536529513,0.02090879288680619
1468.9964132273337,1468.9964132273337,0.9888494818616979,0.020971380782920074
1469.0033577884965,1469.0033577884965,0.9959152747962812,0.020884901164322244
1469.0103023495199,1469.0103023495199,1.0073039389961334,0.020896118039322384
1469.0172469104964,1469.0172469104964,0.9983205944512342,0.02094044027079413
1469.0241914714268,1469.0241914714268,1.0201473492221806,0.02091108515026723
1469.0311360321707,1469.0311360321707,1.0006167537830133,0.020976446871685935
1469.038080592914,1469.038080592914,1.0119934021995143,0.02097417711939081
1469.045025153565,1469.045025153565,0.9822411096039328,0.0209664767442714
1469.0519697141222,1469.0519697141222,1.0037200839659275,0.02098687111277416
1469.0589142744939,1469.0589142744939,0.9883738272169215,0.02099933906543762
1469.0658588350514,1469.0658588350514,0.9930967824075498,0.020971931077141653
1469.0728033951896,1469.0728033951896,0.9913045488607486,0.021024366096269665
1469.0797479554683,1469.0797479554683,0.9929056030349264,0.021000092094182417
1469.0866925155594,1469.0866925155594,1.022943066278972,0.021091803121190765
1469.093637075605,1469.093637075605,1.0004886286687005,0.0210457158723743
1469.1005816356042,1469.1005816356042,1.0271700037606248,0.021004100064953568
1469.1075261954165,1469.1075261954165,0.9749208671631729,0.020944199636056357
1469.114470755276,1469.114470755276,1.0068133872460288,0.020878026142976368
1469.1214153149483,1469.1214153149483,0.9863045772350718,0.02091293888643455
1469.1283598745747,1469.1283598745747,1.0109621925092345,0.020888330528347113
1469.1353044341079,1469.1353044341079,0.9808703639317397,0.02084983014807921
1469.142248993548,1469.142248993548,1.0024317353816359,0.02089627610883995
1469.149193552895,1469.149193552895,0.9984616502839627,0.02087773008429767
1469.1561381122415,1469.1561381122415,1.008052796561478,0.02084728731190056
1469.1630826714486,1469.1630826714486,1.031232833168484,0.020899510616075437
1469.1700272305627,1469.1700272305627,0.9777697116469566,0.02081944654460493
1469.1769717895372,1469.1769717895372,0.9910794216756283,0.02077301113915441
1469.1839163485115,1469.1839163485115,1.0057731678987767,0.02080582018011781
1469.190860907346,1469.190860907346,0.9976612352595133,0.02074677821352995
1469.197805466134,1469.197805466134,1.004974723427932,0.020740181016969957
1469.2047500248286,1469.2047500248286,0.9975790417185681,0.020719914335885506
1469.211694583431,1469.211694583431,0.9834751893128644,0.020715978919032558
1469.2186391419395,1469.2186391419395,0.9888831333976734,0.020702513647467995
1469.2255837004013,1469.2255837004013,0.9904857738641741,0.020697727833704778
1469.232528258724,1469.232528258724,1.0064644211902443,0.020724162448755527
1469.2394728169998,1469.2394728169998,1.0116962078928646,0.020663919042257915
1469.2464173751828,1469.2464173751828,1.0093273057216359,0.020667560100302067
1469.2533619333185,1469.2533619333185,1.0015745622727092,0.020702047543226076
1469.2603064913146,1469.2603064913146,0.9961667137786456,0.020738772546325144
1469.2672510493114,1469.2672510493114,0.9839268174700386,0.020705390326903887
1469.2741956070754,1469.2741956070754,1.0065892751243293,0.020748778747338093
1469.2811401648855,1469.2811401648855,0.9994198090417111,0.020742376296968314
1469.2880847225092,1469.2880847225092,1.0024291736496354,0.02083082971739087
1469.295029280133,1469.295029280133,1.0038034763246462,0.020811281893360588
1469.3019738376172,1469.3019738376172,1.012223690141681,0.0208478985152514
1469.3089183950083,1469.3089183950083,0.9875581738704275,0.020833504666646574
1469.3158629523994,1469.3158629523994,1.0115536930839384,0.020907934399591606
1469.3228075096508,1469.3228075096508,0.9752364029293668,0.02083406522825356
1469.3297520668089,1469.3297520668089,0.9916451944851502,0.02090720623421288
1469.3366966239205,1469.3366966239205,1.0052183513139217,0.020946340684698216
1469.343641180986,1469.343641180986,1.0139989802851712,0.020983914632146904
1469.350585737818,1469.350585737818,1.0062079041989518,0.02095977284767942
1469.3575302946506,1469.3575302946506,0.9868536287947766,0.02095068217860417
1469.364474851483,1469.364474851483,0.9822954490655575,0.02099226339749124
1469.3714194081283,1469.3714194081283,1.0049207154103348,0.020945170661575325
1469.3783639647284,1469.3783639647284,0.9812955648618438,0.02090715446815118
1469.3853085211879,1469.3853085211879,1.0190928264889927,0.020913986928155368
1469.3922530776476,1469.3922530776476,0.9733784863032307,0.02090713032569738
1469.399197633968,1469.399197633968,1.0207827669519123,0.020902379044251407
1469.4061421901945,1469.4061421901945,1.0106328420277595,0.020932988154920732
1469.413086746375,1469.413086746375,0.9976067885135272,0.02093863944411046
1469.4200313024621,1469.4200313024621,1.006049701799862,0.020939542034120844
1469.4269758584562,1469.4269758584562,0.9863293643273263,0.020906625946612818
1469.4339204143575,1469.4339204143575,1.0047796979241734,0.020971799520770988
1469.4408649701184,1469.4408649701184,1.009497972530815,0.020982141306786585
1469.4478095260197,1469.4478095260197,0.9932584728249795,0.02096117884662619
1469.4547540816409,1469.4547540816409,1.0107309738641663,0.020971084718592985
1469.4616986371227,1469.4616986371227,0.9787087190640513,0.020903717743395347
1469.4686431926516,1469.4686431926516,0.9766992260729715,0.020968010230696322
1469.4755877480868,1469.4755877480868,1.0095091408194208,0.020865105380744146
1469.482532303382,1469.482532303382,0.9951614174785508,0.020755068536602268
1469.4894768586312,1469.4894768586312,0.9816578215939252,0.0207513195780265
1469.4964214137872,1469.4964214137872,0.986595811426174,0.020719694987864534
1469.5033659688502,1469.5033659688502,1.015793652238401,0.020701991776399156
1469.5103105238663,1469.5103105238663,1.003746833913582,0.020786641197137096
1469.5172550787424,1469.5172550787424,0.9879458234900669,0.020663488660387537
1469.5241996335728,1469.5241996335728,1.0119786143753118,0.020705360093542277
1469.5311441883096,1469.5311441883096,1.024154696791505,0.0207273500465621
1469.5380887429533,1469.5380887429533,1.0013909306765627,0.020797199420029066
1469.5450332974572,1469.5450332974572,0.98804887802801,0.02082995266316047
1469.551977851961,1469.551977851961,0.9915221689359406,0.02083144657768244
1469.5589224064647,1469.5589224064647,0.9921977018560462,0.020858700633524314
1469.565866960736,1469.565866960736,0.995262942055972,0.020874890511720208
1469.572811514961,1469.572811514961,1.0074315222588697,0.020897067381652087
1469.5797560691385,1469.5797560691385,0.9664962166686696,0.02093274469444622
1469.5867006231772,1469.5867006231772,1.0167409366401516,0.020885301064792954
1469.5936451771686,1469.5936451771686,0.9983515968833894,0.020881911124085276
1469.6005897310674,1469.6005897310674,1.019404068343104,0.0208735745498143
1469.607534284873,1469.607534284873,1.0053218554944703,0.020817173543327537
1469.6144788386318,1469.6144788386318,1.0027708462665363,0.02081851647745097
1469.6214233922512,1469.6214233922512,1.0065990647612744,0.020807648237357538
1469.6283679458236,1469.6283679458236,0.9678125728660824,0.020741025597974565
1469.635312499257,1469.635312499257,1.0240714435363831,0.02078394329996184
1469.6422570525963,1469.6422570525963,0.9837953267008303,0.020766532862362387
1469.649201605936,1469.649201605936,0.9968238659868028,0.02079150099521007
1469.65614615923,1469.65614615923,0.9990508333522706,0.02079295563231557
1469.663090712337,1469.663090712337,1.017472597421477,0.020830769391713192
1469.670035265397,1469.670035265397,0.9801272623886271,0.020803399926199756
1469.6769798183643,1469.6769798183643,1.0018051689637164,0.02086788136663418
1469.683924371285,1469.683924371285,1.0243813188316706,0.02086954586840229
1469.6908689240665,1469.6908689240665,1.0076093470103242,0.020906553033473878
1469.697813476801,1469.697813476801,0.9838467626489195,0.02085668206716693
1469.7047580294418,1469.7047580294418,0.999477255774854,0.020921423017763556
1469.7117025819898,1469.7117025819898,1.0005046315397426,0.02097445811414331
1469.7186471344453,1469.7186471344453,1.004168494695638,0.020973466169222264
1469.7255916868537,1469.7255916868537,1.0028834455518172,0.021037327126096163
1469.7325362391691,1469.7325362391691,0.9917327168899248,0.021070799345247745
1469.7394807914377,1469.7394807914377,0.9934597251388819,0.02103988802478017
1469.7464253435205,1469.7464253435205,1.0212172965220312,0.02109045638836351
1469.7533698955563,1469.7533698955563,0.9920185383421384,0.021094842961003883
1469.7603144475459,1469.7603144475459,0.9813778166491719,0.020986115024245376
1469.7672589993958,1469.7672589993958,1.0035268101230899,0.020969852847616023
1469.7742035511988,1469.7742035511988,0.9903260568070076,0.02087925959920266
1469.7811481029087,1469.7811481029087,1.001851607121405,0.020889330822518627
1469.7880926545254,1469.7880926545254,0.9986875567446247,0.02077262475484675
1469.795037206096,1469.795037206096,0.9978736888217863,0.020737309538796343
1469.8019817575732,1469.8019817575732,1.0163510906476698,0.02068428217448115
1469.8089263089107,1469.8089263089107,1.0179628360737498,0.020747842156912243
1469.8158708602482,1469.8158708602482,1.019356374863747,0.020688549128442382
1469.8228154114925,1469.8228154114925,0.9904125741909295,0.020707373286863628
1469.8297599625034,1469.8297599625034,1.011855921520953,0.020712634215562277
1469.8367045137015,1469.8367045137015,0.9883160474303573,0.020696482931813497
1469.8436490645267,1469.8436490645267,0.9909292632924389,0.02067840714445716
1469.850593615492,1469.850593615492,1.0188969702121158,0.020749591531621103
1469.8575381662708,1469.8575381662708,0.9730150419639745,0.02078493758654978
1469.8644827170026,1469.8644827170026,0.9902531183250411,0.02082489877114658
1469.8714272676416,1469.8714272676416,0.9980774757950994,0.020905622354118185
1469.878371818141,1469.878371818141,1.0106443816932245,0.020851229667668787
1469.8853163685937,1469.8853163685937,1.0249629775483835,0.020902037132872593
1469.8922609190001,1469.8922609190001,0.9968299545045765,0.020792979560625393
1469.8992054692658,1469.8992054692658,0.9880228805304437,0.020790796112745313
1469.9061500195326,1469.9061500195326,1.010536682180637,0.02076632765062015
1469.9130945696133,1469.9130945696133,0.9690648058568841,0.02077240045294175
1469.9200391196002,1469.9200391196002,1.0089154329105023,0.02075798454956395
1469.9269836696803,1469.9269836696803,0.9869660100687548,0.020809154892356393
1469.933928219528,1469.933928219528,1.0170500708199661,0.020759808508334383
1469.9408727693285,1469.9408727693285,1.0144567627149996,0.020808674246979103
1469.9478173189896,1469.9478173189896,1.0084595112203114,0.02077872884757564
1469.9547618686042,1469.9547618686042,0.9921439529089742,0.020766027352159384
1469.9617064181257,1469.9617064181257,1.0065152971426714,0.02078751439361963
1469.9686509676005,1469.9686509676005,0.9962648461090303,0.02081460948298413
1469.9755955169824,1469.9755955169824,0.9913203759164706,0.020807110766204232
1469.9825400663171,1469.9825400663171,0.9773409426842695,0.02078825819421346
1469.9894846154662,1469.9894846154662,1.019082930137231,0.020807427519536504
1469.9964291645686,1469.9964291645686,1.0054510933799243,0.020813956007111712
1470.0033737136243,1470.0033737136243,0.9779734160434911,0.02088534551919396
1470.0103182625871,1470.0103182625871,1.0065512799511906,0.020921041360693622
1470.0172628114099,1470.0172628114099,1.003092584644202,0.020871352686900442
1470.0242073602792,1470.0242073602792,1.0070222338888961,0.0209046837237054
1470.031151909009,1470.031151909009,1.0105519402363954,0.0208290088728162
1470.0380964575058,1470.0380964575058,1.0132082658347437,0.020853238235135945
1470.0450410060962,1470.0450410060962,0.9951940345845356,0.020853677697626537
1470.0519855545467,1470.0519855545467,0.9650986427262598,0.020819866932310697
1470.0589301029038,1470.0589301029038,0.997704271375175,0.02081424148792826
1470.0658746511679,1470.0658746511679,0.9907738001253742,0.02083960297611439
1470.0728191993853,1470.0728191993853,1.0228592520929034,0.020786246538778523
1470.0797637475098,1470.0797637475098,0.9947208786735582,0.020851180992209194
1470.0867082955413,1470.0867082955413,1.0207280940355536,0.02090736554249676
