time,time,flux,flux_err
1543.922451469608,1543.922451469608,1.0007851938813077,0.00026763262461621093
1543.9312479548807,1543.9312479548807,0.9997267540689263,0.00026720613494406696
1543.9423130076043,1543.9423130076043,0.9997431465247837,0.0002434353485515367
1543.9500909526655,1543.9500909526655,1.0001328208448184,0.00024334673149093572
1543.9587022491576,1543.9587022491576,1.0002297047250888,0.00024327315956068136
1543.9662024107342,1543.9662024107342,1.000057808428305,0.00024303246893883195
1543.9731470048298,1543.9731470048298,0.9997548158853495,0.00024301459134941475
1543.9800915989722,1543.9800915989722,1.0001681071909405,0.00024286477427879326
1543.9870361931607,1543.9870361931607,0.9998943867175136,0.00024267834197150254
1543.9939807874894,1543.9939807874894,1.0000956326502608,0.00024262050454839686
1544.0009253818644,1544.0009253818644,1.000086657078666,0.00024245911385630084
1544.0078699762857,1544.0078699762857,1.0001410020529486,0.00024223720498168103
1544.0148145708008,1544.0148145708008,1.0007608025956967,0.00024224961241115658
1544.0217591653618,1544.0217591653618,0.9997789808773504,0.00024203302250042162
1544.0287037600162,1544.0287037600162,0.9994315337163485,0.00024182389052221652
1544.035648354717,1544.035648354717,1.000010315704115,0.00024169719556886457
1544.042592949465,1544.042592949465,0.9998100505156732,0.00024160342656884986
1544.0495375442592,1544.0495375442592,1.0000720823772278,0.00024149795732851618
1544.056482139146,1544.056482139146,1.0001660925310545,0.00024139209799893145
1544.0634267340802,1544.0634267340802,0.9993921595872155,0.00024113428893956748
1544.070371329107,1544.070371329107,1.000093057403746,0.00024107965894581388
1544.077315924134,1544.077315924134,1.0001846903706426,0.00024102256354940763
1544.0842605192543,1544.0842605192543,1.0002114196371483,0.00024092207429989363
1544.091205114374,1544.091205114374,1.000413854442703,0.00024074857865055
1544.098149709541,1544.098149709541,0.9999307256805079,0.0002406130236063266
1544.1050943048006,1544.1050943048006,0.9999199300373643,0.00024052268144207823
1544.1120389001069,1544.1120389001069,1.000229031538732,0.00024045711257444244
1544.118983495553,1544.118983495553,0.9997328287408637,0.00024031504316097754
1544.1259280909057,1544.1259280909057,0.9995222972350719,0.0002402716348857443
1544.1328726863517,1544.1328726863517,0.9995588456326233,0.00024001873127215252
1544.1398172818444,1544.1398172818444,1.0006788146319903,0.00024013508113874274
1544.1467618773836,1544.1467618773836,1.0000860360155033,0.00023998296003359772
1544.1548176082574,1544.1548176082574,0.9997201522879624,0.000239868105315303
1544.1620399877002,1544.1620399877002,1.0001234799926348,0.00023981867761013135
1544.1689845833794,1544.1689845833794,0.9998441775504083,0.00023973522442283994
1544.1759291791043,1544.1759291791043,1.0001907610869716,0.00023962094073898542
1544.1828737748767,1544.1828737748767,0.9999300321722281,0.00023957202138300172
1544.1898183706485,1544.1898183706485,1.0001609555954136,0.00023951833355188826
1544.1967629664668,1544.1967629664668,1.000020300684309,0.00023948778217969512
1544.2037075623325,1544.2037075623325,0.9995548465984451,0.0002393796320777439
1544.2106521582903,1544.2106521582903,1.0004836603595904,0.0002394223327527892
1544.217596754202,1544.217596754202,1.0002884510487848,0.00023938349671186323
1544.2245413501605,1544.2245413501605,0.999782936132225,0.00023932567543387992
1544.2314859461653,1544.2314859461653,0.999775209071589,0.00023925725270887866
1544.2384305422165,1544.2384305422165,1.0002015329491813,0.00023927294466863266
1544.2453751382682,1544.2453751382682,0.9997051695010193,0.0002391838373370223
1544.2523197344121,1544.2523197344121,1.0001049085295572,0.00023923399070837378
1544.2592643305106,1544.2592643305106,0.9998338390760834,0.0002392043955313442
1544.2662089266548,1544.2662089266548,1.0003013011929933,0.00023925109638113815
1544.273153522846,1544.273153522846,1.0000410526649628,0.00023915160071988204
1544.2800981190837,1544.2800981190837,0.9999131692289376,0.00023918301137227423
1544.287042715275,1544.287042715275,1.0001411396531878,0.00023905778894397155
1544.2939873116054,1544.2939873116054,0.9997879418864484,0.00023897528190697093
1544.3009319078901,1544.3009319078901,0.9997036744816933,0.00023893078938304262
1544.3078765042205,1544.3078765042205,1.0000202565207161,0.00023894541748658047
1544.314821100505,1544.314821100505,1.0001756521707412,0.0002389392318164845
1544.3217656969289,1544.3217656969289,1.0000916632582488,0.00023882369199940278
1544.3287102933525,1544.3287102933525,0.9999837774349108,0.00023881855510373735
1544.3356548897768,1544.3356548897768,0.9998407367691412,0.00023880295146127225
1544.3425994862005,1544.3425994862005,0.9999945900956234,0.00023869718352963475
1544.3495440826243,1544.3495440826243,1.0001875795802173,0.0002386913931829355
1544.3564886790484,1544.3564886790484,1.0002357749923616,0.000238624801570513
1544.363433275612,1544.363433275612,0.9998414509031198,0.00023854905835310578
1544.370377872129,1544.370377872129,0.9996539196353151,0.00023845898188063597
1544.3773224685997,1544.3773224685997,1.0003323453792659,0.00023841146268920553
1544.3842670652098,1544.3842670652098,1.0002320596232308,0.00023841703091950629
1544.3912116617735,1544.3912116617735,1.0000129321688398,0.00023837858468520965
1544.3981562583367,1544.3981562583367,1.0000752370435761,0.0002382694311379511
1544.4051008549472,1544.4051008549472,0.9998532276964328,0.00023827784519860382
1544.4120454515573,1544.4120454515573,0.9998540103763263,0.00023818829672808906
1544.4189900481674,1544.4189900481674,0.9994354446352011,0.0002380001182147948
1544.4259346448243,1544.4259346448243,1.0000068463503347,0.0002380942455697148
1544.432879241481,1544.432879241481,1.0002943588538151,0.0002381069194224735
1544.4398238381377,1544.4398238381377,1.0000209578759547,0.0002381066723377923
1544.4467684348413,1544.4467684348413,1.00022877773932,0.00023801015883127388
1544.453713031498,1544.453713031498,0.9998865464061282,0.00023795721142941227
1544.4606576282476,1544.4606576282476,1.0002626189255417,0.00023792876381416176
1544.467602224951,1544.467602224951,0.9997977388679598,0.00023777308380821123
1544.4745468216543,1544.4745468216543,1.0003661402624435,0.00023787696166349087
1544.4814914184042,1544.4814914184042,0.9992818496620932,0.00023772079559598912
1544.488436015154,1544.488436015154,1.000276813208629,0.00023780978026228793
1544.495380611904,1544.495380611904,1.0004735470588293,0.00023778277417833743
1544.5023252087005,1544.5023252087005,0.999740481384757,0.00023767386986082076
1544.5092698054036,1544.5092698054036,0.9997589114544064,0.00023768403611827194
1544.5162144022465,1544.5162144022465,0.9999407696465047,0.0002377688762221305
1544.52315899895,1544.52315899895,1.0001337167274698,0.0002376104267816362
1544.530103595793,1544.530103595793,1.000136411194598,0.00023766485924960924
1544.5370481925895,1544.5370481925895,1.0003536010973657,0.00023770724922692198
1544.543992789386,1544.543992789386,0.9998328847581701,0.00023764043194178449
1544.5509373861357,1544.5509373861357,1.0001268772071983,0.00023762812943186159
1544.557881982932,1544.557881982932,0.999793164431831,0.00023769163690423204
1544.5648265797756,1544.5648265797756,1.0002318163537702,0.00023767801060482185
1544.5717711765715,1544.5717711765715,1.0004272717114762,0.00023771524352032727
1544.578715773368,1544.578715773368,1.000307785193976,0.0002376032964493605
1544.585660370211,1544.585660370211,0.9999412785134645,0.00023757174034030556
1544.5926049670538,1544.5926049670538,0.9993444403477365,0.00023750376499966398
1544.599549563897,1544.599549563897,0.9999810193257552,0.00023764229533938575
1544.6064941606933,1544.6064941606933,0.9999286608132734,0.00023749203046330775
1544.6134387575362,1544.6134387575362,0.9998514533832538,0.00023754816064344865
1544.6203833543332,1544.6203833543332,1.0003322678861182,0.00023762680902396252
1544.6273279511295,1544.6273279511295,0.9997252874844353,0.00023751226989529275
1544.6342725479724,1544.6342725479724,1.0007572589731244,0.0002375492197244402
1544.6426060641468,1544.6426060641468,1.000206755112194,0.0002375324178833876
1544.64955066099,1544.64955066099,0.9999313378994481,0.00023752351873057353
1544.6564952578328,1544.6564952578328,0.9995962433163748,0.00023749426550488429
1544.6634398546291,1544.6634398546291,0.9997436294456936,0.00023744358737421144
1544.6703844514723,1544.6703844514723,1.0005882923348508,0.00023755895768388198
1544.6773290482683,1544.6773290482683,1.0000479580132413,0.00023747778775573265
1544.6842736450187,1544.6842736450187,1.0000114953362336,0.00023744097091484787
1544.691218241815,1544.691218241815,0.9999472580807509,0.00023744962188503027
1544.6981628386116,1544.6981628386116,0.9998866998043688,0.0002375202353016625
1544.7051074354545,1544.7051074354545,1.0002812578238287,0.00023736063547830964
1544.7120520322044,1544.7120520322044,1.0001027665011837,0.00023739175487563435
1544.7189966290007,1544.7189966290007,0.999617553913561,0.00023742197929005213
1544.7259412257506,1544.7259412257506,1.000098473626726,0.0002374476459770823
1544.7328858225471,1544.7328858225471,1.0002039017878093,0.0002374363154562506
1544.739830419297,1544.739830419297,1.0002616170359786,0.00023746328346914368
1544.7467750160936,1544.7467750160936,1.0000549658069111,0.00023747881748673378
1544.7537196127967,1544.7537196127967,0.9995359374305102,0.00023741338894291234
1544.7606642095466,1544.7606642095466,1.000397926128542,0.00023745912356947147
1544.7676088062965,1544.7676088062965,0.9996844284454373,0.0002374174535524262
1544.7745534029996,1544.7745534029996,0.9997332211517358,0.0002374032423671922
1544.7814979997033,1544.7814979997033,0.9997171240467434,0.00023743101380650273
1544.788442596453,1544.788442596453,1.0002201107549311,0.0002374227586663052
1544.795387193156,1544.795387193156,1.0002757296534934,0.00023740606634197587
1544.802331789813,1544.802331789813,1.000515786863644,0.00023749391258166513
1544.809276386516,1544.809276386516,0.9999948586951156,0.00023739572463082618
1544.816220983173,1544.816220983173,0.9999314623301367,0.00023734553201864157
1544.8231655798295,1544.8231655798295,0.9998651800453366,0.00023738564902540992
1544.8301101764864,1544.8301101764864,1.0003116933650626,0.00023741750289248226
1544.8370547731429,1544.8370547731429,0.999700052873498,0.00023735194203086126
1544.8439993697532,1544.8439993697532,0.9996960657250206,0.00023735291249092294
1544.8509439663635,1544.8509439663635,1.0000316415220396,0.00023732143996403198
1544.8578885629736,1544.8578885629736,1.000019680368784,0.00023735473088474599
1544.864833159584,1544.864833159584,1.0004784932887247,0.00023733729039555163
1544.8717777561476,1544.8717777561476,1.0002240867838708,0.00023729192130493413
1544.878722352711,1544.878722352711,0.9999508957901833,0.00023724962490561212
1544.8856669493211,1544.8856669493211,1.0000975795910167,0.00023729260017841844
1544.8926115457919,1544.8926115457919,1.0000398842280687,0.00023719954075120554
1544.8995561423553,1544.8995561423553,1.0000214838245933,0.00023724113888658058
1544.9065007388722,1544.9065007388722,0.9998646067159225,0.00023723247353364053
1544.913445335296,1544.913445335296,0.9997441829836078,0.0002371539050765045
1544.9203899318597,1544.9203899318597,0.9995584569482823,0.00023712224778882842
1544.9273345283768,1544.9273345283768,1.000025136844094,0.00023720997439175126
1544.9342791248007,1544.9342791248007,0.9998163408915982,0.00023710897998945624
1544.9412237212243,1544.9412237212243,1.0004729661695548,0.00023716909046337482
1544.9481683176487,1544.9481683176487,1.0005381709673444,0.0002371437692916595
1544.9551129140723,1544.9551129140723,1.000363509914245,0.00023708878596918648
1544.9620575104962,1544.9620575104962,1.0000052832892397,0.0002370430419785632
1544.9690021068734,1544.9690021068734,0.9999599831347478,0.00023713919581272867
1544.9759467031115,1544.9759467031115,0.999931058911671,0.00023707480558175757
1544.982891299535,1544.982891299535,0.9994999008262196,0.00023698981273573486
1544.989835895866,1544.989835895866,1.0000994463913293,0.0002370403049983713
1544.99678049215,1544.99678049215,0.9998649738172796,0.00023699022316581105
1545.0037250884811,1545.0037250884811,0.9999956800307054,0.00023700238676087495
1545.010669684765,1545.010669684765,1.000194897951686,0.00023708560641367036
1545.0176142809562,1545.0176142809562,1.0000805435089302,0.00023702351821061938
1545.0245588772402,1545.0245588772402,1.0000364873910292,0.00023709323666944553
1545.031503473478,1545.031503473478,1.0003632650484011,0.00023704550812594298
1545.038448069669,1545.038448069669,0.9997111505051164,0.00023699044347304525
1545.0453926658604,1545.0453926658604,1.0003119185448113,0.0002369762837606574
1545.0523372620046,1545.0523372620046,1.0000473018186453,0.00023697188934862617
1545.0592818581956,1545.0592818581956,0.9998258705584897,0.00023694579205819113
1545.0662264543403,1545.0662264543403,1.000068778424136,0.0002370405976325585
1545.0731710503917,1545.0731710503917,0.9999376597115358,0.00023697202199908862
1545.0801156465361,1545.0801156465361,0.9996628189849762,0.00023695066001279934
1545.087060242541,1545.087060242541,0.9998590330813386,0.00023687197517669646
1545.0940048385921,1545.0940048385921,1.0003177386033442,0.0002369345286877204
1545.100949434644,1545.100949434644,1.0002828108582953,0.00023691315511456613
1545.1078940306484,1545.1078940306484,1.0002436132081762,0.0002369165237135185
1545.114838626653,1545.114838626653,0.9997101079622208,0.00023676098813728692
1545.1217832226116,1545.1217832226116,0.9999429623746074,0.00023682177405547875
1545.1287278185696,1545.1287278185696,1.000215858346118,0.00023689930614576087
1545.1356724144812,1545.1356724144812,0.9995419963670875,0.00023678640757259542
1545.1426170103466,1545.1426170103466,1.0002032090592472,0.0002367791012555036
1545.1495616063046,1545.1495616063046,1.0000907561204428,0.00023672159227877248
1545.15650620217,1545.15650620217,1.0000893977753933,0.00023680399449369465
1545.1634507979884,1545.1634507979884,0.9999152260232522,0.00023677549353899653
1545.17039539376,1545.17039539376,0.9998979669239547,0.00023675883911650021
1545.1773399895787,1545.1773399895787,0.9997613996421306,0.00023671436458857294
1545.1842845853505,1545.1842845853505,1.0003244621306238,0.00023676309659396004
1545.1912291810763,1545.1912291810763,0.9997263853517669,0.00023665712801478506
1545.1981737768015,1545.1981737768015,1.0004134978892831,0.00023673452394954488
1545.205118372527,1545.205118372527,0.9998393690860861,0.00023667190993199543
1545.2120629681592,1545.2120629681592,1.0002946085114854,0.0002366264508051333
1545.2190075638382,1545.2190075638382,0.9998099013706341,0.00023661653926556107
1545.2259521594701,1545.2259521594701,0.9998399935742297,0.0002366398475599797
1545.2328967550561,1545.2328967550561,1.0000436792219056,0.000236683418020384
1545.2398413506417,1545.2398413506417,0.9999845516247161,0.00023664492535469412
1545.2467859462272,1545.2467859462272,0.9999001864524985,0.0002366271263114953
1545.2537305417668,1545.2537305417668,0.9998589711147634,0.0002366624111134506
1545.260675137259,1545.260675137259,1.0003769958623283,0.0002367001895640956
1545.2676197327514,1545.2676197327514,1.0000657689844688,0.00023662359180140103
1545.2745643281978,1545.2745643281978,0.9998878711716092,0.00023670475396745842
1545.2815089236437,1545.2815089236437,0.9998984406512923,0.0002367276112950893
1545.2884535190433,1545.2884535190433,0.9998398223208383,0.0002366389040081004
1545.295398114396,1545.295398114396,1.000374764579656,0.00023670197311585336
1545.3023427097955,1545.3023427097955,0.9996034896686108,0.000236624911665924
1545.3092873051485,1545.3092873051485,0.9999660371146509,0.00023663807949930786
1545.3162319004082,1545.3162319004082,1.0000607108660406,0.00023663629158565086
1545.3231764956677,1545.3231764956677,0.9999417155221673,0.0002366129136494194
1545.3301210909274,1545.3301210909274,1.0003410660171492,0.00023667904995242067
1545.3370656861875,1545.3370656861875,1.0000796310422622,0.00023666735364728558
1545.3440102814468,1545.3440102814468,1.0002315126478858,0.00023666281157490337
1545.350954876474,1545.350954876474,0.9996615922822374,0.00023658398922660862
1545.3578994717334,1545.3578994717334,0.9998836785175783,0.00023658973189155663
1545.3648440667603,1545.3648440667603,0.9995769488767061,0.00023654916381874485
1545.371788661927,1545.371788661927,1.0003204375200352,0.00023662452050740888
1545.3787332569536,1545.3787332569536,0.9999142768282743,0.00023656998288383813
1545.3856778520274,1545.3856778520274,1.000033226440117,0.00023658033796144042
1545.3926224470076,1545.3926224470076,1.0003416698039869,0.00023667244435240817
1545.3995670419881,1545.3995670419881,1.000186306683292,0.000236527946393595
1545.4065116369684,1545.4065116369684,0.9997650913779965,0.0002364986931917602
1545.4134562318557,1545.4134562318557,0.9999726947871483,0.00023657981658747315
1545.4204008267893,1545.4204008267893,0.9997470933697071,0.00023656433763602022
1545.4273454216764,1545.4273454216764,1.000096322859553,0.00023651489810695318
1545.4342900164706,1545.4342900164706,0.9996064082686242,0.00023653404390482492
1545.441234611311,1545.441234611311,1.0002357475207058,0.00023650245009375101
1545.4481792061054,1545.4481792061054,1.000181756490244,0.00023651341490683363
1545.455123800853,1545.455123800853,1.000087277023252,0.000236486184035371
1545.462068395554,1545.462068395554,0.9998872759970829,0.00023651339782842772
1545.4690129902547,1545.4690129902547,1.0000080893844772,0.00023650466896126752
1545.475957584909,1545.475957584909,1.000258778670072,0.00023657259985236336
1545.48290217961,1545.48290217961,1.0001215800425751,0.00023647794857273915
1545.489846774171,1545.489846774171,0.9998076688752618,0.00023647931218580173
1545.4967913687792,1545.4967913687792,1.0000661436513858,0.00023646451517240244
1545.5037359633402,1545.5037359633402,0.9997245132109962,0.00023650336821094244
1545.5106805578084,1545.5106805578084,1.0000281209163746,0.00023650349729566344
1545.517625152323,1545.517625152323,1.000135047688877,0.0002365328532520799
1545.5245697467913,1545.5245697467913,1.0000382862050683,0.00023652825520361007
1545.5315143412126,1545.5315143412126,1.0000506632441792,0.00023655052104765728
1545.5384589356345,1545.5384589356345,1.0002752427829449,0.00023653542842758725
1545.545403530009,1545.545403530009,0.9999035494261209,0.00023647974327072925
1545.5523481243376,1545.5523481243376,1.0000955486435794,0.00023657265972659245
1545.5592927186658,1545.5592927186658,0.9998282331354338,0.00023647094976775545
1545.5662373129478,1545.5662373129478,0.9998624988073495,0.00023645800272572328
1545.5731819071366,1545.5731819071366,0.9999340926433871,0.00023647707987812863
1545.5801265014181,1545.5801265014181,1.0001350461889469,0.00023653906412637494
1545.5870710955141,1545.5870710955141,0.9999428901545026,0.0002364917575494496
1545.5940156897493,1545.5940156897493,1.000255035579722,0.00023649308371082953
1545.6009602839379,1545.6009602839379,0.9997483879569888,0.00023649641424723175
1545.6079048780334,1545.6079048780334,1.000394567657529,0.0002365787719546754
1545.614849471943,1545.614849471943,1.0002673436286948,0.00023654503701111884
1545.6217940659915,1545.6217940659915,0.9997072832515504,0.0002365085497558563
1545.6287386600875,1545.6287386600875,1.000018262303662,0.0002364843084356204
1545.63568325395,1545.63568325395,0.9998785659078917,0.00023651776992814668
1545.6426278479062,1545.6426278479062,1.0001234831298675,0.00023652017850196876
1545.6495724418157,1545.6495724418157,1.000109926711178,0.0002365466762036629
1545.6565170356782,1545.6565170356782,0.999840062901081,0.00023648353579039353
1545.6634616295407,1545.6634616295407,1.000008952267093,0.00023652387793857564
1545.6704062233573,1545.6704062233573,0.9998378584727863,0.00023651590430723624
1545.6773508170797,1545.6773508170797,0.9999400224464221,0.00023654089112553128
