time,time,flux,flux_err
1325.2994282812608,1325.2994282812608,0.9999783347253154,0.0002811753836264496
1325.3077617463819,1325.3077617463819,0.999990612709416,0.000281419026760163
1325.3160952117048,1325.3160952117048,0.9998426466200395,0.0002816985854602797
1325.3244286772112,1325.3244286772112,1.000302332852471,0.00028212478519886315
1325.3320676874312,1325.3320676874312,1.0000534336265514,0.0002577640546416873
1325.3390122423068,1325.3390122423068,0.9998646183851392,0.00025804245364431053
1325.3459567973168,1325.3459567973168,0.9998932061723543,0.0002583351982430787
1325.3529013524549,1325.3529013524549,1.000336202035222,0.0002587142129641726
1325.3598459077177,1325.3598459077177,0.999682750995747,0.0002590065315124001
1325.3667904631031,1325.3667904631031,0.9999715779471074,0.00025938831303056527
1325.3737350186161,1325.3737350186161,0.999859876880266,0.0002597035238461422
1325.3806795742462,1325.3806795742462,0.9993910348563416,0.0002600188175698124
1325.3876241299981,1325.3876241299981,1.0002893958894215,0.00026046734942866435
1325.3945686858663,1325.3945686858663,1.0003092985397637,0.00026085370139028766
1325.4015132418513,1325.4015132418513,1.0002719309146704,0.00026123581662907303
1325.4084577979552,1325.4084577979552,1.000177022761547,0.0002615949068540654
1325.41540235417,1325.41540235417,1.0001061372690099,0.00026204185730906713
1325.4223469104982,1325.4223469104982,0.9998915476771659,0.000262401671715725
1325.4292914669368,1325.4292914669368,0.9995646555058789,0.00026278683733356695
1325.4362360234834,1325.4362360234834,0.9998219645105173,0.00026317014695227366
1325.4431805801346,1325.4431805801346,1.0001730593037081,0.0002634828054313838
1325.4501251368995,1325.4501251368995,1.0001976451912913,0.0002637571135404756
1325.457069693772,1325.457069693772,0.9996453732667729,0.0002639788212522785
1325.4640142507433,1325.4640142507433,1.0000354354340206,0.00026429603364789964
1325.4709588078163,1325.4709588078163,1.0003748112339708,0.0002646187185071971
1325.4779033649888,1325.4779033649888,0.9999269588378409,0.00026487367700561167
1325.4848479222655,1325.4848479222655,0.9999698346938274,0.00026526624974876264
1325.491792479639,1325.491792479639,0.9997763580910464,0.00026557460271796676
1325.4987370371139,1325.4987370371139,0.9999936799719216,0.0002659796983706999
1325.5056815946787,1325.5056815946787,0.999724778135654,0.00026636172435752986
1325.51262615234,1325.51262615234,1.000098471226385,0.0002667912450146998
1325.5195707100943,1325.5195707100943,1.000448950030328,0.0002672172558458646
1325.5265152679385,1325.5265152679385,1.0003195656138004,0.0002676368915134838
1325.5334598258764,1325.5334598258764,1.0007558252254214,0.00026807469152037594
1325.540404383907,1325.540404383907,0.9997310991830052,0.00026840092618451105
1325.5473489420226,1325.5473489420226,0.9999572152814078,0.0002687905870190477
1325.5542935002218,1325.5542935002218,0.9998451193551698,0.00026914463367843565
1325.5612380585121,1325.5612380585121,0.9995534163067237,0.0002694833919211355
1325.5681826168804,1325.5681826168804,0.9997194459228048,0.00026981800207015536
1325.5751271753418,1325.5751271753418,1.0000623213542101,0.0002701717209305938
1325.5820717338763,1325.5820717338763,1.0002299762920948,0.00027045938755363986
1325.5890162924973,1325.5890162924973,0.999957454578192,0.0002706485189383296
1325.5959608512007,1325.5959608512007,1.000196322142252,0.0002709043039183274
1325.6029054099763,1325.6029054099763,0.9997530436418707,0.0002709990104231078
1325.6098499688337,1325.6098499688337,1.0000883858777594,0.00027117193040568073
1325.616794527767,1325.616794527767,1.0003483070274122,0.00027129640660067275
1325.6237390867786,1325.6237390867786,0.9999468381369301,0.0002713191627132231
1325.630683645863,1325.630683645863,1.0000869495514038,0.0002713368132380132
1325.63762820502,1325.63762820502,0.9998452927385724,0.00027127283335797743
1325.6445727642438,1325.6445727642438,1.0002197721667758,0.0002713018497747951
1325.6515173235466,1325.6515173235466,0.9996927500485887,0.00027120816986808953
1325.658461882916,1325.658461882916,0.9999384705915929,0.000271181530939665
1325.6654064423585,1325.6654064423585,0.999422380589419,0.0002710966663182257
1325.6723510018705,1325.6723510018705,0.9998728988352266,0.0002710666309852926
1325.6792955614442,1325.6792955614442,1.0002310292217675,0.0002710825267862738
1325.6862401210872,1325.6862401210872,1.0002242571975484,0.0002710946221851275
1325.693184680794,1325.693184680794,0.9996210065851848,0.00027100814512319
1325.7001292405687,1325.7001292405687,1.0003746006020047,0.00027114236148052177
1325.7070738004008,1325.7070738004008,1.0000025042161247,0.00027110718692259446
1325.7140183603028,1325.7140183603028,1.000160179689056,0.00027120875886709183
1325.720962920263,1325.720962920263,0.9998827449040097,0.0002712681989247005
1325.7279074802818,1325.7279074802818,0.9997862031456816,0.0002713674230846783
1325.7348520403643,1325.7348520403643,1.0002748445242058,0.00027150660851923156
1325.741796600502,1325.741796600502,1.0000802662047674,0.00027163581459919257
1325.7487411606983,1325.7487411606983,0.9994527808438614,0.00027174784706726336
1325.755685720953,1325.755685720953,1.0005219723700598,0.0002720199884388919
1325.7626302812653,1325.7626302812653,0.9996742594795022,0.0002721252551024432
1325.7695748416331,1325.7695748416331,1.0002332024550065,0.0002723090027515728
1325.7765194020562,1325.7765194020562,0.9998562193713839,0.00027245491529451416
1325.7834639625257,1325.7834639625257,0.9998354403681254,0.0002726087585714952
1325.7904085230537,1325.7904085230537,1.000014960442652,0.0002727489771214472
1325.7973530836339,1325.7973530836339,0.9997448732230433,0.0002728696863485066
1325.8042976442641,1325.8042976442641,1.000031555871494,0.00027299007276237206
1325.811242204946,1325.811242204946,1.0003008216394518,0.00027314487185821975
1325.8181867656779,1325.8181867656779,0.9998578482983012,0.00027317644415984115
1325.8251313264616,1325.8251313264616,1.0003877458185557,0.00027327505298472795
1325.8320758872865,1325.8320758872865,1.0000320402978247,0.00027328736679850237
1325.8390204481666,1325.8390204481666,1.0000833206495428,0.00027334112880308573
1325.8459650090872,1325.8459650090872,0.9999954221098939,0.00027329195750378573
1325.85290957006,1325.85290957006,0.9999053457569465,0.0002732064338700184
1325.859854131077,1325.859854131077,0.999048330002194,0.000273016532326209
1325.8667986921348,1325.8667986921348,1.000244849761429,0.0002730126890968364
1325.8737432532391,1325.8737432532391,0.9999653324629232,0.000272769973536927
1325.8806878143869,1325.8806878143869,1.0002699458299043,0.00027257555879927833
1325.8876323755753,1325.8876323755753,0.9996296685667238,0.00027230233225220224
1325.8945769368074,1325.8945769368074,1.0001087352836102,0.00027220211062336234
1325.9015214980805,1325.9015214980805,1.0003495596738126,0.0002720388641370492
1325.9084660593944,1325.9084660593944,1.0001189681666636,0.00027188942029777205
1325.9154106207484,1325.9154106207484,1.000099433033502,0.00027173715006433805
1325.922355182141,1325.922355182141,0.9997974618991554,0.0002715952853599485
1325.929299743574,1325.929299743574,0.9998602051106342,0.0002715047442197006
1325.9362443050418,1325.9362443050418,1.0002903869422555,0.00027143792169339914
1325.9431888665506,1325.9431888665506,1.0001228559141042,0.00027136448454609304
1325.9501334280944,1325.9501334280944,1.000034849703162,0.00027127561766335207
1325.9570779896787,1325.9570779896787,0.9997185193706141,0.00027116080953216466
1325.9651336811567,1325.9651336811567,1.000310489913017,0.00027121087796037885
1325.9723560252785,1325.9723560252785,0.9996016150607963,0.0002710956661855956
1325.97930058697,1325.97930058697,0.9999416541006539,0.0002711480265003074
1325.9862451486974,1325.9862451486974,1.0001111176615294,0.00027115438096562565
1325.9931897104532,1325.9931897104532,0.9998208240698446,0.00027115926285974605
1326.0001342722476,1326.0001342722476,1.0002692825160726,0.0002712271341254758
1326.0070788340702,1326.0070788340702,1.0001763924266789,0.000271340293955556
1326.0140233959314,1326.0140233959314,0.999799532083585,0.00027146907913491627
1326.0209679578124,1326.0209679578124,0.9999955046926573,0.000271662799741522
1326.0279125197346,1326.0279125197346,1.0004758352237528,0.00027186165343686937
1326.0348570816798,1326.0348570816798,0.9997682867670296,0.0002717861513789485
1326.0418016436597,1326.0418016436597,0.9998808870532144,0.00027169825229839026
1326.0487462056665,1326.0487462056665,0.9997044008166126,0.0002716624032763872
1326.0556907676987,1326.0556907676987,1.0001152416526398,0.00027173608662960677
1326.0626353297662,1326.0626353297662,0.9998169127282412,0.0002717352855284463
1326.0695798918541,1326.0695798918541,1.0001468872114605,0.00027179658963499945
1326.076524453974,1326.076524453974,0.9998084586064018,0.0002717787109719334
1326.0834690161173,1326.0834690161173,1.000220923713973,0.0002718077155117962
1326.0904135782896,1326.0904135782896,1.0003989193208924,0.0002718260250213388
1326.097358140485,1326.097358140485,0.9996297010838904,0.00027172578801823005
1326.104302702707,1326.104302702707,1.0004232985836947,0.0002718071596859365
1326.1112472649545,1326.1112472649545,0.9995105916091911,0.0002716696462560413
1326.1181918272232,1326.1181918272232,0.9997647762580015,0.00027171093543026985
1326.1251363895203,1326.1251363895203,1.0002535014768235,0.00027167388744549204
1326.1320809518384,1326.1320809518384,1.0002949202136475,0.00027169873265730273
1326.1390255141791,1326.1390255141791,0.999710043458931,0.00027158890720355296
1326.145970076541,1326.145970076541,0.9998277145408256,0.00027156978229540124
1326.1529146389255,1326.1529146389255,1.000526734687048,0.00027158120930802796
1326.1598592013306,1326.1598592013306,0.9999228347171141,0.00027150200405564294
1326.166803763765,1326.166803763765,1.000203296519031,0.00027145403900578175
1326.1737483262132,1326.1737483262132,0.9994695258920216,0.00027131737749652935
1326.1806928886829,1326.1806928886829,1.0000629570776587,0.0002713713109668781
1326.187637451175,1326.187637451175,0.9999520586775708,0.00027131110860579297
1326.1945820136875,1326.1945820136875,1.00022888465605,0.0002712630158035491
1326.2015265762152,1326.2015265762152,1.0002107938459877,0.00027118430833587197
1326.2084711387602,1326.2084711387602,0.9995915232905268,0.00027112863453609417
1326.2154157013308,1326.2154157013308,1.000268046758497,0.0002711198237654155
1326.2223602639165,1326.2223602639165,1.0002228605384462,0.000271053374847745
1326.2293048265224,1326.2293048265224,0.9998422765680776,0.00027095694807113607
1326.23624938914,1326.23624938914,1.000053468948161,0.00027092869718996486
1326.2431939517805,1326.2431939517805,0.9999611371752517,0.0002708683557016318
1326.2501385144365,1326.2501385144365,1.000449193378795,0.00027087832536337074
1326.2570830771092,1326.2570830771092,0.999544282227337,0.0002707498882274275
1326.2640276397965,1326.2640276397965,1.0001689342546807,0.0002707566957783055
1326.2709722025015,1326.2709722025015,0.9998517225915211,0.00027066350259185977
1326.2779167652177,1326.2779167652177,0.9995732339131365,0.0002705583601120105
1326.284861327958,1326.284861327958,1.0000818312572182,0.0002705724713254169
1326.291805890703,1326.291805890703,1.0001456648964737,0.0002705442246016238
1326.2987504534663,1326.2987504534663,0.9999368629579457,0.00027046539542104623
1326.3056950162438,1326.3056950162438,1.0000908774351458,0.0002704775500388862
1326.3126395790423,1326.3126395790423,0.9999888361866214,0.00027043813522860074
1326.319584141846,1326.319584141846,0.9999537183133429,0.00027043312832298233
1326.326528704664,1326.326528704664,1.0001015140987133,0.0002704289776369656
1326.333473267497,1326.333473267497,0.9999302211049825,0.0002704354466498163
1326.3404178303388,1326.3404178303388,0.9998908570140292,0.00027044099673366077
1326.3484735232573,1326.3484735232573,1.0000391174801515,0.00027047443805107424
1326.3570847812184,1326.3570847812184,0.999963830198641,0.0002704948814682672
1326.364029344107,1326.364029344107,0.9997758356318631,0.0002704924461399064
1326.370973907001,1326.370973907001,1.0002786412429614,0.0002705728501905147
1326.3779184699094,1326.3779184699094,0.9999949725428688,0.000270538522800764
1326.3848630328296,1326.3848630328296,1.0000117174166867,0.0002705787248719259
1326.3918075957586,1326.3918075957586,1.0000277023520514,0.0002705792315075511
1326.3987521587026,1326.3987521587026,1.000044641136903,0.0002706218876204518
1326.4056967216516,1326.4056967216516,1.0004142453735334,0.00027068365805980226
1326.4126412846103,1326.4126412846103,0.9997988382328025,0.00027063945278368867
1326.4195858475825,1326.4195858475825,0.9997890702324066,0.0002706420350197185
1326.4265304105606,1326.4265304105606,0.9999501773268872,0.0002706618735335544
1326.433474973545,1326.433474973545,0.9997431752647111,0.0002707060382680426
1326.440419536544,1326.440419536544,1.0000187979737205,0.000270738674710572
1326.4473640995486,1326.4473640995486,1.0002238252076123,0.00027078583958148187
1326.4543086625617,1326.4543086625617,0.9999019240525676,0.0002707630607668463
1326.461253225584,1326.461253225584,1.000296309524677,0.00027082621774201187
1326.4681977886148,1326.4681977886148,0.9997850801403111,0.00027074778651939757
1326.4751423516514,1326.4751423516514,1.0003965076251713,0.0002708028906090001
1326.482086914697,1326.482086914697,0.9996619888993072,0.0002707340988725662
1326.489031477748,1326.489031477748,0.9997894445795079,0.000270778674776326
1326.4959760408053,1326.4959760408053,0.9993868109069688,0.0002707389598597061
1326.5029206038678,1326.5029206038678,1.0004472023539168,0.00027088934613142947
1326.5098651669398,1326.5098651669398,1.0002592339821201,0.0002708975471996238
1326.5168097300198,1326.5168097300198,1.0000897883981537,0.00027087518092871446
1326.5237542931031,1326.5237542931031,1.0003984928685037,0.00027098457427051536
1326.5306988561922,1326.5306988561922,0.9997470531743247,0.00027097208105366163
1326.53764341929,1326.53764341929,1.00007902266089,0.0002710710059676847
1326.5445879823878,1326.5445879823878,0.9999033721277364,0.0002711301289005804
1326.5515325454971,1326.5515325454971,1.0001870423237622,0.00027124072362218817
1326.5584771086037,1326.5584771086037,0.9998965983514232,0.00027119715544757835
1326.5654216717217,1326.5654216717217,0.9997201521950092,0.0002711636139700072
1326.5723662348398,1326.5723662348398,0.9998192459989607,0.00027115608614428424
1326.579310797964,1326.579310797964,1.0000624736588521,0.00027117833002801735
1326.5862553610907,1326.5862553610907,0.9998581546576573,0.0002711786463492372
1326.5931999242237,1326.5931999242237,1.0002896690662726,0.00027120744049858
1326.600144487365,1326.600144487365,0.999943088166107,0.0002711573395700154
1326.6070890504948,1326.6070890504948,1.0002551202885281,0.0002712051358039672
1326.614033613639,1326.614033613639,0.9995939838478332,0.00027111480216892794
1326.6209781767861,1326.6209781767861,1.0002950624736233,0.00027116687645332543
1326.6279227399423,1326.6279227399423,0.999763201890189,0.00027105194785774836
1326.6348673030893,1326.6348673030893,0.9999893574818858,0.00027105294533193126
1326.6418118662455,1326.6418118662455,1.0000770361839302,0.0002710190932067603
1326.6487564294046,1326.6487564294046,1.0000189838591873,0.00027096935065818595
1326.6557009925632,1326.6557009925632,1.0000229527095184,0.000270883751676699
1326.6626455557252,1326.6626455557252,1.0001077836906749,0.00027080245541990995
1326.6695901188898,1326.6695901188898,1.000167202263664,0.00027071631326045257
1326.6765346820546,1326.6765346820546,1.0002234964622727,0.0002705982222461766
1326.683479245222,1326.683479245222,0.9998369361615091,0.0002704668015070648
1326.6918127210247,1326.6918127210247,0.9998063248392036,0.0002703141727257689
1326.698757284195,1326.698757284195,0.9998635042207509,0.0002702081847495042
1326.7057018473683,1326.7057018473683,0.9997379752193005,0.00027007184025923744
1326.7134797581193,1326.7134797581193,1.0002031114598025,0.0002699988816499751
1326.7209798863473,1326.7209798863473,0.9999173003924616,0.00026984205665747066
1326.7279244495207,1326.7279244495207,1.0003400711792476,0.0002697691847657655
1326.734869012697,1326.734869012697,0.9996924883077221,0.0002696145067534058
1326.7418135758708,1326.7418135758708,1.0002399240608477,0.0002695741386640442
1326.7487581390465,1326.7487581390465,0.999854228731809,0.00026944825926858136
1326.755702702223,1326.755702702223,0.9999194979146887,0.00026932061663295875
1326.7626472653967,1326.7626472653967,0.9998099201920777,0.0002692508207919538
1326.7695918285701,1326.7695918285701,1.000012020124637,0.00026918314794556047
1326.7765363917433,1326.7765363917433,1.0005106719434478,0.00026920269345636147
1326.7834809549197,1326.7834809549197,0.9999156776768624,0.0002690591038498429
1326.7904255180936,1326.7904255180936,1.0001957505015846,0.00026908466660296196
1326.7973700812636,1326.7973700812636,0.9997085084645823,0.0002689928502167684
1326.804314644435,1326.804314644435,0.9997494115066587,0.00026898853298729553
1326.8112592076077,1326.8112592076077,0.9999537908165431,0.00026896689090336165
1326.8182037707754,1326.8182037707754,1.0001713651914603,0.0002689378348224
1326.8251483339432,1326.8251483339432,1.000414330674959,0.00026894421663454626
1326.832092897108,1326.832092897108,0.9998501798957392,0.0002688514515576155
1326.8390374602725,1326.8390374602725,1.0000223844732794,0.0002688533477748288
1326.845982023437,1326.845982023437,0.9999883074123451,0.0002687597033774174
1326.852926586596,1326.852926586596,0.9997910109201333,0.0002686830689550481
1326.859871149755,1326.859871149755,1.0000324738986026,0.0002685877171444097
1326.8668157129111,1326.8668157129111,0.9998621425992413,0.0002684683302526093
1326.873760276067,1326.873760276067,0.9999429642612503,0.0002683356140607977
1326.8807048392168,1326.8807048392168,0.9999675594179843,0.00026819803959455526
1326.8876494023705,1326.8876494023705,0.9999622121334832,0.0002680398735444119
1326.8945939655143,1326.8945939655143,1.0000427187952006,0.00026786891001588745
1326.901538528659,1326.901538528659,1.0001357148738343,0.0002677025682030833
1326.9084830918032,1326.9084830918032,1.0002245591045802,0.00026750618430415477
1326.9154276549389,1326.9154276549389,0.9999556174336431,0.0002672461523078937
1326.9223722180773,1326.9223722180773,1.0001009634396811,0.0002670685381261805
1326.9293167812073,1326.9293167812073,0.9996447378719528,0.00026681261070063265
1326.936261344334,1326.936261344334,1.0002232226649022,0.0002667004943205173
1326.9432059074607,1326.9432059074607,0.9996786601976659,0.00026642878011765524
1326.9501504705822,1326.9501504705822,1.0003848587370325,0.00026636111565147056
1326.9570950337002,1326.9570950337002,1.0000152224128869,0.00026614647826859626
1326.9640395968156,1326.9640395968156,1.0000202894375152,0.0002660136699475486
1326.970984159925,1326.970984159925,0.9999031765301462,0.0002658009527066179
1326.9779287230313,1326.9779287230313,1.0001641867803341,0.00026569105238649957
1326.984873286135,1326.984873286135,0.9998484616895041,0.00026552632396236516
1326.9918178492358,1326.9918178492358,0.9996391352039998,0.00026543035001322455
1326.9987624123278,1326.9987624123278,0.9998556392187161,0.00026529446737147866
1327.0057069754198,1327.0057069754198,1.0005431698516953,0.00026531690144651
1327.012651538503,1327.012651538503,0.9998493122814299,0.0002651998362847948
1327.0195961015859,1327.0195961015859,1.0004002333312587,0.0002651618284662862
1327.0265406646606,1327.0265406646606,1.000230826722166,0.0002651427254063656
1327.0334852277324,1327.0334852277324,0.9995200278029219,0.0002650123903508941
1327.0404297908003,1327.0404297908003,0.9995417641566521,0.000264988471404148
1327.047374353861,1327.047374353861,0.9998288449595674,0.00026496995932977024
1327.0543189169148,1327.0543189169148,1.0005476026162268,0.00026502787200347093
1327.0623746100578,1327.0623746100578,1.0000593722660873,0.00026495422830873517
