time,time,flux,flux_err
1354.1115760150537,1354.1115760150537,1.0001881,0.00088172196
1354.1129648895162,1354.1129648895162,0.9995515,0.00088156015
1354.1157426386721,1354.1157426386721,0.99923736,0.0008803053
1354.117131513251,1354.117131513251,0.99864113,0.0008812387
1354.1185203878294,1354.1185203878294,0.9988177,0.0008814591
1354.1199092624076,1354.1199092624076,0.998642,0.00088116014
1354.1212981369858,1354.1212981369858,0.9992138,0.000881549
1354.1226870115647,1354.1226870115647,0.99940753,0.00088172214
1354.1240758861438,1354.1240758861438,0.99905545,0.0008813214
1354.125464760722,1354.125464760722,0.99971974,0.00088194985
1354.1268536353004,1354.1268536353004,1.0003256,0.00088176335
1354.1282425098784,1354.1282425098784,1.0014814,0.0008820653
1354.1296313844568,1354.1296313844568,0.9987541,0.0008813025
1354.1310202591521,1354.1310202591521,1.0002148,0.0008815622
1354.1324091337306,1354.1324091337306,0.9999002,0.0008816963
1354.1337980083085,1354.1337980083085,0.9984105,0.00088090845
1354.1351868828876,1354.1351868828876,1.0004497,0.000881952
1354.1365757574658,1354.1365757574658,0.99830526,0.0008812483
1354.1379646320447,1354.1379646320447,0.9984834,0.00088106556
1354.1393535067396,1354.1393535067396,1.0008318,0.0008821515
1354.140742381317,1354.140742381317,0.9985389,0.0008809165
1354.142131255896,1354.142131255896,1.0004159,0.00088182325
1354.1435201305912,1354.1435201305912,0.99914557,0.00088148704
1354.1449090051697,1354.1449090051697,0.99843144,0.0008812509
1354.1462978797479,1354.1462978797479,0.99822396,0.0008810609
1354.147686754326,1354.147686754326,1.0000452,0.00088147057
1354.1490756290214,1354.1490756290214,0.9995824,0.00088136364
1354.1504645036005,1354.1504645036005,1.0020872,0.0008822647
1354.1518533782946,1354.1518533782946,1.0002381,0.0008818194
1354.1532422528726,1354.1532422528726,1.0005376,0.00088167685
1354.1546311275679,1354.1546311275679,0.999682,0.0008814691
1354.156020002147,1354.156020002147,0.9998066,0.00088169717
1354.1574088767252,1354.1574088767252,0.9998651,0.0008815254
1354.1587977514191,1354.1587977514191,0.99932635,0.00088155916
1354.160186625998,1354.160186625998,1.0002358,0.00088149426
1354.1615755006935,1354.1615755006935,1.0011821,0.0008821071
1354.1629643753881,1354.1629643753881,0.99913746,0.0008815457
1354.1643532499666,1354.1643532499666,1.001225,0.0008821728
1354.165742124661,1354.165742124661,0.99969256,0.0008813672
1354.16713099924,1354.16713099924,1.0000669,0.00088177767
1354.1685198739356,1354.1685198739356,1.0018195,0.0008821996
1354.1699087486295,1354.1699087486295,0.99977607,0.00088169164
1354.1712976232077,1354.1712976232077,1.0010589,0.00088231213
1354.1726864979032,1354.1726864979032,1.0004383,0.00088198826
1354.1740753725976,1354.1740753725976,1.00063,0.00088166783
1354.1754642471765,1354.1754642471765,1.0004493,0.0008816257
1354.1768531218713,1354.1768531218713,1.0003235,0.00088181655
1354.1782419965662,1354.1782419965662,0.99902046,0.0008812885
1354.1796308712615,1354.1796308712615,0.9983647,0.00088081474
1354.1810197458394,1354.1810197458394,1.0006199,0.0008820039
1354.182408620535,1354.182408620535,0.99846905,0.00088108424
1354.1837974952296,1354.1837974952296,0.999622,0.0008816372
1354.1851863699235,1354.1851863699235,0.9997922,0.0008815064
1354.186575244619,1354.186575244619,0.99938345,0.0008814523
1354.1879641193145,1354.1879641193145,1.0012941,0.0008820871
1354.189352994009,1354.189352994009,0.99969494,0.0008813869
1354.1907418685873,1354.1907418685873,1.001544,0.0008819779
1354.192130743282,1354.192130743282,0.99976057,0.00088156346
1354.1935196179775,1354.1935196179775,0.99927044,0.00088143157
1354.1949084926728,1354.1949084926728,0.99986595,0.000881452
1354.1962973673667,1354.1962973673667,1.0006078,0.0008816162
1354.1976862420613,1354.1976862420613,0.99978364,0.00088124565
1354.1990751167568,1354.1990751167568,0.99921227,0.0008812501
1354.2004639914521,1354.2004639914521,0.99983764,0.000881539
1354.2018528661465,1354.2018528661465,1.0003717,0.0008816359
1354.203241740957,1354.203241740957,1.002784,0.00088267267
1354.2046306156526,1354.2046306156526,0.9977327,0.000880734
1354.206019490348,1354.206019490348,1.0006663,0.00088198617
1354.2074083650423,1354.2074083650423,0.99881303,0.0008812965
1354.2087972397371,1354.2087972397371,0.9996316,0.00088146166
1354.210186114432,1354.210186114432,1.0002646,0.0008814911
1354.2115749891273,1354.2115749891273,1.0012484,0.00088213664
1354.212963863939,1354.212963863939,1.0012093,0.0008816557
1354.214352738633,1354.214352738633,0.9994359,0.0008815111
1354.2157416133277,1354.2157416133277,0.99986774,0.0008814116
1354.217130488023,1354.217130488023,1.0013725,0.0008821631
1354.218519362834,1354.218519362834,0.99785066,0.00088076974
1354.2199082375296,1354.2199082375296,1.0004146,0.00088168273
1354.221297112224,1354.221297112224,0.9994825,0.00088140956
1354.2226859869188,1354.2226859869188,1.0010674,0.0008819448
1354.2240748617305,1354.2240748617305,0.999067,0.0008812174
1354.2254637364254,1354.2254637364254,0.9992092,0.00088091905
1354.2268526111197,1354.2268526111197,1.0009516,0.0008818356
1354.228241485931,1354.228241485931,1.0013483,0.0008821145
1354.2296303606256,1354.2296303606256,0.9991593,0.000881243
1354.2310192354375,1354.2310192354375,1.0004522,0.0008817422
1354.2324081101328,1354.2324081101328,0.99914294,0.000881321
1354.2337969849439,1354.2337969849439,1.0003666,0.00088139565
1354.2351858596385,1354.2351858596385,0.9997971,0.000881687
1354.2365747344497,1354.2365747344497,1.0001318,0.00088151096
1354.237963609145,1354.237963609145,1.0004537,0.0008819368
1354.2393524839567,1354.2393524839567,0.99911624,0.00088110537
1354.2407413586507,1354.2407413586507,0.9994783,0.0008816634
1354.242130233462,1354.242130233462,1.0006946,0.0008819938
1354.2435191081572,1354.2435191081572,0.9995511,0.00088155095
1354.244907982969,1354.244907982969,1.0007285,0.0008819209
1354.2462968576638,1354.2462968576638,0.99994993,0.0008816408
1354.247685732474,1354.247685732474,1.0002586,0.00088116893
1354.2490746072858,1354.2490746072858,1.0003021,0.0008815875
1354.2504634819811,1354.2504634819811,0.9988775,0.0008811237
1354.2518523567924,1354.2518523567924,0.99856913,0.00088123995
1354.2532412316032,1354.2532412316032,1.0008682,0.00088194216
1354.2546301064144,1354.2546301064144,1.0001739,0.00088145805
1354.2560189811097,1354.2560189811097,1.0008504,0.00088163203
1354.2574078559214,1354.2574078559214,0.99890584,0.0008811512
1354.2587967307318,1354.2587967307318,0.99856794,0.0008808486
1354.260185605543,1354.260185605543,0.998782,0.00088122184
1354.2615744802383,1354.2615744802383,1.0004644,0.0008814527
1354.2629633550496,1354.2629633550496,1.0003217,0.0008811241
1354.2643522298613,1354.2643522298613,0.9989965,0.0008810607
1354.2657411046723,1354.2657411046723,1.0014292,0.00088181585
1354.2671299794833,1354.2671299794833,1.0007235,0.00088178326
1354.268518854295,1354.268518854295,1.000163,0.00088154397
1354.26990772899,1354.26990772899,0.9995604,0.00088117586
1354.2712966038011,1354.2712966038011,1.0006382,0.0008813869
1354.272685478612,1354.272685478612,1.0006034,0.000882016
1354.2740743534232,1354.2740743534232,1.0004498,0.00088168046
1354.275463228235,1354.275463228235,0.999806,0.0008813904
1354.2768521030466,1354.2768521030466,0.9992115,0.00088139443
1354.2782409778579,1354.2782409778579,0.9992095,0.0008813436
1354.2796298526687,1354.2796298526687,1.001165,0.000881951
1354.28101872748,1354.28101872748,1.0007664,0.0008818517
1354.2824076022916,1354.2824076022916,1.0006561,0.0008815403
1354.283796477103,1354.283796477103,1.001493,0.0008819677
1354.2851853519132,1354.2851853519132,1.0003718,0.00088168087
1354.286574226725,1354.286574226725,0.99942887,0.0008812727
1354.2879631015367,1354.2879631015367,0.9998885,0.00088153523
1354.2893519764648,1354.2893519764648,0.9989747,0.0008813597
1354.290740851276,1354.290740851276,0.9989403,0.00088117644
1354.2921297260864,1354.2921297260864,0.999497,0.000881388
1354.293518600898,1354.293518600898,1.000498,0.00088165194
1354.2949074757098,1354.2949074757098,0.997872,0.00088090706
1354.2962963505204,1354.2962963505204,0.9978969,0.00088050985
1354.2976852254478,1354.2976852254478,1.0005106,0.0008819382
1354.2990741002595,1354.2990741002595,1.0001062,0.00088141044
1354.3004629750712,1354.3004629750712,1.0014322,0.00088180153
1354.3018518498832,1354.3018518498832,0.9999373,0.0008813771
1354.3032407248102,1354.3032407248102,1.0010507,0.0008818433
1354.304629599621,1354.304629599621,1.0015315,0.0008822549
1354.3060184744327,1354.3060184744327,0.9987113,0.00088092475
1354.307407349244,1354.307407349244,0.99909925,0.0008811743
1354.308796224172,1354.308796224172,1.0008461,0.0008818739
1354.3101850989833,1354.3101850989833,1.0008465,0.0008816383
1354.3115739739108,1354.3115739739108,0.9981722,0.0008806783
1354.3129628487227,1354.3129628487227,1.0005606,0.0008815847
1354.3143517235335,1354.3143517235335,1.0004838,0.0008815694
1354.3157405984612,1354.3157405984612,0.9989279,0.0008809932
1354.3171294732722,1354.3171294732722,1.0001444,0.0008815449
1354.3185183481996,1354.3185183481996,1.000576,0.0008814293
1354.3199072230113,1354.3199072230113,0.9996538,0.0008809588
1354.321296097823,1354.321296097823,0.9986641,0.0008810413
1354.3226849727507,1354.3226849727507,0.9994649,0.00088135357
1354.324073847562,1354.324073847562,0.9996058,0.0008814474
1354.3254627224892,1354.3254627224892,1.000806,0.0008815989
1354.3268515974173,1354.3268515974173,0.9994862,0.0008811308
1354.3282404722286,1354.3282404722286,0.9999862,0.0008812112
1354.3296293471553,1354.3296293471553,1.0002109,0.00088160613
1354.331018221967,1354.331018221967,1.0015562,0.0008818208
1354.3324070968954,1354.3324070968954,0.99899733,0.0008808421
1354.3337959717073,1354.3337959717073,0.99987775,0.00088162214
1354.3351848466345,1354.3351848466345,1.0000021,0.0008816031
1354.3365737215613,1354.3365737215613,1.0016229,0.00088181795
1354.3379625963732,1354.3379625963732,1.0023637,0.00088225346
1354.3393514713016,1354.3393514713016,1.0006058,0.00088156696
1354.3407403462284,1354.3407403462284,0.99943733,0.00088133145
1354.3421292210392,1354.3421292210392,1.000995,0.0008816404
1354.3435180959675,1354.3435180959675,0.9997067,0.0008814277
1354.3449069708959,1354.3449069708959,1.0001987,0.00088152546
1354.3462958457076,1354.3462958457076,0.99951947,0.00088119786
1354.3476847206343,1354.3476847206343,0.99983734,0.0008812169
1354.3490735955618,1354.3490735955618,0.99946445,0.0008814384
1354.3504624704901,1354.3504624704901,1.0008961,0.0008815789
1354.3518513454173,1354.3518513454173,0.9982263,0.0008810074
1354.3532402202286,1354.3532402202286,0.9998236,0.0008814337
1354.354629095156,1354.354629095156,0.9980519,0.00088064343
1354.3560179700844,1354.3560179700844,0.99828464,0.00088084175
1354.3574068450125,1354.3574068450125,1.0002075,0.0008815796
1354.35879571994,1354.35879571994,1.0011415,0.00088166154
1354.3601845948674,1354.3601845948674,0.9986417,0.0008809295
1354.361573469795,1354.361573469795,0.99950314,0.000881198
1354.3629623446059,1354.3629623446059,0.99953824,0.0008813845
1354.3643512195342,1354.3643512195342,0.9990669,0.00088094984
1354.3657400944626,1354.3657400944626,1.0003197,0.00088177866
1354.3671289693898,1354.3671289693898,0.99930006,0.0008810417
1354.3685178443175,1354.3685178443175,0.999049,0.0008811942
1354.369906719245,1354.369906719245,0.99943006,0.0008810319
1354.3712955941733,1354.3712955941733,1.0009315,0.0008817976
1354.3726844691005,1354.3726844691005,1.0001041,0.0008817004
1354.3740733440272,1354.3740733440272,1.0000995,0.00088114897
1354.3754622189556,1354.3754622189556,1.00021,0.00088136323
1354.376851093884,1354.376851093884,1.0004042,0.00088137103
1354.378239968812,1354.378239968812,1.0003315,0.0008814462
1354.3796288437395,1354.3796288437395,1.0004518,0.00088130037
1354.3810177186665,1354.3810177186665,1.0004779,0.00088155805
1354.382406593711,1354.382406593711,0.9994822,0.00088155834
1354.3837954686392,1354.3837954686392,0.9996784,0.00088126253
1354.385184343566,1354.385184343566,1.0001143,0.00088130566
1354.3865732184936,1354.3865732184936,1.0005684,0.00088157546
1354.3879620934217,1354.3879620934217,1.0007825,0.0008814452
1354.3893509683498,1354.3893509683498,1.000762,0.0008813113
1354.390739843278,1354.390739843278,1.0011802,0.00088155735
1354.3921287183211,1354.3921287183211,1.0004631,0.00088149845
1354.3935175932488,1354.3935175932488,1.0001032,0.00088141044
1354.394906468177,1354.394906468177,0.99911016,0.0008808578
1354.3962953431046,1354.3962953431046,1.0000271,0.00088151323
1354.3976842181482,1354.3976842181482,1.0004597,0.0008815101
1354.399073093076,1354.399073093076,0.9999434,0.00088143314
1354.400461968004,1354.400461968004,1.0003998,0.0008815717
1354.4018508429322,1354.4018508429322,0.99880856,0.0008806476
1354.4032397179762,1354.4032397179762,0.99929965,0.0008810488
1354.4046285929035,1354.4046285929035,1.0009259,0.0008816742
1354.4060174678311,1354.4060174678311,1.0003606,0.00088161987
1354.4074063428752,1354.4074063428752,1.0018673,0.0008819853
1354.4087952178033,1354.4087952178033,0.9995352,0.0008810388
1354.4101840927315,1354.4101840927315,0.9995411,0.000881177
1354.4115729677753,1354.4115729677753,1.0008218,0.00088188704
1354.4129618427028,1354.4129618427028,1.0000421,0.0008812585
1354.4143507177469,1354.4143507177469,1.000683,0.0008815304
1354.415739592675,1354.415739592675,0.9998231,0.00088091026
1354.4171284676027,1354.4171284676027,0.9997112,0.0008810403
1354.4185173426458,1354.4185173426458,0.9990624,0.0008812472
1354.419906217574,1354.419906217574,0.99963135,0.0008810855
1354.4212950926185,1354.4212950926185,1.0000937,0.0008813826
1354.4226839675466,1354.4226839675466,1.0003095,0.0008813674
1354.4240728425907,1354.4240728425907,1.0005789,0.00088167377
1354.4254617175175,1354.4254617175175,1.0000216,0.00088105124
1354.426850592562,1354.426850592562,1.0000819,0.0008812115
1354.4282394674901,1354.4282394674901,1.0015509,0.0008816387
1354.4296283425333,1354.4296283425333,1.0004042,0.00088129344
1354.4310172175774,1354.4310172175774,0.9994344,0.0008811587
1354.4324060925055,1354.4324060925055,1.0001161,0.00088133966
1354.43379496755,1354.43379496755,1.0012554,0.0008816933
1354.4351838424782,1354.4351838424782,1.0026305,0.00088245864
1354.4365727175214,1354.4365727175214,1.0003887,0.00088119577
1354.4379615925654,1354.4379615925654,1.0004284,0.00088143355
1354.4393504674936,1354.4393504674936,0.99943745,0.0008809915
1354.4407393425377,1354.4407393425377,1.0000793,0.00088149257
1354.442128217465,1354.442128217465,0.9998166,0.0008811803
1354.443517092509,1354.443517092509,0.99979645,0.00088090677
1354.4449059675535,1354.4449059675535,0.9984445,0.00088072213
1354.446294842598,1354.446294842598,0.99897337,0.00088078255
1354.4476837175257,1354.4476837175257,1.0000954,0.0008812285
1354.4490725925698,1354.4490725925698,1.0002056,0.0008810461
1354.4504614676134,1354.4504614676134,1.00051,0.00088144804
1354.451850342541,1354.451850342541,1.0002011,0.000880906
1354.4532392175856,1354.4532392175856,0.9992334,0.0008810216
1354.4546280926302,1354.4546280926302,0.99888074,0.0008811402
1354.4560169676743,1354.4560169676743,1.0011631,0.00088199624
1354.4574058427181,1354.4574058427181,0.9993331,0.0008807268
1354.4587947176456,1354.4587947176456,1.0004202,0.0008815528
1354.46018359269,1354.46018359269,0.99949586,0.0008813967
1354.4615724677342,1354.4615724677342,1.000501,0.0008814533
1354.4629613427774,1354.4629613427774,1.0001644,0.0008814604
1354.464350217822,1354.464350217822,0.9987262,0.00088093086
1354.4657390928664,1354.4657390928664,0.99940467,0.0008811231
1354.4671279677946,1354.4671279677946,0.99987876,0.00088134577
1354.4685168428387,1354.4685168428387,1.0001901,0.0008812746
1354.4699057178818,1354.4699057178818,0.999398,0.0008811961
1354.4712945929264,1354.4712945929264,1.0000706,0.00088130066
1354.472683467971,1354.472683467971,0.99882275,0.00088075415
1354.4740723430143,1354.4740723430143,1.0010216,0.0008817505
1354.4754612180582,1354.4754612180582,1.0005819,0.00088155264
1354.4768500931027,1354.4768500931027,1.0002214,0.00088122115
1354.4782389681475,1354.4782389681475,1.0004964,0.00088157464
1354.4796278431922,1354.4796278431922,1.0011004,0.0008815748
1354.4810167182354,1354.4810167182354,0.9998933,0.00088126905
1354.482405593279,1354.482405593279,1.0006409,0.00088141114
1354.4837944683238,1354.4837944683238,0.99948233,0.00088081515
1354.4851833433677,1354.4851833433677,1.0002078,0.00088108133
1354.4865722184118,1354.4865722184118,0.99872273,0.0008806583
1354.4879610934554,1354.4879610934554,1.0001014,0.0008814284
1354.4893499685002,1354.4893499685002,1.0005968,0.0008813366
1354.490738843545,1354.490738843545,0.9995146,0.00088109885
1354.4921277185886,1354.4921277185886,1.0007863,0.0008815079
1354.4935165936326,1354.4935165936326,0.9994762,0.0008810763
1354.4949054686765,1354.4949054686765,0.99906904,0.0008807692
1354.4962943438368,1354.4962943438368,1.0010312,0.0008815972
1354.4976832188813,1354.4976832188813,0.9994764,0.0008812493
1354.499072093926,1354.499072093926,1.000715,0.0008813666
1354.50046096897,1354.50046096897,1.0001984,0.0008814632
1354.501849844014,1354.501849844014,1.0005343,0.0008811821
1354.5032387190577,1354.5032387190577,1.0000503,0.0008811488
1354.5046275942188,1354.5046275942188,0.99923503,0.0008811792
1354.5060164692627,1354.5060164692627,0.999746,0.0008810826
1354.5074053443059,1354.5074053443059,1.0000088,0.00088120194
1354.5087942193504,1354.5087942193504,1.000302,0.00088120595
1354.5101830943952,1354.5101830943952,0.9994703,0.0008809402
1354.5115719695564,1354.5115719695564,0.99869835,0.00088070775
1354.5129608446,1354.5129608446,1.0003039,0.0008814684
1354.5143497196432,1354.5143497196432,1.0010458,0.00088180916
1354.515738594688,1354.515738594688,0.9995334,0.0008809145
1354.5171274698491,1354.5171274698491,1.0009055,0.0008813482
1354.5185163448923,1354.5185163448923,1.0010142,0.0008816525
1354.5199052199362,1354.5199052199362,0.99935484,0.00088084023
1354.5212940950973,1354.5212940950973,1.0020882,0.0008820605
1354.522682970142,1354.522682970142,0.9990678,0.000880982
1354.5240718451864,1354.5240718451864,0.9997441,0.0008810284
1354.525460720346,1354.525460720346,0.99951994,0.0008810762
1354.52684959539,1354.52684959539,0.9999836,0.00088101986
1354.5282384704346,1354.5282384704346,0.9996396,0.000880989
1354.5296273455947,1354.5296273455947,0.9990395,0.00088094856
1354.5310162206388,1354.5310162206388,1.0002213,0.00088117266
1354.5324050957993,1354.5324050957993,0.999719,0.00088110426
1354.5337939708438,1354.5337939708438,0.99990404,0.00088104757
1354.5351828458884,1354.5351828458884,0.9988483,0.0008805695
1354.5365717210489,1354.5365717210489,0.9995587,0.0008811241
1354.5379605960925,1354.5379605960925,0.99959606,0.0008812279
1354.539349471253,1354.539349471253,1.0000743,0.0008815626
1354.5407383462968,1354.5407383462968,0.99937403,0.00088095054
1354.542127221458,1354.542127221458,1.0004228,0.00088170584
1354.5435160965026,1354.5435160965026,1.0002686,0.0008814533
1354.5449049716626,1354.5449049716626,0.9989686,0.0008808503
1354.5462938467067,1354.5462938467067,0.99904776,0.0008807631
1354.5476827218672,1354.5476827218672,1.0010793,0.0008815483
1354.5490715969117,1354.5490715969117,1.0011497,0.0008814903
1354.5504604720718,1354.5504604720718,1.0008086,0.0008815846
1354.5518493471152,1354.5518493471152,0.9994581,0.00088097504
1354.5532382222764,1354.5532382222764,1.000144,0.0008812045
1354.554627097321,1354.554627097321,0.9990967,0.00088098587
1354.5560159724819,1354.5560159724819,0.9984015,0.00088076777
1354.5574048476424,1354.5574048476424,1.000139,0.0008814136
1354.5587937226856,1354.5587937226856,1.0005815,0.00088128384
1354.5601825978465,1354.5601825978465,0.9994033,0.00088087
1354.561571472891,1354.561571472891,0.9991683,0.00088088366
1354.5629603480506,1354.5629603480506,1.0005294,0.0008815511
1354.5643492232111,1354.5643492232111,0.9997181,0.00088095746
1354.5657380982557,1354.5657380982557,1.0012393,0.00088131544
