time,time,flux,flux_err
1325.2991648570853,1325.2991648570853,1.000050879651151,0.0004107059382852941
1325.3074983148977,1325.3074983148977,0.9999512201708853,0.000410993031613904
1325.3158317729258,1325.3158317729258,1.0000123595413617,0.00041124357500497716
1325.3234707763029,1325.3234707763029,0.9995146279168242,0.00037556057007948334
1325.3304153249824,1325.3304153249824,0.9999756084010698,0.00037591864285190955
1325.3373598738071,1325.3373598738071,1.0001948357531867,0.00037622411083120314
1325.3443044227736,1325.3443044227736,1.0002427251005288,0.00037656711386299804
1325.351248971881,1325.351248971881,0.999696676908718,0.0003768259262974949
1325.3581935211269,1325.3581935211269,1.0004672966082537,0.00037736287579104733
1325.365138070511,1325.365138070511,1.0002952594743992,0.00037778244567789304
1325.3720826200308,1325.3720826200308,1.0002458471298366,0.00037811001679966937
1325.3790271696848,1325.3790271696848,1.0000681392144641,0.0003785416195818667
1325.3859717194714,1325.3859717194714,1.0004453101363144,0.00037898840098181673
1325.3929162693871,1325.3929162693871,0.9996126228643863,0.0003793695940259277
1325.3998608194333,1325.3998608194333,0.9993592152639172,0.00037980978177858755
1325.4068053696064,1325.4068053696064,0.9997942500857147,0.0003803588810890384
1325.413749919907,1325.413749919907,0.9997523766031587,0.0003807936012122222
1325.4206944703308,1325.4206944703308,0.9999491847385098,0.0003813924482784413
1325.4276390208759,1325.4276390208759,1.0003922634751574,0.00038197944286110826
1325.4345835715442,1325.4345835715442,1.0004438097139556,0.0003824690478688851
1325.4415281223319,1325.4415281223319,0.9995461236537372,0.00038281244612691076
1325.4484726732371,1325.4484726732371,0.999817493434801,0.00038338543559335823
1325.45541722426,1325.45541722426,1.0001216181964199,0.00038398097459451796
1325.4623617753964,1325.4623617753964,1.0002666747547144,0.0003845931661820161
1325.469306326647,1325.469306326647,1.0004242213320114,0.00038533349912762494
1325.4762508780093,1325.4762508780093,0.999288799293377,0.0003858557275756014
1325.4831954294827,1325.4831954294827,0.9999763714991612,0.00038670394417300114
1325.4901399810653,1325.4901399810653,1.0007609706401333,0.00038772284103139737
1325.4970845327566,1325.4970845327566,0.99947006853216,0.000388487961149039
1325.5040290845523,1325.5040290845523,1.0004200694527465,0.00038960670891330677
1325.5109736364543,1325.5109736364543,0.9995021054766937,0.0003905416767512821
1325.51791818846,1325.51791818846,0.999822018891166,0.00039165713447635524
1325.5248627405667,1325.5248627405667,1.0002605732104477,0.00039284378520959275
1325.5318072927753,1325.5318072927753,1.0002345789217268,0.0003940744771306808
1325.538751845082,1325.538751845082,0.9996403406911645,0.00039521150002055325
1325.545696397488,1325.545696397488,0.999578446203334,0.0003964804544482681
1325.5526409499896,1325.5526409499896,1.000121087782182,0.00039775466141206157
1325.5595855025872,1325.5595855025872,1.0003591249043218,0.0003989974550673312
1325.5665300552796,1325.5665300552796,1.0004966391349608,0.00040022551627726084
1325.573474608064,1325.573474608064,1.000343748368929,0.0004015013773905337
1325.58041916094,1325.58041916094,0.9996842104879489,0.00040255834251995735
1325.5873637139066,1325.5873637139066,0.9992017362543398,0.0004036156425548186
1325.5943082669621,1325.5943082669621,1.0000741566650255,0.00040473015930514314
1325.601252820104,1325.601252820104,0.9997122165004735,0.0004055808688992033
1325.6081973733349,1325.6081973733349,1.0004372620277866,0.00040659903489033325
1325.6151419266503,1325.6151419266503,1.0005792985850848,0.0004073753248994118
1325.6220864800507,1325.6220864800507,0.9996877787260162,0.0004079569284905466
1325.629031033533,1325.629031033533,0.999971624872579,0.0004084473854950356
1325.635975587098,1325.635975587098,1.0000744867059577,0.0004088870334230543
1325.6429201407434,1325.6429201407434,0.9999340050047565,0.0004092614506488822
1325.6498646944692,1325.6498646944692,0.9993430230400566,0.0004093631298493176
1325.6568092482717,1325.6568092482717,1.0003313877058126,0.00040972203355192665
1325.6637538021569,1325.6637538021569,1.0002628161488776,0.0004099479505062711
1325.6706983561137,1325.6706983561137,1.0001511538057895,0.00041004716670278615
1325.6776429101465,1325.6776429101465,0.9999409705735861,0.00041022201730004694
1325.6845874642543,1325.6845874642543,0.9996010266766037,0.0004103736362584617
1325.6915320184337,1325.6915320184337,0.9999853852053558,0.00041073759879726714
1325.698476572686,1325.698476572686,1.0003906481679699,0.0004110536901711493
1325.7054211270085,1325.7054211270085,0.9998558175990329,0.00041125069052451305
1325.7123656814033,1325.7123656814033,0.9997727202737965,0.0004116252303797439
1325.7193102358651,1325.7193102358651,1.0003643492194434,0.0004120782500901681
1325.726254790395,1325.726254790395,1.0000308467779617,0.00041255755701464684
1325.7331993449927,1325.7331993449927,1.0001078573388091,0.00041293072243913124
1325.7401438996578,1325.7401438996578,0.9997394257463685,0.0004133487769028171
1325.7470884543864,1325.7470884543864,0.9997493489394635,0.0004138268412128737
1325.754033009179,1325.754033009179,0.9997866677311735,0.0004143004677925789
1325.7609775640362,1325.7609775640362,0.9997524927304597,0.0004149664859940774
1325.7679221189555,1325.7679221189555,1.0005335624072589,0.00041554047529456016
1325.7748666739358,1325.7748666739358,0.9997345337300316,0.0004159587062550557
1325.7818112289765,1325.7818112289765,0.9992899153641602,0.00041639489666416354
1325.7887557840772,1325.7887557840772,0.9998904325804692,0.0004168783858372469
1325.7957003392378,1325.7957003392378,1.0001956367479299,0.00041720616057885896
1325.8026448944552,1325.8026448944552,1.0000724114155986,0.0004176047765741711
1325.8095894497292,1325.8095894497292,0.9995180193512972,0.0004178050161930599
1325.8165340050614,1325.8165340050614,0.9996799919074612,0.00041806621127540665
1325.823478560447,1325.823478560447,1.0005315082253692,0.00041847214761555045
1325.830423115889,1325.830423115889,0.9998276530355042,0.0004184474771305835
1325.8373676713836,1325.8373676713836,1.0005263766595776,0.00041868857859793255
1325.8443122269318,1325.8443122269318,1.0000249608230942,0.0004185080169393342
1325.8512567825321,1325.8512567825321,1.0002731509853517,0.00041843337753791246
1325.8582013381852,1325.8582013381852,0.9996038662237012,0.0004181947998099014
1325.865145893887,1325.865145893887,1.0001420206444827,0.00041789506894889677
1325.8720904496415,1325.8720904496415,1.000121815979864,0.00041734435485062116
1325.879035005442,1325.879035005442,0.9995254553400826,0.00041668947147350003
1325.885979561292,1325.885979561292,0.9995104037949771,0.0004163419142219015
1325.8929241171918,1325.8929241171918,1.0005721248238415,0.00041601191865340306
1325.8998686731375,1325.8998686731375,0.9997036156368857,0.00041552729635207207
1325.9068132291284,1325.9068132291284,1.0005793701059953,0.0004153330596661166
1325.9137577851648,1325.9137577851648,0.9998790224754502,0.0004148744248821221
1325.920702341247,1325.920702341247,1.000359352508219,0.0004146758866366192
1325.9276468973749,1325.9276468973749,0.9997712694956385,0.00041426681172047235
1325.934591453545,1325.934591453545,1.0001292084228395,0.0004140996574414751
1325.9415360097585,1325.9415360097585,0.9997748495746386,0.0004138143194700759
1325.9484805660134,1325.9484805660134,1.0000024650590233,0.000413642880264759
1325.9554251223108,1325.9554251223108,0.9995521014381529,0.00041349236978384455
1325.9632030254131,1325.9632030254131,0.9999365930175917,0.0004133245083442885
1325.970703146309,1325.970703146309,0.9998269264393583,0.00041332404364078707
1325.9776477027349,1325.9776477027349,1.0007334219843442,0.00041336436775575347
1325.9845922591987,1325.9845922591987,1.0002652097334763,0.0004133393239533887
1325.991536815703,1325.991536815703,1.0004141946824423,0.0004134800918125647
1325.9984813722447,1325.9984813722447,1.0006506660991934,0.00041362906880958546
1326.0054259288231,1326.0054259288231,1.0000406849682202,0.0004136898646063299
1326.0123704854395,1326.0123704854395,0.9999357618129727,0.0004141227832370117
1326.0193150420905,1326.0193150420905,1.0000581510816655,0.00041466620335211277
1326.0262595987776,1326.0262595987776,0.9993825229570584,0.00041488593718361975
1326.0332041554996,1326.0332041554996,0.9998991102864924,0.0004151859813807888
1326.040148712256,1326.040148712256,0.9994342458370079,0.0004149375398181993
1326.047093269046,1326.047093269046,1.0004916449044003,0.0004149856012171614
1326.0540378258688,1326.0540378258688,0.9998306669718273,0.0004149462681527793
1326.0609823827242,1326.0609823827242,1.0009474478245775,0.00041514332612726834
1326.0679269396146,1326.0679269396146,0.9995989361378953,0.00041511210001259253
1326.0748714965343,1326.0748714965343,0.9999852469103742,0.00041509350360639547
1326.0818160534855,1326.0818160534855,0.9997737322442196,0.00041514566234969534
1326.088760610469,1326.088760610469,1.0005384793725334,0.00041522538844917454
1326.0957051674807,1326.0957051674807,0.9998182919622762,0.0004151841742533876
1326.1026497245234,1326.1026497245234,0.9997761585933234,0.0004151304309316495
1326.109594281595,1326.109594281595,1.0000377189593193,0.0004151337628177646
1326.1165388386953,1326.1165388386953,0.999834421149297,0.00041507408292152694
1326.1234833958242,1326.1234833958242,1.0002259883969289,0.00041505172669564696
1326.1304279529818,1326.1304279529818,1.000073349046824,0.0004150389978286896
1326.137372510165,1326.137372510165,0.9997799406409424,0.0004149110113033544
1326.1443170673756,1326.1443170673756,0.9999699083496576,0.0004148435453373761
1326.1512616246139,1326.1512616246139,1.0000300019892092,0.0004147801085132379
1326.158206181876,1326.158206181876,1.0001993428593057,0.00041464678285343964
1326.1651507391657,1326.1651507391657,0.9997189787354008,0.0004145080678479837
1326.1720952964802,1326.1720952964802,1.000065213404575,0.00041437497856373315
1326.1790398538185,1326.1790398538185,1.0002316988436266,0.0004142947006553378
1326.1859844111837,1326.1859844111837,0.9996379712757868,0.0004140477351198465
1326.19292896857,1326.19292896857,1.0004660254906415,0.0004140001993463882
1326.1998735259815,1326.1998735259815,1.0003437139214406,0.000413921329154773
1326.2068180834162,1326.2068180834162,0.9994233340706817,0.00041371673494420386
1326.213762640872,1326.213762640872,0.9998874802453541,0.00041366664801704024
1326.2207071983507,1326.2207071983507,0.9996070098219928,0.00041353156820794665
1326.2276517558525,1326.2276517558525,1.0002229772613478,0.0004134614045710728
1326.2345963133741,1326.2345963133741,1.0001718735863656,0.00041339412595500547
1326.2415408709178,1326.2415408709178,1.0005914443711723,0.0004132816409198239
1326.2484854284828,1326.2484854284828,1.0000561380211461,0.00041311596758349903
1326.2554299860672,1326.2554299860672,1.0002144016342949,0.0004131144129877291
1326.2623745436733,1326.2623745436733,0.9991154120468082,0.0004128928699790148
1326.2693191012972,1326.2693191012972,0.999888725963056,0.00041283077526599424
1326.276263658941,1326.276263658941,1.000254023450903,0.00041271803852722293
1326.2832082166053,1326.2832082166053,0.9999103050151987,0.0004125877093315815
1326.2901527742858,1326.2901527742858,0.9997163544476587,0.0004125048189457637
1326.297097331985,1326.297097331985,1.0009021811175116,0.0004125443768173877
1326.304041889704,1326.304041889704,0.9999803545944796,0.0004123357320368135
1326.310986447439,1326.310986447439,0.9996475680508983,0.000412365041313443
1326.3179310051917,1326.3179310051917,1.000227640523874,0.00041238878522718527
1326.3248755629618,1326.3248755629618,1.0001951379511054,0.00041243137000894085
1326.331820120748,1326.331820120748,1.0002194988650526,0.0004123663203536153
1326.3387646785516,1326.3387646785516,1.0001537244134133,0.0004124878615828102
1326.3462648009972,1326.3462648009972,1.0000014424589612,0.00041248058850923365
1326.3554316173424,1326.3554316173424,1.0001271787201538,0.00041271219187506757
1326.3623761751985,1326.3623761751985,1.000164453179115,0.0004128694166903973
1326.3693207330693,1326.3693207330693,1.0001754366962199,0.00041286859401694603
1326.3762652909552,1326.3762652909552,0.9995009862820133,0.0004128495816802841
1326.3832098488535,1326.3832098488535,1.000209845133523,0.00041298826470172005
1326.390154406769,1326.390154406769,1.0000202923972945,0.00041315791713187054
1326.3970989646964,1326.3970989646964,0.9998093441145205,0.00041314980836125263
1326.4040435226368,1326.4040435226368,0.9997930395455267,0.0004132485163637637
1326.4109880805922,1326.4109880805922,0.999469456850346,0.0004133148181161946
1326.4179326385604,1326.4179326385604,1.0000946053228188,0.00041350301256790387
1326.4248771965401,1326.4248771965401,1.0000494562120577,0.00041353693149359373
1326.4318217545322,1326.4318217545322,1.0005840091458122,0.00041376509001096447
1326.4387663125367,1326.4387663125367,1.0000372254723375,0.0004137191286201645
1326.4457108705542,1326.4457108705542,0.9996695014873858,0.0004138190231109773
1326.4526554285826,1326.4526554285826,0.9992101683690375,0.000413823441479657
1326.459599986622,1326.459599986622,1.0000399800358712,0.0004139733616276849
1326.4665445446717,1326.4665445446717,0.9998655676107184,0.0004140536680160093
1326.4734891027338,1326.4734891027338,1.000167447032756,0.00041416949415999947
1326.4804336608063,1326.4804336608063,0.9999407410979018,0.0004141899175050446
1326.4873782188893,1326.4873782188893,1.0002916835059594,0.00041435857679984555
1326.4943227769822,1326.4943227769822,0.9998888088426112,0.0004143430831440922
1326.5012673350834,1326.5012673350834,0.9993891316325136,0.0004144240081051319
1326.5082118931973,1326.5082118931973,0.9999283663432366,0.00041455562434871714
1326.5151564513194,1326.5151564513194,1.0006037174299582,0.00041476185704758165
1326.5221010094494,1326.5221010094494,1.000533152926867,0.0004149593114475829
1326.5290455675893,1326.5290455675893,1.0001026248674736,0.0004150827384520866
1326.5359901257377,1326.5359901257377,0.9992198383908197,0.0004151986326651944
1326.5429346838955,1326.5429346838955,0.999674627574462,0.00041545656306244614
1326.54987924206,1326.54987924206,0.9997975632590362,0.00041570221419912664
1326.5568238002338,1326.5568238002338,1.0003018353320872,0.00041580034475154797
1326.5637683584148,1326.5637683584148,0.9999960364027591,0.0004158414043749587
1326.5707129166035,1326.5707129166035,1.0002625837199735,0.0004158477784679059
1326.5776574748004,1326.5776574748004,0.9998136521380637,0.0004158691309485112
1326.5846020330039,1326.5846020330039,1.0002039553161588,0.0004159300304215819
1326.5915465912142,1326.5915465912142,1.000257163071432,0.0004160512878708134
1326.5984911494318,1326.5984911494318,1.0009675315529578,0.0004162399006198736
1326.6054357076562,1326.6054357076562,0.9992414309536809,0.0004160451542437808
1326.6123802658879,1326.6123802658879,0.9999075040980058,0.00041622903971985897
1326.6193248241227,1326.6193248241227,1.0001690096024043,0.00041624032709493763
1326.6262693823664,1326.6262693823664,0.9992358017063706,0.0004161353469389091
1326.6332139406156,1326.6332139406156,0.9998247760882052,0.00041614977246347024
1326.640158498869,1326.640158498869,0.999891188936771,0.0004160764637614939
1326.6471030571288,1326.6471030571288,0.9995282546106028,0.00041591193220782844
1326.654047615393,1326.654047615393,1.0003988529574352,0.0004158496641874728
1326.6609921736642,1326.6609921736642,1.0004589220079971,0.00041574622515523906
1326.667936731939,1326.667936731939,1.000658480633021,0.0004154352944448185
1326.6748812902192,1326.6748812902192,1.0000137971070953,0.0004151783395758819
1326.6818258485023,1326.6818258485023,1.0000389747478962,0.0004148960174382596
1326.689881536118,1326.689881536118,0.9997309071831337,0.00041456497599792394
1326.6971038767435,1326.6971038767435,1.00014420904149,0.0004144087023341743
1326.7040484350423,1326.7040484350423,0.9996488651422073,0.00041402136224062854
1326.7115485580075,1326.7115485580075,0.9999431025365839,0.000413779999354377
1326.7193264633102,1326.7193264633102,0.9994605796769239,0.00041352731298927015
1326.7262710216196,1326.7262710216196,1.0002601552418757,0.0004134311570118329
1326.7332155799318,1326.7332155799318,0.9999816231546859,0.0004131566120699361
1326.740160138249,1326.740160138249,1.0001491680677803,0.00041295683834896384
1326.7471046965675,1326.7471046965675,1.0003780275766005,0.0004128542241036596
1326.7540492548899,1326.7540492548899,1.0000159947348786,0.00041266278557879266
1326.760993813214,1326.760993813214,0.9997555083099817,0.00041247208470451336
1326.7679383715401,1326.7679383715401,1.0001993652431955,0.00041246865678922645
1326.774882929871,1326.774882929871,1.0000618982872127,0.0004122489913372945
1326.7818274882015,1326.7818274882015,0.9994417081462877,0.00041216293970773013
1326.7887720465358,1326.7887720465358,0.9998843041670284,0.000412123190580171
1326.795716604872,1326.795716604872,1.0000529894479535,0.00041216721098502075
1326.8026611632092,1326.8026611632092,1.0002827288221714,0.0004121801448744247
1326.8096057215475,1326.8096057215475,0.9998302163674373,0.0004121998286838141
1326.8165502798897,1326.8165502798897,0.9999322255062056,0.0004122509429227827
1326.823494838232,1326.823494838232,1.0002797364475309,0.00041222842511293167
1326.8304393965743,1326.8304393965743,0.9999520164827874,0.00041215457954495144
1326.837383954919,1326.837383954919,0.999749800047028,0.0004120379360623595
1326.844328513264,1326.844328513264,1.0001815982581328,0.0004121041127199219
1326.8512730716106,1326.8512730716106,1.000162329855416,0.00041198365375135805
1326.8582176299562,1326.8582176299562,1.0000925139214416,0.00041178179421142
1326.8651621883048,1326.8651621883048,1.0001199594172885,0.00041160216271596804
1326.8721067466518,1326.8721067466518,0.9999046289266937,0.00041126528706666765
1326.8790513050003,1326.8790513050003,0.9998443845342401,0.00041092800169651876
1326.8859958633486,1326.8859958633486,1.0007260918272802,0.0004106908552468075
1326.8929404216965,1326.8929404216965,0.9993662342769654,0.0004101636389403869
1326.8998849800453,1326.8998849800453,0.9992880271119869,0.00040964283833860973
1326.9068295383931,1326.9068295383931,1.0000539146964305,0.00040929488962178557
1326.9137740967412,1326.9137740967412,1.0003697645224876,0.00040889986530482714
1326.9207186550886,1326.9207186550886,1.000288327338069,0.00040826314377792204
1326.9276632134352,1326.9276632134352,0.9999266377654974,0.00040773441902257335
1326.934607771782,1326.934607771782,1.0000256286890923,0.00040726042316003696
1326.9415523301268,1326.9415523301268,1.0004435957076847,0.0004067879477443393
1326.9484968884722,1326.9484968884722,0.9994307684623387,0.00040624282097132805
1326.9554414468143,1326.9554414468143,0.9997780837420777,0.00040585474508968806
1326.9623860051568,1326.9623860051568,1.000008509362471,0.0004054976603649845
1326.9693305634987,1326.9693305634987,0.9999594278837117,0.00040512846849371066
1326.976275121837,1326.976275121837,1.0000823750792072,0.0004048062483447526
1326.983219680177,1326.983219680177,1.0004702603712796,0.0004045738638790585
1326.990164238513,1326.990164238513,0.9995592320269038,0.00040422280509753143
1326.997108796848,1326.997108796848,1.0003845488456888,0.00040401080800588367
1327.0040533551808,1327.0040533551808,1.0000195015810776,0.0004038441414135319
1327.0109979135127,1327.0109979135127,1.0002365920971608,0.00040370776749893116
1327.017942471842,1327.017942471842,0.9993606906939816,0.0004034890449882044
1327.0248870301687,1327.0248870301687,0.9996883521064,0.00040352385406766157
1327.0318315884952,1327.0318315884952,1.0002747899429891,0.00040357872031443703
1327.0387761468166,1327.0387761468166,1.0001259752821294,0.00040356174673224264
1327.0457207051375,1327.0457207051375,0.999745173958231,0.0004035081918346055
1327.0526652634553,1327.0526652634553,1.000662691275804,0.0004036576993244425
1327.0604431687684,1327.0604431687684,1.0004938921528255,0.00040371981081520304
