time,time,flux,flux_err
1517.3664421275928,1517.3664421275928,1.0004077514574852,0.0003847724253000484
1517.3750534315986,1517.3750534315986,0.9991612784244925,0.0003679373721286655
1517.3822758158199,1517.3822758158199,0.9994596685973617,0.0003595614707940104
1517.3892204166991,1517.3892204166991,0.9999753936361954,0.00035277636317239565
1517.3961650177644,1517.3961650177644,0.9992069129712287,0.00034681727895825994
1517.4044985394526,1517.4044985394526,1.0000186233344173,0.0003405016300330139
1517.4114431414494,1517.4114431414494,0.999968510513324,0.0003356000658639005
1517.4183877436321,1517.4183877436321,0.9999889342407231,0.000330864718224103
1517.4253323459081,1517.4253323459081,0.9999488033732963,0.00032663041843344225
1517.43227694865,1517.43227694865,0.9995753987133211,0.0003227096534929131
1517.4392215517641,1517.4392215517641,1.000398491656055,0.0003192606648239303
1517.446166155158,1517.446166155158,1.000150716118605,0.0003163184428566994
1517.4531107589241,1517.4531107589241,0.9999922828332407,0.0003134640247918792
1517.4600553627834,1517.4600553627834,1.0001797250817988,0.0003110522943506655
1517.4669999670152,1517.4669999670152,0.9994649667133111,0.00030881911083321565
1517.4739445714333,1517.4739445714333,1.0000855276391687,0.00030682649873741194
1517.4808891763173,1517.4808891763173,1.0001718218792854,0.0003050780867553586
1517.4878337813873,1517.4878337813873,0.9999778196528561,0.0003032413263517129
1517.4947783865505,1517.4947783865505,0.9999559317072195,0.0003016843941608399
1517.501722992086,1517.501722992086,1.0001662767027404,0.0003000601064256944
1517.5086675978082,1517.5086675978082,0.9994801429972361,0.00029842092415018854
1517.5156122038093,1517.5156122038093,1.0000251837632663,0.00029704358278342247
1517.522556809997,1517.522556809997,0.9999667885083922,0.00029567903990745665
1517.529501416278,1517.529501416278,1.000299684859559,0.0002943433977320966
1517.5364460231172,1517.5364460231172,1.0001693657850015,0.00029312199510027413
1517.5433906299565,1517.5433906299565,1.0004183733019305,0.0002919027168373228
1517.5503352367964,1517.5503352367964,1.0000177177236014,0.0002908280232945232
1517.5572798440085,1517.5572798440085,0.9993029945667239,0.00028961444711158744
1517.5642244514067,1517.5642244514067,1.0002888402668926,0.00028867330047562955
1517.5711690589912,1517.5711690589912,0.9994732977016121,0.0002877373885404873
1517.5781136667622,1517.5781136667622,0.9996658359395196,0.0002867622761381438
1517.5850582746266,1517.5850582746266,1.000676817079418,0.0002859382991309448
1517.5920028828625,1517.5920028828625,0.999952899194461,0.0002850608556520085
1517.5989474910061,1517.5989474910061,1.0002503830559717,0.00028425575470039855
1517.6058920995224,1517.6058920995224,1.0001135635038962,0.00028355342590919596
1517.6128367080378,1517.6128367080378,0.9997226314766859,0.00028284144745836044
1517.6197813168333,1517.6197813168333,0.9999959417506172,0.0002822341803308599
1517.6267259255355,1517.6267259255355,0.9999498440552529,0.00028159483691914697
1517.6336705347032,1517.6336705347032,1.0000512760572486,0.00028103471620415197
1517.640615143871,1517.640615143871,0.9998149861308626,0.000280492151833721
1517.647559753039,1517.647559753039,1.000118181572923,0.0002800988154837621
1517.6545043624865,1517.6545043624865,0.9998774336460237,0.0002795464757784829
1517.6614489720268,1517.6614489720268,1.0000966781039802,0.00027905872722443936
1517.66839358166,1517.66839358166,1.0002631103027697,0.00027857649308037324
1517.6753381913868,1517.6753381913868,1.0002084866914054,0.0002780342483847693
1517.682282801393,1517.682282801393,1.0002252892499155,0.000277641020809719
1517.6892274113056,1517.6892274113056,1.0001235445224206,0.00027710820277365364
1517.6961720213121,1517.6961720213121,0.9995274714303901,0.000276538538813142
1517.7031166315974,1517.7031166315974,0.9997491572376547,0.0002761089958797464
1517.7100612418826,1517.7100612418826,1.0003917584781639,0.000275722158109831
1517.717005852261,1517.717005852261,0.9995787132684788,0.00027520781626599026
1517.72395046264,1517.72395046264,1.0000296229797558,0.00027468787369476256
1517.730895073298,1517.730895073298,1.0000487950964216,0.0002742671445360921
1517.7378396838626,1517.7378396838626,1.0005188617496803,0.00027381939719298246
1517.7447842946135,1517.7447842946135,0.999946342935931,0.00027332131207291084
1517.7517289053649,1517.7517289053649,1.0001248021995166,0.00027300251574760223
1517.7586735163022,1517.7586735163022,0.9995981899058531,0.0002724519344678562
1517.7656181272393,1517.7656181272393,1.0003396930514832,0.00027210766313509393
1517.7725627382704,1517.7725627382704,1.0002193182233425,0.0002716507878368775
1517.7795073493937,1517.7795073493937,0.9997049693733043,0.00027118504235667943
1517.7864519606103,1517.7864519606103,0.9994894145707741,0.00027077358305993896
1517.7933965716409,1517.7933965716409,1.0001348630774118,0.000270531541975305
1517.800341183137,1517.800341183137,1.0001046913293532,0.00027018287768362716
1517.8072857941675,1517.8072857941675,1.0000905662211999,0.0002697870745230373
1517.814230405664,1517.814230405664,0.9998226190029863,0.00026935758858860186
1517.82117501716,1517.82117501716,1.0000271450354095,0.00026919311111000036
1517.8281196286562,1517.8281196286562,1.0005000635864816,0.00026882915583973125
1517.8350642401522,1517.8350642401522,0.9999571503464889,0.0002685682325757889
1517.8420088516482,1517.8420088516482,0.9999068443449859,0.0002682905014381108
1517.8489534631444,1517.8489534631444,1.0001076918002416,0.00026812525752376346
1517.8558980751063,1517.8558980751063,0.9997699194239494,0.0002678403915564018
1517.8628426866023,1517.8628426866023,0.9996859189366859,0.00026756426985363074
1517.869787298378,1517.869787298378,1.0001260157115661,0.0002674197007676549
1517.8767319100607,1517.8767319100607,1.0001062764806048,0.00026724644047021625
1517.883676521929,1517.883676521929,1.0001517780948546,0.0002670688675632862
1517.8906211337046,1517.8906211337046,1.0002450546537314,0.0002669026182526207
1517.8975657454803,1517.8975657454803,1.0000204074257297,0.00026672668429029083
1517.904510357442,1517.904510357442,0.9994841032879476,0.00026650903584977335
1517.9114549693109,1517.9114549693109,0.9997983347520052,0.00026649593729212673
1517.9183995811793,1517.9183995811793,1.0001228430063187,0.0002663303242641581
1517.9253441931412,1517.9253441931412,1.0001574480233282,0.00026620184622109123
1517.9322888050096,1517.9322888050096,1.0000317847139053,0.00026608437093915443
1517.9392334169715,1517.9392334169715,1.0003104024660607,0.0002659777327596779
1517.9472891668659,1517.9472891668659,0.999643882930225,0.0002657924093426431
1517.9545115632877,1517.9545115632877,1.0001874313634425,0.0002656720159654648
1517.9614561753424,1517.9614561753424,1.0003480777165072,0.0002656891117536298
1517.9684007873043,1517.9684007873043,0.9994412838313902,0.0002653915559779312
1517.9753453992662,1517.9753453992662,1.0002532905192152,0.0002652685240961107
1517.9822900113209,1517.9822900113209,0.9998462739022488,0.0002652020562907709
1517.989234623376,1517.989234623376,1.0000914182282545,0.0002651616099334127
1517.996179235338,1517.996179235338,1.0000502345112552,0.00026501481892278586
1518.0031238473925,1518.0031238473925,0.9996127736424869,0.00026488649636335416
1518.0100684593544,1518.0100684593544,1.0001067578857898,0.00026484636610776444
1518.0170130714098,1518.0170130714098,0.9999015869397075,0.00026468611045555527
1518.0239576833712,1518.0239576833712,1.0000723969619751,0.00026464675663688466
1518.0309022954266,1518.0309022954266,0.999985971356331,0.0002644989523096019
1518.037846907388,1518.037846907388,1.0006945007348749,0.00026450153204291867
1518.0447915193502,1518.0447915193502,0.9998194634662433,0.00026429521791619074
1518.0517361314048,1518.0517361314048,0.9999629368631602,0.00026433917023384714
1518.0586807433667,1518.0586807433667,1.000149612904742,0.00026422211805907466
1518.0656253553284,1518.0656253553284,0.9997927111044366,0.00026402565312594925
1518.0725699672903,1518.0725699672903,0.9998934416865705,0.000263906412139814
1518.079514579159,1518.079514579159,0.9998379034691744,0.00026390630332884447
1518.0864591911209,1518.0864591911209,0.9998765592660922,0.0002637650174567349
1518.0934038029893,1518.0934038029893,0.9999977346160904,0.00026374307030374344
1518.1003484148582,1518.1003484148582,0.999941480060175,0.0002636452260547267
1518.1072930266334,1518.1072930266334,0.9999898991589407,0.00026355176875367953
1518.1142376385953,1518.1142376385953,0.999805723444595,0.00026347132079908704
1518.1211822503712,1518.1211822503712,1.0000748568657258,0.0002634003194442694
1518.1281268620533,1518.1281268620533,1.0006063105942933,0.0002632601108003703
1518.1350714740151,1518.1350714740151,0.9998273726972572,0.00026316898538064875
1518.1420160856046,1518.1420160856046,1.0001663412998738,0.0002630880462616928
1518.148960697473,1518.148960697473,1.0000980796250087,0.00026297165068647917
1518.1559053089693,1518.1559053089693,0.9995388485978829,0.00026292639907540117
1518.1628499208377,1518.1628499208377,1.0000936750835288,0.00026282486362297103
1518.169794532427,1518.169794532427,0.999935613523499,0.00026282396530954034
1518.1767391439232,1518.1767391439232,0.9997851644640049,0.000262732612416925
1518.1836837554197,1518.1836837554197,1.0003064759380231,0.00026276919371286345
1518.1906283669155,1518.1906283669155,1.000411304304322,0.00026269613784824484
1518.1975729784122,1518.1975729784122,1.0000301148777733,0.00026258113242846285
1518.204517589908,1518.204517589908,0.9996013520342961,0.00026244071105441973
1518.2114622014042,1518.2114622014042,1.0000799606399327,0.00026257115477862353
1518.2184068129004,1518.2184068129004,1.0000044479364036,0.0002624238231597668
1518.2253514243962,1518.2253514243962,0.999877359078873,0.0002623875378938724
1518.2322960357064,1518.2322960357064,0.9998818263266553,0.0002623845560592477
1518.239240646923,1518.239240646923,0.9997779931500693,0.00026234595766985556
1518.246185258326,1518.246185258326,1.0002823542698907,0.0002623032044236619
1518.2531298694498,1518.2531298694498,1.0004187949056444,0.00026232823793435704
1518.2600744806666,1518.2600744806666,0.9995775050539265,0.00026227900877879976
1518.2672968762495,1518.2672968762495,0.9997456495666673,0.00026213288565596257
1518.27535262512,1518.27535262512,0.999843968239826,0.00026206334812507254
1518.28229723615,1518.28229723615,0.9998291980540305,0.00026212916977391254
1518.2892418471806,1518.2892418471806,1.0003417311993008,0.00026201273409673495
1518.296186458118,1518.296186458118,1.0001116174215752,0.0002620823329952363
1518.3031310691485,1518.3031310691485,1.00022901759919,0.0002620731377008433
1518.3100756798997,1518.3100756798997,1.0005404335883663,0.0002619754783506373
1518.3184092130432,1518.3184092130432,0.9999104358331046,0.0002619089110503857
1518.3253538237009,1518.3253538237009,0.9997555836404063,0.00026180936157784286
1518.3322984344525,1518.3322984344525,0.9998079805461909,0.0002618195342938052
1518.339243045203,1518.339243045203,1.0001245626556692,0.0002618184700815197
1518.346187655768,1518.346187655768,0.9997535275943585,0.00026174952841027737
1518.3531322664262,1518.3531322664262,1.000140427263463,0.0002618042811674478
1518.3600768768977,1518.3600768768977,0.9995676279268586,0.00026172211842829493
1518.3670214873694,1518.3670214873694,1.0004722030691169,0.0002617392841080104
1518.373966097841,1518.373966097841,0.9994461486408994,0.0002615312774777416
1518.3809107083125,1518.3809107083125,1.0007248482786006,0.00026163260870148226
1518.3878553185982,1518.3878553185982,0.9997626314738358,0.0002615771183468474
1518.3947999288835,1518.3947999288835,1.0002400443206771,0.0002614879622300297
1518.4017445390753,1518.4017445390753,0.9998854571835075,0.00026159703738606665
1518.4086891492682,1518.4086891492682,1.0000242730686781,0.0002613959303708098
1518.4164671125607,1518.4164671125607,0.999779917254495,0.0002613341097559946
1518.4239672914864,1518.4239672914864,0.9996773013013633,0.0002612948346661157
1518.4309119013992,1518.4309119013992,1.0003308279885008,0.00026132546821070027
1518.437856511312,1518.437856511312,0.9998149906838408,0.00026128030424375147
1518.4448011213178,1518.4448011213178,1.0001527774193224,0.00026125766969780506
1518.4517457311379,1518.4517457311379,0.9996177072073266,0.000261259966023524
1518.4586903409577,1518.4586903409577,1.000448351039869,0.00026125932931207453
1518.467023872611,1518.467023872611,1.0004528109460418,0.000261177258579073
1518.4739684822441,1518.4739684822441,1.0000371167746007,0.0002612810509657526
1518.4809130917847,1518.4809130917847,0.9998288821187634,0.00026119636758176103
1518.4878577013253,1518.4878577013253,0.9996081693880573,0.0002611360147108673
1518.4948023108655,1518.4948023108655,0.9998913409494911,0.0002611851162641812
1518.5017469202198,1518.5017469202198,1.000030087663333,0.0002611759972059421
1518.5086915296667,1518.5086915296667,0.9996766126791451,0.000261085207706602
1518.5156361388347,1518.5156361388347,1.0002014512184234,0.0002612006760149391
1518.5225807480024,1518.5225807480024,1.0002445052047426,0.0002610759623829253
1518.5295253571703,1518.5295253571703,1.0002519414626816,0.00026111028249651294
1518.536469966338,1518.536469966338,0.9997496481892248,0.00026107253965619923
1518.543414575506,1518.543414575506,1.0001227505705745,0.00026111118849177364
1518.5503591843944,1518.5503591843944,0.9997393052583134,0.00026099724565326103
1518.5573037933761,1518.5573037933761,1.0001646333135534,0.0002610215085179637
1518.5642484021716,1518.5642484021716,1.000025381990144,0.0002610229309161133
1518.5711930109665,1518.5711930109665,0.9998670419158474,0.00026108210257591395
1518.578137619762,1518.578137619762,0.9997226227349193,0.0002610631957549289
1518.585082228371,1518.585082228371,1.0005964686624984,0.00026101987330357965
1518.59202683698,1518.59202683698,1.0002016759005945,0.0002610798138195571
1518.5989714454956,1518.5989714454956,0.9997083286100708,0.0002609570188047557
1518.6059160540117,1518.6059160540117,0.9999919057682265,0.00026099140370773437
1518.6128606623415,1518.6128606623415,0.999750140210257,0.000261019866421826
1518.619805270764,1518.619805270764,1.0005321337804047,0.0002610651904736653
1518.6267498790007,1518.6267498790007,0.9997163546854857,0.00026097158960147027
1518.633694487144,1518.633694487144,0.9996679292715429,0.0002610253866904421
1518.6406390953807,1518.6406390953807,0.999814697532817,0.00026098905165431694
1518.6475837033377,1518.6475837033377,1.0000103369312658,0.00026100301374242755
1518.6545283113878,1518.6545283113878,1.000022078746904,0.0002610062861893693
1518.661472919345,1518.661472919345,1.0000635708755419,0.00026094203076781745
1518.6684175271157,1518.6684175271157,1.0003965489074882,0.00026097364473466297
1518.67536213498,1518.67536213498,1.0001810843831298,0.00026095657006638327
1518.6823067427508,1518.6823067427508,1.0000644162866705,0.0002610789110223502
1518.689251350335,1518.689251350335,1.0000820853605386,0.0002609329563415128
1518.6961959579198,1518.6961959579198,1.0000239774574382,0.0002611435491171038
1518.7031405655046,1518.7031405655046,0.9993342291645924,0.0002610148047165304
1518.7100851729024,1518.7100851729024,1.0002266762215153,0.000261019251099537
1518.717029780301,1518.717029780301,0.9995735390829446,0.00026092769836814504
1518.7239743876064,1518.7239743876064,1.0009355903628818,0.000261145760321487
1518.7309189948185,1518.7309189948185,0.9997792760966627,0.00026096970250136535
1518.7378636019373,1518.7378636019373,1.000337704531161,0.0002609965844274169
1518.7448082091491,1518.7448082091491,0.9998183954135925,0.0002610381601220606
1518.751752816082,1518.751752816082,1.000130346940474,0.0002610533233960595
1518.7586974229214,1518.7586974229214,1.0000487837327408,0.00026110359477882
1518.765642029761,1518.765642029761,0.9997631022301497,0.0002609446152828115
1518.7725866366004,1518.7725866366004,0.9998779766306531,0.00026100730138128517
1518.77953124344,1518.77953124344,0.9997508618046815,0.00026095278351792784
1518.7864758500932,1518.7864758500932,1.0000076089737475,0.000260986661455004
1518.7934204566532,1518.7934204566532,1.0001809257404477,0.00026105422916468575
1518.8003650631204,1518.8003650631204,1.000745450731302,0.0002610368707413294
1518.8073096695873,1518.8073096695873,0.9997448065685616,0.0002609642056822665
1518.814254275961,1518.814254275961,0.999908012472751,0.0002609524412048629
1518.8211988822418,1518.8211988822418,0.9999214923722055,0.0002609789891343965
1518.8281434884298,1518.8281434884298,1.0002499587061333,0.00026095624132396435
1518.835088094617,1518.835088094617,0.9998838935419638,0.0002609907887151205
1518.8420327006183,1518.8420327006183,0.9999848637694122,0.00026096299586401804
1518.8489773066199,1518.8489773066199,0.9996380004790563,0.00026097226673140947
1518.855921912528,1518.855921912528,1.000013329774923,0.00026099227433279166
1518.8628665184362,1518.8628665184362,0.9996091368071683,0.00026094418531511513
1518.8698111240649,1518.8698111240649,1.000280475759479,0.0002611659941807163
1518.8767557297867,1518.8767557297867,0.9999946806434175,0.00026101860097510444
1518.8837003354156,1518.8837003354156,1.0001295679907836,0.0002610158439746562
1518.890644940858,1518.890644940858,1.000153626706885,0.0002609809233896813
1518.8975895463936,1518.8975895463936,1.000281478085101,0.000260908183307231
1518.9045341517433,1518.9045341517433,1.0000356113869215,0.0002610340264752911
1518.9114787570925,1518.9114787570925,1.0001700970289664,0.00026092375134170287
1518.9184233622557,1518.9184233622557,0.9997356890866811,0.0002609881759834205
1518.9253679674189,1518.9253679674189,0.9997889405761888,0.000260995943438811
1518.9323125724889,1518.9323125724889,0.9999437725525226,0.00026098257494146525
1518.9392571774656,1518.9392571774656,0.9999126588315133,0.0002609881248966984
1518.9462017824426,1518.9462017824426,0.9998869162861508,0.0002610523386504445
1518.9531463872331,1518.9531463872331,1.0001711368952608,0.00026102235090741903
1518.960090991931,1518.960090991931,0.999901087126282,0.0002609631602056721
1518.967035596442,1518.967035596442,0.9997886474715754,0.0002610488732035099
1518.9739802014187,1518.9739802014187,1.0000995669080552,0.00026099536195946227
1518.9809248059303,1518.9809248059303,0.9998933429582809,0.0002609102948049801
1518.9878694099757,1518.9878694099757,1.0004204074792642,0.0002610124192691035
1518.9948140144866,1518.9948140144866,1.0000057215696392,0.0002609672142864772
1519.001758618812,1519.001758618812,1.000179796923707,0.00026090769762447625
1519.0087032230435,1519.0087032230435,0.9995812367014663,0.000260921505003552
1519.015647827089,1519.015647827089,1.000478239933561,0.00026100339634886556
1519.0225924311349,1519.0225924311349,1.0001632415839572,0.00026096361907984697
1519.029537035087,1519.029537035087,1.0001893901553207,0.0002609293854112987
1519.0364816390397,1519.0364816390397,1.0003310134995607,0.00026100876010964343
1519.0434262428055,1519.0434262428055,0.9993183508405824,0.00026083813692380915
1519.0503708465717,1519.0503708465717,1.0001624022950817,0.000261002565531461
1519.057315450152,1519.057315450152,1.0000076799355953,0.00026105948169169603
1519.0642600537315,1519.0642600537315,0.9998883746166118,0.00026105004672601724
1519.0712046572182,1519.0712046572182,0.9997735397961325,0.000261070516584739
1519.0781492606118,1519.0781492606118,0.9999551938002746,0.00026099299069686876
1519.0850938639123,1519.0850938639123,1.0002519039717763,0.0002610498186501149
1519.0920384671194,1519.0920384671194,1.0001298890052104,0.0002610199707161337
1519.098983070327,1519.098983070327,1.0003276986651077,0.0002610380291401232
1519.105927673348,1519.105927673348,1.0001358246448095,0.0002610952316346115
1519.1128722762758,1519.1128722762758,0.9991386373586544,0.0002609771780992412
1519.1198168792039,1519.1198168792039,1.0004185750063184,0.00026108248788891904
1519.126761482132,1519.126761482132,0.9998996759440599,0.00026099933174516886
