time,time,flux,flux_err
1325.299449446066,1325.299449446066,1.000324772186894,0.000337830434028975
1325.307782895614,1325.307782895614,0.9997700509347487,0.0003380976110531475
1325.3161163453663,1325.3161163453663,1.0000196893774556,0.00033855913237843265
1325.3244497953144,1325.3244497953144,1.0001941346660843,0.00033906229401183024
1325.3320887912735,1325.3320887912735,0.9999726829670268,0.0003099030504895804
1325.339033333195,1325.339033333195,0.9995748547334508,0.00031033445048485455
1325.3459778752422,1325.3459778752422,0.9994427196308802,0.00031076863592848213
1325.352922417429,1325.352922417429,1.000464071281022,0.0003114187246702735
1325.3598669597407,1325.3598669597407,0.9995580672649969,0.0003118817217728618
1325.3668115021865,1325.3668115021865,1.0000774286929768,0.0003124733157910018
1325.3737560447541,1325.3737560447541,1.0005409610622966,0.0003131218753668351
1325.3807005874446,1325.3807005874446,0.9998754851567195,0.00031365747412447835
1325.38764513026,1325.38764513026,1.0001376924003254,0.0003143334751795764
1325.3945896732,1325.3945896732,0.9999505994074884,0.0003149567794588271
1325.40153421626,1325.40153421626,1.0001709425120144,0.0003156371190038484
1325.4084787594331,1325.4084787594331,1.0001990279786364,0.0003162973896457497
1325.4154233027289,1325.4154233027289,0.9995081031241227,0.0003169457854165995
1325.4223678461408,1325.4223678461408,0.9996768863505718,0.00031767888510511887
1325.429312389663,1325.429312389663,0.9999789781124786,0.00031845666157554863
1325.436256933305,1325.436256933305,0.9999507658213899,0.00031917058429008834
1325.4432014770543,1325.4432014770543,0.9998777440706486,0.00031983331814246707
1325.4501460209146,1325.4501460209146,0.9999569199142673,0.00032061265000636255
1325.4570905648825,1325.4570905648825,1.0004455183296674,0.0003214446780349344
1325.4640351089608,1325.4640351089608,1.00025771610613,0.0003222102440314157
1325.4709796531438,1325.4709796531438,0.999589567204807,0.00032305258196799983
1325.477924197432,1325.477924197432,1.0004042515709717,0.0003241512581227372
1325.4848687418216,1325.4848687418216,0.9996798042897238,0.00032519023258223445
1325.4918132863136,1325.4918132863136,0.9996301367317251,0.00032632536213644836
1325.498757830913,1325.498757830913,1.0001912337006518,0.0003275544356845907
1325.5057023756053,1325.5057023756053,0.9997825480194763,0.00032881916186180044
1325.512646920394,1325.512646920394,1.0001430005167236,0.00033010445377114675
1325.5195914652813,1325.5195914652813,1.0000258534572182,0.00033142544837333726
1325.5265360102676,1325.5265360102676,0.9998178621987707,0.00033272504543351825
1325.5334805553473,1325.5334805553473,1.0000584950027196,0.00033398587476847426
1325.540425100517,1325.540425100517,0.9996131869224429,0.00033531577631498423
1325.5473696457834,1325.5473696457834,1.0001499428965872,0.0003365733574746611
1325.5543141911362,1325.5543141911362,0.9997947090960178,0.0003377052062684312
1325.56125873658,1325.56125873658,1.0002686481029177,0.00033889695987081303
1325.5682032821105,1325.5682032821105,1.0002851420491785,0.0003400141247905771
1325.5751478277284,1325.5751478277284,1.0001218448951708,0.0003409952648856411
1325.5820923734368,1325.5820923734368,1.0001423855056095,0.0003419127089615958
1325.589036919226,1325.589036919226,1.0001041000230142,0.0003427643114231447
1325.5959814651035,1325.5959814651035,0.9996253589153694,0.00034347190734656467
1325.602926011053,1325.602926011053,1.0002311437540181,0.00034412778746989773
1325.60987055709,1325.60987055709,1.0001979603429414,0.0003445970069789564
1325.6168151032089,1325.6168151032089,0.9994732271763175,0.00034487239581885103
1325.6237596494088,1325.6237596494088,0.9999969180364875,0.0003452441150253375
1325.6307041956848,1325.6307041956848,0.999284143975719,0.00034535052417207165
1325.6376487420362,1325.6376487420362,1.000431512391436,0.00034550918892320914
1325.64459328846,1325.64459328846,1.0000333536061803,0.00034549248293671685
1325.65153783496,1325.65153783496,1.0000399294832039,0.0003454874924841343
1325.6584823815415,1325.6584823815415,1.0001451707323663,0.0003454127756055872
1325.6654269281867,1325.6654269281867,0.9999895458783759,0.000345376091905649
1325.6723714749135,1325.6723714749135,1.000586410109203,0.0003453916549742347
1325.6793160217017,1325.6793160217017,0.9996144113355401,0.0003452796672508733
1325.6862605685653,1325.6862605685653,0.9998177247272848,0.0003453754885414007
1325.6932051154927,1325.6932051154927,0.9996310488028877,0.00034546901585052033
1325.7001496624937,1325.7001496624937,1.0005178687296077,0.0003457467523493188
1325.707094209555,1325.707094209555,1.0003459713450202,0.00034593104676963087
1325.7140387566833,1325.7140387566833,0.9995357507825682,0.0003461218991974964
1325.7209833038846,1325.7209833038846,1.0001823181843736,0.00034658744780883914
1325.7279278511382,1325.7279278511382,1.0001196423893983,0.00034688292818723493
1325.734872398462,1325.734872398462,1.0001777747095266,0.0003472781062541931
1325.7418169458492,1325.7418169458492,0.9999157122801442,0.0003477233217474312
1325.7487614932948,1325.7487614932948,1.0000708685847508,0.0003482323710244614
1325.7557060407992,1325.7557060407992,0.9996202173245251,0.0003487249866817774
1325.7626505883668,1325.7626505883668,0.9996222034668047,0.0003491918397394391
1325.7695951359901,1325.7695951359901,1.0002477100090856,0.00034979178933695985
1325.7765396836717,1325.7765396836717,1.0000397830101746,0.0003502897942767728
1325.7834842314112,1325.7834842314112,0.9995960222156824,0.00035071181267214775
1325.7904287792092,1325.7904287792092,1.0000991270735233,0.00035128632434544067
1325.7973733270624,1325.7973733270624,1.0003781723880298,0.0003517123579413563
1325.8043178749654,1325.8043178749654,1.0000331290815843,0.0003520769624894385
1325.811262422926,1325.811262422926,1.0001314739962408,0.0003524018768827751
1325.8182069709394,1325.8182069709394,0.9996590928419294,0.000352634857682224
1325.8251515190018,1325.8251515190018,1.0004011292120376,0.0003529143405373026
1325.8320960671172,1325.8320960671172,0.9999213699862656,0.0003531030909049205
1325.8390406152816,1325.8390406152816,0.9998748276606451,0.00035320688832506537
1325.8459851635014,1325.8459851635014,0.9998049989481611,0.00035316650921433685
1325.8529297117705,1325.8529297117705,1.0003017273449313,0.0003530981141701311
1325.8598742600839,1325.8598742600839,1.0000781103507161,0.00035287462781159875
1325.8668188084462,1325.8668188084462,0.9996510457285754,0.0003524655172210523
1325.8737633568526,1325.8737633568526,1.0003203013589972,0.0003520179213542199
1325.880707905308,1325.880707905308,0.9996123548897202,0.000351437823390498
1325.8876524538161,1325.8876524538161,0.9997789068887861,0.00035105905630829096
1325.894597002356,1325.894597002356,1.0004190620233306,0.00035074721345244744
1325.9015415509487,1325.9015415509487,0.999921817692963,0.00035027885793454836
1325.908486099582,1325.908486099582,1.0002441144066538,0.00034999703238939537
1325.9154306482583,1325.9154306482583,0.9999785795837198,0.00034961888208167463
1325.9223751969819,1325.9223751969819,1.0002746044854183,0.0003493679683017197
1325.9293197457403,1325.9293197457403,0.9994706716655115,0.00034912175273790215
1325.9362642945393,1325.9362642945393,0.9998844841993673,0.00034892288407178067
1325.9432088433848,1325.9432088433848,0.9998233410240255,0.0003487721632640322
1325.9501533922626,1325.9501533922626,1.0001086904498355,0.0003486344275817688
1325.957097941187,1325.957097941187,1.0010601725567179,0.0003486327986671707
1325.965153617982,1325.965153617982,0.9996977939571167,0.0003484256626516154
1325.972375948946,1325.972375948946,0.9996784503202564,0.0003483982941557663
1325.9793204979892,1325.9793204979892,1.0001341904724863,0.00034849591793134063
1325.9862650470736,1325.9862650470736,0.9996974707311592,0.0003484862457309989
1325.9932095961838,1325.9932095961838,0.9997761987073414,0.00034860306868412735
1326.0001541453355,1326.0001541453355,0.9998476468615335,0.00034870306211530304
1326.0070986945211,1326.0070986945211,0.9998168727594541,0.0003490344263856846
1326.0140432437424,1326.0140432437424,1.0004557360482431,0.00034955763827831373
1326.0209877929956,1326.0209877929956,1.0002117551810208,0.00034997941269599705
1326.0279323422837,1326.0279323422837,0.9998066972470099,0.0003503602250152797
1326.0348768916006,1326.0348768916006,1.0005156773219486,0.00035046399763189953
1326.0418214409524,1326.0418214409524,0.9999631958340162,0.0003501452292365859
1326.048765990334,1326.048765990334,0.9999396193765767,0.00035011438145137635
1326.0557105397497,1326.0557105397497,0.9998443132348049,0.0003502328861374586
1326.0626550892007,1326.0626550892007,0.999759109615774,0.0003502848197949898
1326.0695996386721,1326.0695996386721,1.0002763674292143,0.00035042853539699303
1326.076544188178,1326.076544188178,0.9997400988887394,0.0003503897649993258
1326.0834887377139,1326.0834887377139,1.0001078920579662,0.00035049654738732275
1326.0904332872783,1326.0904332872783,0.9998443598856028,0.00035047155947614335
1326.0973778368661,1326.0973778368661,0.9998275261323422,0.0003504601536272126
1326.104322386489,1326.104322386489,1.0000344514374242,0.0003504581077362368
1326.1112669361346,1326.1112669361346,1.000428566453527,0.00035041124373815197
1326.118211485813,1326.118211485813,0.9997394521078643,0.0003502942332960503
1326.125156035508,1326.125156035508,0.9998673111338994,0.0003502072618376304
1326.1321005852328,1326.1321005852328,1.000027606044047,0.00035017066959178395
1326.1390451349835,1326.1390451349835,1.0002427342390636,0.0003501443760914174
1326.1459896847637,1326.1459896847637,1.0001713535877008,0.00034999959622249524
1326.1529342345636,1326.1529342345636,1.0000551888692317,0.0003499016161637694
1326.1598787843873,1326.1598787843873,1.0003885387587814,0.0003498173999540567
1326.166823334237,1326.166823334237,0.9994637886278281,0.00034953220680033895
1326.1737678841123,1326.1737678841123,0.9999540996588336,0.0003494192314156848
1326.1807124340062,1326.1807124340062,0.9994728155084254,0.0003493087785114376
1326.1876569839255,1326.1876569839255,1.0000844613479754,0.00034916689729608334
1326.1946015338683,1326.1946015338683,0.9997054927327333,0.00034896804523926227
1326.201546083826,1326.201546083826,1.0005388184030906,0.00034892729282575286
1326.2084906338155,1326.2084906338155,1.0001402222805909,0.0003487012555969815
1326.2154351838192,1326.2154351838192,1.0002969688994359,0.00034855767729317845
1326.2223797338436,1326.2223797338436,0.9992140760903897,0.0003483141733432671
1326.2293242838882,1326.2293242838882,1.000481985544632,0.0003483233011851204
1326.2362688339563,1326.2362688339563,0.9995635222757219,0.0003480607364685035
1326.2432133840414,1326.2432133840414,1.0001135908355994,0.00034794947911466473
1326.250157934142,1326.250157934142,0.9997451581075578,0.00034778133211268297
1326.257102484268,1326.257102484268,0.9999950072905104,0.0003476543252084458
1326.2640470344088,1326.2640470344088,1.000357404991664,0.00034758595044928435
1326.2709915845699,1326.2709915845699,1.000036200207068,0.0003474132173481528
1326.2779361347452,1326.2779361347452,0.9994807450276332,0.0003471892424354808
1326.2848806849418,1326.2848806849418,1.0000368698722517,0.0003470917176188888
1326.2918252351549,1326.2918252351549,1.000103693523339,0.000347023844440065
1326.298769785383,1326.298769785383,1.0004303235069525,0.00034693121618345257
1326.3057143356284,1326.3057143356284,1.0003093071957807,0.00034685184666987
1326.3126588858947,1326.3126588858947,1.0001763210722443,0.00034679105886001934
1326.3196034361663,1326.3196034361663,0.9999852906941517,0.0003467081197619926
1326.326547986458,1326.326547986458,0.9997937147939207,0.00034663167683111754
1326.3334925367649,1326.3334925367649,0.9997915535990666,0.000346651218757775
1326.340437087089,1326.340437087089,0.9999304338232957,0.00034666682163619385
1326.348492765482,1326.348492765482,0.9995142038663645,0.0003466713701420775
1326.3571040079219,1326.3571040079219,1.0004864576493002,0.00034685052247869545
1326.3640485582957,1326.3640485582957,1.0001529678843288,0.00034687729950385183
1326.370993108675,1326.370993108675,1.000238495774278,0.00034685371844119065
1326.3779376590778,1326.3779376590778,1.0005244630961823,0.00034696897635379134
1326.384882209489,1326.384882209489,0.9999019219391254,0.0003468966463104184
1326.3918267599063,1326.3918267599063,0.9995679663984355,0.0003468673987641802
1326.3987713103443,1326.3987713103443,0.9999539789440453,0.0003469180295663403
1326.4057158607902,1326.4057158607902,0.9995129600950442,0.0003469325398287956
1326.412660411249,1326.412660411249,1.0002637820186688,0.0003470701037227229
1326.419604961721,1326.419604961721,0.9999026370798789,0.0003470362063755025
1326.426549512205,1326.426549512205,1.0002555045807042,0.0003471285177545877
1326.433494062695,1326.433494062695,1.0002032218546566,0.00034713757490613796
1326.4404386131996,1326.4404386131996,1.0001307351526743,0.0003471242346166633
1326.4473831637129,1326.4473831637129,1.0000223858063093,0.0003471599107949503
1326.4543277142377,1326.4543277142377,1.0003488866661898,0.0003471883807626497
1326.4612722647744,1326.4612722647744,0.9999387172303644,0.0003471590451849362
1326.4682168153167,1326.4682168153167,0.9999183361925624,0.00034712554371318466
1326.4751613658707,1326.4751613658707,0.9999639800825697,0.00034717287945766124
1326.4821059164337,1326.4821059164337,1.0000899098550913,0.00034718178185095584
1326.489050467008,1326.489050467008,0.9999409454997975,0.0003471046383070132
1326.4959950175912,1326.4959950175912,1.00002670240138,0.0003471249542340339
1326.50293956818,1326.50293956818,1.0001693780905996,0.00034719321701343135
1326.5098841187807,1326.5098841187807,0.999484126361938,0.00034712405563977526
1326.516828669387,1326.516828669387,1.000054644873072,0.00034722015106028025
1326.5237732199935,1326.5237732199935,1.0003817585289596,0.000347367152588565
1326.5307177706175,1326.5307177706175,0.9997960478537667,0.00034740954310466803
1326.537662321247,1326.537662321247,0.9998909738619185,0.0003474879560227345
1326.5446068718768,1326.5446068718768,1.0001142417246822,0.00034770624250826665
1326.5515514225356,1326.5515514225356,0.9996912014789109,0.0003477841690023921
1326.5584959731768,1326.5584959731768,1.0002348523105833,0.00034775492086161236
1326.5654405238356,1326.5654405238356,0.9998297264759355,0.00034761152773572996
1326.5723850745003,1326.5723850745003,1.0003204454786823,0.00034756638153731124
1326.579329625165,1326.579329625165,1.000124315606702,0.0003475466584570273
1326.586274175841,1326.586274175841,1.0000406620219635,0.00034753397756498607
1326.5932187265234,1326.5932187265234,1.0000214118010762,0.00034751261112147375
1326.6001632772113,1326.6001632772113,0.9998649571336926,0.00034748503672954077
1326.607107827899,1326.607107827899,1.000097502515376,0.00034747543697412906
1326.6140523786046,1326.6140523786046,1.000432697160147,0.0003474658125623152
1326.6209969293036,1326.6209969293036,0.9997617269121342,0.0003473787932300397
1326.6279414800094,1326.6279414800094,0.9993390751355617,0.0003472384108694422
1326.6348860307203,1326.6348860307203,0.9997033269658466,0.0003471607917635712
1326.6418305814318,1326.6418305814318,1.0003352653004527,0.0003470562695760437
1326.6487751321547,1326.6487751321547,1.0001871071946675,0.00034686483051062447
1326.6557196828714,1326.6557196828714,0.9998862800264998,0.0003465719244961032
1326.6626642336062,1326.6626642336062,1.0001132997494864,0.0003463440779574546
1326.6696087843345,1326.6696087843345,1.00043220485228,0.0003461070989214716
1326.676553335075,1326.676553335075,0.9997061131455045,0.00034577816180177725
1326.6834978858092,1326.6834978858092,0.9999852365703804,0.00034541866805912436
1326.691831346699,1326.691831346699,0.9998174963126816,0.00034506941448048497
1326.698775897445,1326.698775897445,1.0002372114839637,0.000344803513964872
1326.7057204481912,1326.7057204481912,0.9995728590171092,0.0003443015053571582
1326.7134983450303,1326.7134983450303,1.0002583498163584,0.00034402949154170055
1326.7209984598503,1326.7209984598503,1.0001190459457092,0.00034368466556451585
1326.7279430105962,1326.7279430105962,1.0002505485136537,0.00034336187045069485
1326.7348875613598,1326.7348875613598,0.9990132940141525,0.00034296430890243463
1326.741832112118,1326.741832112118,1.000345675572661,0.00034281217293165826
1326.7487766628751,1326.7487766628751,1.0001078909088665,0.0003425090643337028
1326.7557212136387,1326.7557212136387,1.000107983849173,0.00034225225756705116
1326.7626657644141,1326.7626657644141,1.0005048147059639,0.0003420294270309431
1326.7696103151602,1326.7696103151602,1.0002559834440117,0.00034183819527212016
1326.7765548659352,1326.7765548659352,0.9996879306131286,0.00034155137235926164
1326.7834994167104,1326.7834994167104,1.0002643963420579,0.00034145798570440317
1326.7904439674803,1326.7904439674803,0.9997383133269686,0.0003412779764580744
1326.7973885182316,1326.7973885182316,0.9994518133623453,0.0003411181075424347
1326.8043330690077,1326.8043330690077,0.999752150791528,0.00034103641811614166
1326.8112776197822,1326.8112776197822,0.9998987289308772,0.00034097443907278287
1326.8182221705576,1326.8182221705576,1.0002820387166667,0.000340944944482596
1326.8251667213328,1326.8251667213328,0.9999057405965924,0.00034076231012657686
1326.8321112720907,1326.8321112720907,1.0002459928750673,0.0003406551402842045
1326.839055822854,1326.839055822854,0.9999953016348939,0.0003404601915355661
1326.8460003736293,1326.8460003736293,1.0001967265349725,0.00034027740793465534
1326.8529449244045,1326.8529449244045,1.0009807573042155,0.00034020992957380146
1326.85988947518,1326.85988947518,0.9999770866583763,0.0003398184345038006
1326.8668340259435,1326.8668340259435,0.9999906140437911,0.00033951284564179794
1326.8737785767012,1326.8737785767012,0.9995849942515227,0.00033910623463638
1326.8807231274761,1326.8807231274761,0.9998147868810893,0.00033872566278280515
1326.887667678246,1326.887667678246,0.9999185927654188,0.000338309789500154
1326.8946122289974,1326.8946122289974,0.9998206075765534,0.0003378191048570683
1326.901556779773,1326.901556779773,0.9998401354280428,0.0003373565030159726
1326.9085013305248,1326.9085013305248,0.9999134703030933,0.0003368793630208461
1326.915445881294,1326.915445881294,1.0007351761013326,0.00033640543257039185
1326.922390432046,1326.922390432046,0.9997205739227102,0.00033579843050233506
1326.929334982804,1326.929334982804,1.000409681986069,0.00033534696446246636
1326.9362795335617,1326.9362795335617,0.9999759583123531,0.00033472384960904055
1326.9432240843075,1326.9432240843075,0.999714493559161,0.0003342179643022407
1326.95016863506,1326.95016863506,1.000241441497482,0.0003338321314673807
1326.9571131858115,1326.9571131858115,1.0003703543459022,0.00033342165489140107
1326.9640577365578,1326.9640577365578,0.9991270404820162,0.0003328797799468398
1326.971002287304,1326.971002287304,1.0009773575321703,0.00033264635918468284
1326.977946838044,1326.977946838044,0.999564210682423,0.00033212759141419956
1326.9848913887788,1326.9848913887788,1.0007883863612776,0.0003319682188485926
1326.9918359395133,1326.9918359395133,0.9994616863747362,0.0003314889668849317
1326.9987804902478,1326.9987804902478,0.9997724686222013,0.0003313007480381296
1327.0057250409764,1327.0057250409764,1.0006152957761312,0.0003311558982215381
1327.0126695916993,1327.0126695916993,0.9995528470769702,0.00033086481542852624
1327.0196141424276,1327.0196141424276,1.0002809530598795,0.0003308360153449533
1327.0265586931448,1327.0265586931448,1.0002594255987396,0.0003306782049070556
1327.033503243862,1327.033503243862,0.9996155976940273,0.0003304792534166705
1327.0404477945726,1327.0404477945726,0.9999907665772326,0.00033042077686442495
1327.0473923452842,1327.0473923452842,0.9999133502586911,0.0003302994686977717
1327.0543368959893,1327.0543368959893,1.000169840130568,0.00033031396538934983
1327.0623925748075,1327.0623925748075,0.9999027978436079,0.00033021386385914404
