time,time,flux,flux_err
1325.2995235685528,1325.2995235685528,0.9999164991078615,0.00014633945494000824
1325.3078570173464,1325.3078570173464,0.9998678393825314,0.00014640056709254234
1325.3161904663348,1325.3161904663348,1.0001342572988723,0.00014646788265828138
1325.3245239155117,1325.3245239155117,0.9999444184799255,0.0001465145297637369
1325.3321629107668,1325.3321629107668,1.000275741901125,0.00013381808441644347
1325.3391074520248,1325.3391074520248,1.0000056749073118,0.00013385371649445008
1325.3460519934288,1325.3460519934288,1.0001593483766449,0.00013391332529450362
1325.3529965349724,1325.3529965349724,0.9999967941181567,0.0001339650042910679
1325.3599410766205,1325.3599410766205,1.000101230547283,0.00013404383127290858
1325.3668856184026,1325.3668856184026,0.9999585382310643,0.00013409982597392672
1325.3738301603069,1325.3738301603069,0.9999094238772986,0.00013417333947820766
1325.3807747023395,1325.3807747023395,0.9997966239092693,0.00013424605038373172
1325.3877192444825,1325.3877192444825,0.9999886868477941,0.0001343519807299763
1325.3946637867475,1325.3946637867475,1.0000228046619157,0.00013444627674705795
1325.401608329141,1325.401608329141,0.999936006352739,0.00013452030305906608
1325.408552871639,1325.408552871639,0.9999418839290509,0.0001345994807740099
1325.4154974142534,1325.4154974142534,1.0002635777708846,0.00013472722713097542
1325.4224419569844,1325.4224419569844,0.9999822621899123,0.00013480191790196818
1325.4293864998199,1325.4293864998199,1.0002293468736212,0.00013493026795840905
1325.436331042772,1325.436331042772,1.0001282322585099,0.00013504690424956443
1325.4432755858347,1325.4432755858347,0.9998029211374287,0.00013516168588611913
1325.4502201290022,1325.4502201290022,0.9999727514430384,0.00013531771411634823
1325.4571646722802,1325.4571646722802,1.0000010135224318,0.0001354855807710626
1325.464109215663,1325.464109215663,1.0000406337939074,0.00013565472723146992
1325.4710537591504,1325.4710537591504,0.9999645974080762,0.0001358464033500166
1325.4779983027372,1325.4779983027372,1.0002277930475092,0.0001360759511267831
1325.4849428464227,1325.4849428464227,0.9998284637086181,0.0001362718649611802
1325.4918873902132,1325.4918873902132,1.000146753231445,0.0001365313013657827
1325.4988319341082,1325.4988319341082,0.9998651695125258,0.00013676585016454318
1325.5057764780845,1325.5057764780845,0.9997055099770377,0.0001370176205009285
1325.512721022166,1325.512721022166,1.0001720320536625,0.0001372911051800041
1325.5196655663403,1325.5196655663403,1.0000480395310096,0.000137542844541259
1325.5266101106076,1325.5266101106076,0.9998061974734849,0.00013780073922064657
1325.5335546549627,1325.5335546549627,1.0002833524860955,0.00013808693559020597
1325.5404991994164,1325.5404991994164,0.9999447825653573,0.0001383249334414984
1325.5474437439639,1325.5474437439639,0.9999698163740053,0.0001385617018500206
1325.554388288592,1325.554388288592,1.0003816954597493,0.0001388199536931527
1325.561332833314,1325.561332833314,0.9998400929744917,0.00013900840400442714
1325.568277378123,1325.568277378123,0.9998286966612238,0.0001392139935805347
1325.5752219230073,1325.5752219230073,0.9999895689077271,0.00013941315474239637
1325.5821664679854,1325.5821664679854,0.9998023095475018,0.0001395752854521866
1325.5891110130437,1325.5891110130437,1.0000331651773704,0.0001397270449079688
1325.5960555581792,1325.5960555581792,0.9999880326081658,0.00013986745920060642
1325.6030001033953,1325.6030001033953,0.9998014287055053,0.00013995711474390948
1325.6099446487049,1325.6099446487049,1.0000549587594085,0.0001400595571710763
1325.6168891940786,1325.6168891940786,1.0002417213598063,0.00014012818803201536
1325.6238337395337,1325.6238337395337,1.0000931848308785,0.00014016514941263546
1325.6307782850643,1325.6307782850643,1.0000055339718823,0.0001401724376930793
1325.6377228306708,1325.6377228306708,0.9999734611389858,0.00014017178790851133
1325.6446673763526,1325.6446673763526,0.9998428261640072,0.00014016532921856908
1325.6516119221046,1325.6516119221046,0.99993673887145,0.00014015529938229615
1325.6585564679322,1325.6585564679322,0.9998246890957917,0.00014013728146999887
1325.6655010138352,1325.6655010138352,1.0001109306492935,0.00014013730515848624
1325.6724455598023,1325.6724455598023,0.9999323259665122,0.00014010034220778863
1325.6793901058397,1325.6793901058397,1.0000651926782158,0.00014010021612011127
1325.6863346519526,1325.6863346519526,1.0000330486229732,0.00014011234131719035
1325.693279198123,1325.693279198123,1.0000544370176576,0.00014012061289319023
1325.7002237443644,1325.7002237443644,1.0001510070995692,0.00014014260704075634
1325.7071682906633,1325.7071682906633,0.9997902676819679,0.0001401470030936792
1325.7141128370379,1325.7141128370379,1.0001470323962978,0.0001402094284564071
1325.721057383459,1325.721057383459,0.9999319628490542,0.00014025078321521588
1325.7280019299562,1325.7280019299562,0.9998345520080931,0.00014029359186654158
1325.7349464765114,1325.7349464765114,1.0001344249136803,0.00014035745538420823
1325.741891023136,1325.741891023136,1.0000254402205215,0.00014041533804868785
1325.7488355698135,1325.7488355698135,0.99993369339923,0.00014049116222275104
1325.7557801165494,1325.7557801165494,0.9999633652651789,0.00014057286242383972
1325.762724663343,1325.762724663343,0.9999364834720004,0.00014065453199769802
1325.769669210195,1325.769669210195,1.0000063541986748,0.00014073950411474221
1325.7766137571052,1325.7766137571052,1.0001968468448956,0.00014083772685724092
1325.7835583040737,1325.7835583040737,1.0002183321474785,0.0001409103880871042
1325.7905028510945,1325.7905028510945,0.9999206501114539,0.0001409640127391437
1325.7974473981676,1325.7974473981676,0.999976704096899,0.00014104195456411136
1325.8043919452934,1325.8043919452934,0.9997632925192672,0.00014107560824426198
1325.8113364924714,1325.8113364924714,0.9999948261035895,0.00014114172904251785
1325.8182810397077,1325.8182810397077,0.9998506551379114,0.00014117855922771147
1325.8252255869902,1325.8252255869902,1.0001002386064743,0.00014121263834569888
1325.8321701343198,1325.8321701343198,0.9999046496478377,0.00014122915993555938
1325.839114681707,1325.839114681707,1.000227111553518,0.00014126744900127877
1325.8460592291353,1325.8460592291353,0.9999899503917916,0.00014123061796530388
1325.8530037766154,1325.8530037766154,0.9999990459951335,0.00014119943692955772
1325.859948324149,1325.859948324149,1.0000856587823486,0.00014116396553686824
1325.8668928717227,1325.8668928717227,0.9999327157693794,0.0001410958383180674
1325.8738374193374,1325.8738374193374,0.9999688966143196,0.00014098532737462165
1325.8807819670042,1325.8807819670042,1.0000633393913938,0.00014088841910501915
1325.8877265147119,1325.8877265147119,1.00003346475742,0.0001408180843305346
1325.8946710624718,1325.8946710624718,0.9998280895222399,0.000140715192146195
1325.9016156102668,1325.9016156102668,0.9999778493037118,0.00014065634866935157
1325.9085601581028,1325.9085601581028,0.9998457767251064,0.0001405697543755105
1325.9155047059846,1325.9155047059846,0.9999675487382247,0.00014051288400535178
1325.9224492539138,1325.9224492539138,1.0003429789774385,0.00014048339117438033
1325.9293938018775,1325.9293938018775,1.0000497735563385,0.00014040938392846018
1325.936338349882,1325.936338349882,0.9999292438993189,0.00014035799026769702
1325.9432828979213,1325.9432828979213,0.9999194773757818,0.0001403157758290977
1325.9502274460017,1325.9502274460017,1.0002727704931247,0.0001403089534769251
1325.9571719941227,1325.9571719941227,0.9998467772746429,0.00014024896642747422
1325.9652276699894,1325.9652276699894,0.9998800404576847,0.00014023286716367144
1325.972450000118,1325.972450000118,1.000038258589902,0.00014020424375465145
1325.979394548361,1325.979394548361,1.000169458968965,0.00014021164323249283
1325.9863390966334,1325.9863390966334,0.9996093238485729,0.00014017577638238964
1325.9932836449402,1325.9932836449402,1.0000531510513517,0.00014020742141800956
1326.0002281932889,1326.0002281932889,0.9999665816858115,0.00014021331813864253
1326.0071727416653,1326.0071727416653,0.9999994276315791,0.00014025672066222768
1326.0141172900717,1326.0141172900717,1.0002815968605034,0.00014032181662175874
1326.0210618385186,1326.0210618385186,1.0002744222769757,0.00014036956032305136
1326.0280063869948,1326.0280063869948,0.9997547072694255,0.00014041257346678916
1326.0349509355055,1326.0349509355055,1.0000104903838587,0.00014041194951998402
1326.0418954840454,1326.0418954840454,0.9998311473418366,0.00014035123728929692
1326.0488400326265,1326.0488400326265,0.9997886116192047,0.00014034221085309717
1326.0557845812186,1326.0557845812186,1.000062389356164,0.00014035098076113642
1326.062729129852,1326.062729129852,1.000055687290775,0.00014035685458243965
1326.0696736785142,1326.0696736785142,1.0002185085952577,0.00014036783634546586
1326.0766182272052,1326.0766182272052,1.0002607894632578,0.0001403628345548618
1326.0835627759086,1326.0835627759086,1.0000352310412857,0.00014034173486505646
1326.090507324664,1326.090507324664,0.9996051723050015,0.00014031365046367005
1326.0974518734427,1326.0974518734427,1.000148965315007,0.00014031998134230415
1326.104396422239,1326.104396422239,0.9997340565800645,0.00014028974418224776
1326.1113409710697,1326.1113409710697,0.9998765131531011,0.000140271220880421
1326.1182855199186,1326.1182855199186,0.9999845380739375,0.00014027063041994832
1326.1252300688016,1326.1252300688016,1.00015007300079,0.0001402406222403262
1326.132174617703,1326.132174617703,1.0000340840775586,0.00014021356735608302
1326.1391191666328,1326.1391191666328,1.0000371242800725,0.00014019039090916945
1326.1460637155922,1326.1460637155922,1.0001537214848484,0.00014017954900939585
1326.1530082645627,1326.1530082645627,1.0001177640391858,0.0001401246048251583
1326.1599528135685,1326.1599528135685,0.9998307382214862,0.00014009757110322187
1326.1668973625976,1326.1668973625976,1.0000162710731035,0.0001400696116024489
1326.1738419116377,1326.1738419116377,1.0000947226211268,0.0001400369762813972
1326.1807864607022,1326.1807864607022,0.9998052128087652,0.00013999586538784677
1326.1877310097948,1326.1877310097948,0.999988781193814,0.00013996504886044114
1326.1946755589051,1326.1946755589051,1.0002368739298138,0.0001399463838124068
1326.201620108045,1326.201620108045,0.9997903782263668,0.00013989602995397908
1326.208564657208,1326.208564657208,0.9999065513856037,0.00013986949898658752
1326.2155092063822,1326.2155092063822,1.0000313756847983,0.00013984295132957988
1326.2224537555685,1326.2224537555685,1.0000428192995048,0.0001398081147154906
1326.2293983047778,1326.2293983047778,1.0001537260441542,0.0001397814002555795
1326.2363428540164,1326.2363428540164,0.9999680154931454,0.0001397408521100743
1326.243287403266,1326.243287403266,0.9998820364886812,0.00013970364122255246
1326.2502319525345,1326.2502319525345,1.0000718977683416,0.00013967942583090757
1326.257176501831,1326.257176501831,1.000138942248857,0.00013966411285538032
1326.2641210511279,1326.2641210511279,1.0001008424396294,0.00013962522087330008
1326.2710656004535,1326.2710656004535,0.9997379060291282,0.00013956403662824
1326.2780101498024,1326.2780101498024,0.9998484610865986,0.00013953245207620532
1326.2849546991579,1326.2849546991579,0.9998403452785084,0.00013948680876217634
1326.2918992485297,1326.2918992485297,1.0002859150088477,0.0001394879335853935
1326.2988437979257,1326.2988437979257,1.0001316145980277,0.00013944569722890366
1326.305788347327,1326.305788347327,0.9999143054512624,0.00013940463315526648
1326.3127328967523,1326.3127328967523,1.0001059824115015,0.00013940139717099625
1326.3196774461885,1326.3196774461885,1.0002496353076047,0.00013939138380315142
1326.326621995648,1326.326621995648,1.0000126349213239,0.00013936571622578242
1326.3335665451136,1326.3335665451136,1.0001437199656784,0.00013935880686324035
1326.340511094591,1326.340511094591,0.9997907221614503,0.0001393314873566601
1326.3485667720058,1326.3485667720058,0.9998660283004442,0.00013933834010989953
1326.3571780134012,1326.3571780134012,0.9998671688630548,0.00013933504626416257
1326.3641225629308,1326.3641225629308,1.0000910775015055,0.00013934541229777592
1326.371067112466,1326.371067112466,1.000071464092227,0.00013933475350985956
1326.3780116620248,1326.3780116620248,0.999939525721215,0.00013933886264564312
1326.3849562115834,1326.3849562115834,0.9999824042767843,0.00013932775661203595
1326.3919007611653,1326.3919007611653,1.0001321682280033,0.00013933684228638866
1326.3988453107593,1326.3988453107593,0.9999862321182021,0.00013932704293868558
1326.4057898603526,1326.4057898603526,0.9999076519650398,0.0001393076781922413
1326.4127344099702,1326.4127344099702,0.9998972691322592,0.00013930224715281091
1326.4196789595924,1326.4196789595924,0.9998997854662208,0.0001393058328563158
1326.4266235092266,1326.4266235092266,1.0003715850378883,0.0001393200802167072
1326.4335680588667,1326.4335680588667,1.0000286211367295,0.0001393101838425966
1326.4405126085244,1326.4405126085244,0.9997429395761113,0.00013927337120180687
1326.447457158188,1326.447457158188,1.0000923091090503,0.00013929044611635802
1326.454401707857,1326.454401707857,1.0000776597190355,0.0001392904890930204
1326.461346257544,1326.461346257544,0.9998484366059088,0.0001392664938300456
1326.4682908072423,1326.4682908072423,1.0000748662547498,0.00013926425317846355
1326.4752353569347,1326.4752353569347,0.9999168859352086,0.000139240541558991
1326.4821799066508,1326.4821799066508,1.000064245700449,0.00013924392407466279
1326.4891244563664,1326.4891244563664,0.9999430592599282,0.00013923276505575652
1326.4960690061,1326.4960690061,1.000143454906806,0.000139233910833878
1326.503013555827,1326.503013555827,0.9999608201993564,0.00013922125794048595
1326.509958105584,1326.509958105584,0.9998084501559543,0.0001392048203705322
1326.5169026553344,1326.5169026553344,1.000151595549188,0.0001392158893417212
1326.5238472050971,1326.5238472050971,1.0000961678131248,0.00013922936613030947
1326.5307917548537,1326.5307917548537,1.0000587883551462,0.00013924040330663825
1326.5377363046216,1326.5377363046216,0.9998308871169492,0.00013923996518483723
1326.5446808544016,1326.5446808544016,0.9999369792227457,0.00013926087530174826
1326.5516254041872,1326.5516254041872,0.9999568471967519,0.0001392836077398091
1326.5585699539788,1326.5585699539788,1.0001381933768094,0.00013928287110212518
1326.5655145037704,1326.5655145037704,1.000214641171057,0.0001392669839404181
1326.5724590535792,1326.5724590535792,1.0000034095082588,0.00013923308211048375
1326.5794036033883,1326.5794036033883,0.9999077001669823,0.00013921505465510465
1326.5863481532028,1326.5863481532028,0.999841002647958,0.00013920812889002348
1326.593292703018,1326.593292703018,0.9999784000676755,0.00013920334312312913
1326.6002372528503,1326.6002372528503,0.9995853558166615,0.00013915463550566733
1326.6071818026765,1326.6071818026765,1.0003144808129931,0.0001391898019578524
1326.614126352509,1326.614126352509,1.0002207448614324,0.00013918625606510973
1326.6210709023524,1326.6210709023524,0.9998823160166689,0.00013915561532833808
1326.6280154521908,1326.6280154521908,1.000034268227728,0.0001391284164404968
1326.6349600020344,1326.6349600020344,1.0001159393764536,0.00013911142003987943
1326.64190455189,1326.64190455189,0.9998079960327431,0.00013906567174072127
1326.6488491017458,1326.6488491017458,1.0000354464966017,0.00013904265091726752
1326.6557936516012,1326.6557936516012,1.000049796952983,0.00013900892500044612
1326.6627382014626,1326.6627382014626,1.0000756023511168,0.00013896507334783297
1326.6696827513297,1326.6696827513297,0.9999535580341918,0.00013891641931981503
1326.676627301197,1326.676627301197,0.9999737180328939,0.00013887625723350868
1326.6835718510697,1326.6835718510697,1.0000573095982355,0.0001388241673277765
1326.6919053109177,1326.6919053109177,0.999945706770683,0.00013875959869493485
1326.6988498607964,1326.6988498607964,0.9999775428747124,0.00013871660014845038
1326.7057944106693,1326.7057944106693,1.0000404930393452,0.00013865168982985445
1326.7135723065364,1326.7135723065364,0.9999224008537407,0.00013860033629041547
1326.7210724204076,1326.7210724204076,1.000089483176203,0.00013854899601863267
1326.7280169702979,1326.7280169702979,0.9998902779393759,0.00013849634020211013
1326.7349615201767,1326.7349615201767,1.0000038501416884,0.00013844986519883872
1326.7419060700734,1326.7419060700734,1.000132720968926,0.0001384029731195175
1326.7488506199516,1326.7488506199516,0.9999211796850848,0.000138353335014188
1326.755795169848,1326.755795169848,0.9998903330317817,0.00013831315353088615
1326.7627397197443,1326.7627397197443,0.9998899868331916,0.00013826960430883206
1326.7696842696232,1326.7696842696232,1.0000974390527366,0.00013824417734265669
1326.776628819525,1326.776628819525,1.0002114221101828,0.0001382142011795359
1326.7835733694214,1326.7835733694214,1.0000370196832116,0.00013818040314381408
1326.7905179193008,1326.7905179193008,0.9999534452188803,0.0001381601693814795
1326.7974624692022,1326.7974624692022,1.000115924689691,0.0001381505120029691
1326.8044070191052,1326.8044070191052,0.9999695349441339,0.00013813432721454055
1326.811351568989,1326.811351568989,0.999817994151899,0.00013809982783367995
1326.8182961188797,1326.8182961188797,0.9998389372708815,0.00013808143693281192
1326.8252406687818,1326.8252406687818,0.9999922286851535,0.0001380760210967415
1326.8321852186723,1326.8321852186723,1.0001597450581432,0.0001380580728584743
1326.8391297685569,1326.8391297685569,1.0001995826487107,0.00013804011598777171
1326.846074318459,1326.846074318459,0.9998189047193936,0.00013798997124994254
1326.8530188683435,1326.8530188683435,0.9999890339688366,0.0001379747789595353
1326.8599634182342,1326.8599634182342,1.0000952266058798,0.00013793183159951724
1326.8669079681247,1326.8669079681247,0.9999748978398058,0.00013788519686398583
1326.8738525180092,1326.8738525180092,1.0000148754106584,0.00013783282032015455
1326.8807970678936,1326.8807970678936,0.9998787874729368,0.00013777135657577823
1326.8877416177845,1326.8877416177845,1.0001481068080014,0.00013772680015772997
1326.894686167657,1326.894686167657,1.0001806271443434,0.00013767447109987518
1326.901630717542,1326.901630717542,0.9998594137794082,0.00013758448906360526
1326.9085752674207,1326.9085752674207,1.0000061983914246,0.00013752493719769665
1326.9155198172996,1326.9155198172996,1.000040649114032,0.00013745461028429463
1326.9224643671726,1326.9224643671726,1.0001770577826443,0.000137383721147157
1326.9294089170457,1326.9294089170457,0.9999746551966375,0.00013731933766017245
1326.9363534669128,1326.9363534669128,1.0000215416968736,0.00013724093326654595
1326.9432980167796,1326.9432980167796,0.9997709975380493,0.00013716266773950093
1326.9502425666474,1326.9502425666474,1.000110054416846,0.00013712227388306417
1326.9571871165085,1326.9571871165085,0.9999963640632001,0.00013705588802475184
1326.96413166637,1326.96413166637,1.0000081195822408,0.00013699714428082205
1326.9710762162197,1326.9710762162197,0.9997546479578083,0.00013693396638898966
1326.978020766075,1326.978020766075,1.0001538375149033,0.00013690100040317484
1326.9849653159308,1326.9849653159308,0.9998296553981832,0.00013684026377004465
1326.9919098657747,1326.9919098657747,1.0001774834381798,0.00013681523869521367
1326.9988544156186,1326.9988544156186,1.0003201821718821,0.00013678745549005334
1327.0057989654565,1327.0057989654565,0.9996771149983459,0.00013673019085908296
1327.0127435152947,1327.0127435152947,1.000088005688643,0.00013673747391370489
1327.0196880651324,1327.0196880651324,1.000053164944249,0.0001367047538804659
1327.026632614959,1327.026632614959,1.000093070624235,0.00013669036385570516
1327.03357716478,1327.03357716478,0.9999480402996468,0.00013668036310787553
1327.0405217146058,1327.0405217146058,0.9999013401942474,0.0001366471672617288
1327.047466264421,1327.047466264421,0.999897153469188,0.0001366437108229459
1327.0544108142299,1327.0544108142299,0.9999229122463366,0.0001366473247797085
