time,time,flux,flux_err
1570.8202417014395,1570.8202417014395,0.9997301470355767,0.00019178832147480324
1570.8271863967939,1570.8271863967939,1.0002174201714782,0.00019164746551533386
1570.8341310924282,1570.8341310924282,1.0003833313772923,0.00019136977711700285
1570.8410757876898,1570.8410757876898,0.9998936803710642,0.00019107295830661674
1570.848020483139,1570.848020483139,1.0003703541835163,0.0001910344990276049
1570.85496517868,1570.85496517868,0.9999608511756497,0.00019094022332080647
1570.8619098742206,1570.8619098742206,0.9996552886101366,0.00019079292350351692
1570.8688545696684,1570.8688545696684,0.9999883417470027,0.0001907397040685749
1570.875799265396,1570.875799265396,1.0000806976540644,0.00019062088496189043
1570.883855112273,1570.883855112273,1.000013198679274,0.00019044823300539147
1570.891077595718,1570.891077595718,0.9998363750236322,0.0001902882265137717
1570.8980222914447,1570.8980222914447,1.0000700174078527,0.00019013317757972115
1570.9049669871722,1570.9049669871722,1.0004242047907468,0.00019007963537096665
1570.9119116828995,1570.9119116828995,0.9998679964158421,0.00019004068368649028
1570.918856378721,1570.918856378721,0.9998616087014429,0.00018978078285573062
1570.9258010744484,1570.9258010744484,0.9999228573352367,0.00018981468017421609
1570.9327457703616,1570.9327457703616,1.0001033497930014,0.00018949268042769746
1570.9396904661821,1570.9396904661821,0.9998954329971358,0.00018947221783356905
1570.9466351620958,1570.9466351620958,0.999971494656297,0.00018933475764702136
1570.9535798581035,1570.9535798581035,1.0000070314878253,0.00018927616631096272
1570.960524553924,1570.960524553924,0.999687241156551,0.0001891417109692335
1570.9674692500237,1570.9674692500237,1.0001638952886334,0.00018904905089293993
1570.9744139458442,1570.9744139458442,1.0005114541041216,0.00018898616179259596
1570.981358641944,1570.981358641944,1.0001427486941086,0.00018889196963632165
1570.9883033379515,1570.9883033379515,1.000100352856689,0.00018888607355609625
1570.9952480340519,1570.9952480340519,0.999932265625873,0.00018860112162866078
1571.0021927301511,1571.0021927301511,0.9999138738748208,0.0001884299663673265
1571.009137426251,1571.009137426251,1.0001904875542968,0.00018854799143272044
1571.016082122444,1571.016082122444,1.0001817943465912,0.0001882970419590546
1571.0230268185446,1571.0230268185446,1.0001267352327594,0.0001881780987204088
1571.029971514738,1571.029971514738,0.9992654799635137,0.00018797332423667903
1571.036916210931,1571.036916210931,1.0001108475072444,0.0001880545617932584
1571.0438609071234,1571.0438609071234,1.0002231529347836,0.0001878276095205012
1571.0508056033163,1571.0508056033163,1.0005750027501357,0.0001878447548525032
1571.0577502995104,1571.0577502995104,0.9999876124662277,0.00018771561644157633
1571.0646949957968,1571.0646949957968,0.9999760498968225,0.00018777581175180013
1571.071639692176,1571.071639692176,0.9997396755952097,0.00018758776214655108
1571.078584388369,1571.078584388369,0.9998251492160026,0.0001874196290699548
1571.0855290847478,1571.0855290847478,0.9998955230908196,0.0001873148917563684
1571.0924737810346,1571.0924737810346,1.0001426375059304,0.00018718407631859772
1571.0994184774145,1571.0994184774145,0.9997800169131039,0.00018706123738249566
1571.1063631737936,1571.1063631737936,0.9999833815231559,0.0001870642296206417
1571.113307870173,1571.113307870173,1.0001574154997215,0.00018693739282636703
1571.1202525664587,1571.1202525664587,1.0000604105127215,0.0001868511654488907
1571.127197262838,1571.127197262838,1.0000519511242176,0.00018679153061825906
1571.1341419593114,1571.1341419593114,1.0001046531848978,0.0001866263126253656
1571.1410866556907,1571.1410866556907,0.9999854454242767,0.00018656816064733687
1571.1480313521633,1571.1480313521633,1.0000618201062208,0.00018651549594708966
1571.1549760485425,1571.1549760485425,0.9998837286175861,0.00018647866889943268
1571.1619207452009,1571.1619207452009,0.9999443998373586,0.00018637319879922907
1571.1688654416741,1571.1688654416741,0.999820154716665,0.0001863054362153833
1571.1758101380535,1571.1758101380535,1.000023605752855,0.00018625142153607134
1571.182754834526,1571.182754834526,1.000101833024995,0.0001862070981230955
1571.1896995310913,1571.1896995310913,1.000148183086053,0.00018610429069152438
1571.1966442275636,1571.1966442275636,1.0001287766874043,0.00018603262658927708
1571.2035889240367,1571.2035889240367,0.999891107541643,0.00018602617520164892
1571.2105336206957,1571.2105336206957,0.9999887105788934,0.00018587305241832505
1571.2174783170751,1571.2174783170751,0.9996246920703177,0.0001858597892616236
1571.2244230137335,1571.2244230137335,1.000203292148369,0.000185920321463433
1571.2313677102054,1571.2313677102054,1.000400318607612,0.00018581646382154223
1571.2383124067717,1571.2383124067717,1.0003114351959412,0.00018589277800669843
1571.2452571032447,1571.2452571032447,1.0001381176227266,0.00018575939978351033
1571.252201799903,1571.252201799903,1.0000575974965615,0.00018571798090468998
1571.2591464964687,1571.2591464964687,0.9998832950666422,0.00018569205632400367
1571.2660911930338,1571.2660911930338,0.9999096716662033,0.00018555912103235115
1571.2730358895997,1571.2730358895997,0.9999455915952004,0.00018558215606520064
1571.2799805861662,1571.2799805861662,0.9999452593115088,0.00018558536365091
1571.2869252827315,1571.2869252827315,1.0000287063184137,0.00018544259090043708
1571.2938699793904,1571.2938699793904,0.9999282833762241,0.00018543671111808153
1571.3008146759553,1571.3008146759553,1.000039267371816,0.00018552520273756794
1571.307759372521,1571.307759372521,0.999991894943256,0.0001853040288809749
1571.3147040691804,1571.3147040691804,1.0003625218829273,0.0001853677030327376
1571.3216487657462,1571.3216487657462,1.0001274489148206,0.00018532226743832013
1571.328593462312,1571.328593462312,0.9999047715752148,0.00018519445055875268
1571.3355381588772,1571.3355381588772,0.9998163042994884,0.0001850999090433002
1571.3424828555358,1571.3424828555358,0.9998274838084287,0.000185173819960312
1571.3494275521014,1571.3494275521014,0.9999263228766173,0.00018492192778977372
1571.356372248668,1571.356372248668,1.0000154713861817,0.00018511638471197105
1571.3633169453265,1571.3633169453265,0.9999997730418896,0.00018489007280048656
1571.370261641892,1571.370261641892,1.000344631263574,0.000184932232989166
1571.3772063384572,1571.3772063384572,1.0000962549024113,0.00018486978887688238
1571.3841510350228,1571.3841510350228,0.9997824343801838,0.00018478200639882045
1571.391095731682,1571.391095731682,1.0000178213990458,0.00018475323256225755
1571.3980404282481,1571.3980404282481,1.0000787197984422,0.00018465328478909927
1571.4049851248137,1571.4049851248137,0.999557871079916,0.000184577894612154
1571.4119298213786,1571.4119298213786,1.0000529498057822,0.00018461842770671076
1571.4188745179442,1571.4188745179442,1.0003595427074656,0.00018457332787753667
1571.4258192145098,1571.4258192145098,0.9999167838075115,0.00018452497009432433
1571.4327639110763,1571.4327639110763,1.0000794302084741,0.00018456846897034015
1571.439708607642,1571.439708607642,0.9998860470824467,0.00018449384900189332
1571.446653304207,1571.446653304207,1.000022017512491,0.0001844456048699844
1571.4535980006797,1571.4535980006797,0.9997850215315118,0.00018441451664075339
1571.4605426973383,1571.4605426973383,1.000308767206756,0.00018456534329885493
1571.4674873938109,1571.4674873938109,0.9999791983034516,0.0001844792843005596
1571.4744320904704,1571.4744320904704,0.999968148986793,0.00018445566504946573
1571.4813767868495,1571.4813767868495,0.999859220210357,0.0001843525567677726
1571.488321483415,1571.488321483415,0.999920301388373,0.00018437429657525294
1571.4952661799803,1571.4952661799803,0.999954669622692,0.0001844832619395754
1571.5022108763599,1571.5022108763599,1.000300598500407,0.00018457274967043855
1571.5091555729264,1571.5091555729264,1.000046869029544,0.0001843553905929817
1571.5161002694917,1571.5161002694917,1.0004008054880742,0.0001844170097798545
1571.5230449658707,1571.5230449658707,0.9999639888615117,0.00018435632825471765
1571.529989662343,1571.529989662343,0.9998920251297102,0.00018434979364955072
1571.5369343587222,1571.5369343587222,0.9999941210107417,0.00018429814356181186
1571.5438790551952,1571.5438790551952,0.9999010273121767,0.00018428594046384925
1571.550823751575,1571.550823751575,0.9999135978804581,0.0001843458855311134
1571.5577684480472,1571.5577684480472,0.9999957086009786,0.00018439596300716467
1571.5647131444264,1571.5647131444264,0.9998204755246146,0.00018430069628338146
1571.5716578408988,1571.5716578408988,1.0000975248736592,0.0001842436419170699
1571.5786025372777,1571.5786025372777,1.0000874747879882,0.00018434352919551917
1571.5855472337514,1571.5855472337514,1.0001912805588564,0.00018437816160515587
1571.59249193013,1571.59249193013,0.9999933476973453,0.00018418305022300415
1571.5994366265097,1571.5994366265097,0.9998130050683809,0.00018424535234391672
1571.6063813227959,1571.6063813227959,1.000016723301385,0.00018425273453359918
1571.6133260191748,1571.6133260191748,0.9999417721455599,0.00018434486053986378
1571.6202707154614,1571.6202707154614,1.0001232371563489,0.0001842554512731018
1571.6272154118415,1571.6272154118415,0.9999443946842028,0.0001842292812931682
1571.6341601080344,1571.6341601080344,1.0000307797466428,0.00018429798542651379
1571.6411048044135,1571.6411048044135,1.000031885932584,0.00018438920180509182
1571.6480495006062,1571.6480495006062,1.0000797229894725,0.00018427179191132388
1571.6549941968924,1571.6549941968924,0.9997181486385227,0.0001841594926786537
1571.661938893179,1571.661938893179,1.000356965420004,0.00018426393912588835
1571.6688835893726,1571.6688835893726,0.9998855787412664,0.00018418332988793919
1571.6758282855658,1571.6758282855658,0.9999321260473517,0.00018418540842023455
1571.6827729817585,1571.6827729817585,1.0000982704841241,0.00018415148854476247
1571.689717677951,1571.689717677951,0.9998483140272987,0.00018414955957203589
1571.6966623741441,1571.6966623741441,0.999877481847137,0.00018417125922374575
1571.7036070702454,1571.7036070702454,1.000088212425883,0.000184075491750876
1571.7105517664381,1571.7105517664381,1.0001330251546383,0.00018411753045977685
1571.7174964624448,1571.7174964624448,0.9999655370843256,0.0001842081164388676
1571.7244411586375,1571.7244411586375,1.0000555859681133,0.00018412762812839334
1571.731385854644,1571.731385854644,1.000005602286865,0.00018412226241151298
1571.7383305507444,1571.7383305507444,1.0000306615781027,0.0001840741151088304
1571.745275246752,1571.745275246752,0.9998765909903573,0.0001840832828225747
1571.7522199427585,1571.7522199427585,1.000042713916847,0.00018407737792091027
1571.7591646388585,1571.7591646388585,0.9999683612538917,0.00018423913787814295
1571.7661093348647,1571.7661093348647,0.9998890195251515,0.00018419280768527862
1571.7730540307787,1571.7730540307787,1.0002308945803018,0.00018414103580349322
1571.7799987266924,1571.7799987266924,1.0002150672075314,0.00018400507548962114
1571.7869434227,1571.7869434227,0.9999551159528378,0.0001839329698494184
1571.7938881185203,1571.7938881185203,0.9998156282397256,0.00018393758259539373
1571.800832814527,1571.800832814527,1.0001831753505133,0.00018393560868175485
1571.8077775103473,1571.8077775103473,0.9999261898562167,0.0001839727476847608
1571.8147222061675,1571.8147222061675,0.9999881753507427,0.0001839218549019031
1571.8216669019887,1571.8216669019887,1.0000266766917467,0.00018388541904708838
1571.828611597903,1571.828611597903,1.000021976998648,0.00018402704710425525
1571.83555629363,1571.83555629363,1.000058419309031,0.0001837854378181658
1571.8425009894504,1571.8425009894504,0.9999219527686997,0.00018392197524172543
1571.8494456851774,1571.8494456851774,1.000050311384981,0.00018391080122820864
1571.8563903809047,1571.8563903809047,0.9999364968986717,0.00018387756686056867
1571.8633350766331,1571.8633350766331,0.9998846573665743,0.000183813811788441
1571.8702797722674,1571.8702797722674,1.0000642098660113,0.0001838465031897599
1571.8772244679014,1571.8772244679014,1.0001389789168584,0.00018377996249243684
1571.884169163629,1571.884169163629,1.0000480825539302,0.00018380931241205654
1571.8911138592625,1571.8911138592625,1.0001429132074855,0.000183816065244657
1571.8980585548038,1571.8980585548038,0.9999400327261467,0.00018370857299721905
1571.9050032503458,1571.9050032503458,1.0000132894092293,0.00018379472245764328
1571.91194794598,1571.91194794598,1.0000947848587967,0.0001837592059368231
1571.918892641335,1571.918892641335,0.9998187724114999,0.00018368412529828023
1571.9258373370624,1571.9258373370624,0.9998074247384636,0.00018380705847638993
1571.9327820323238,1571.9327820323238,1.0002505354299949,0.00018387822511835528
1571.939726727958,1571.939726727958,1.0000305752101843,0.00018373973631687462
1571.9466714233133,1571.9466714233133,1.0001598476637248,0.00018372005607780102
1571.9536161185756,1571.9536161185756,1.0001095714651715,0.00018377635066098085
1571.9605608141167,1571.9605608141167,0.9999800923076176,0.00018387332593837542
1571.9675055095643,1571.9675055095643,0.9996546503080971,0.0001837142894972509
1571.9744502048256,1571.9744502048256,1.0000881064714195,0.00018386663477576323
1571.9813949000873,1571.9813949000873,1.000128398694298,0.00018382515485407437
1571.98833959535,1571.98833959535,0.9998975030846389,0.00018390061107496406
1571.9952842906118,1571.9952842906118,1.0000236541936074,0.00018381570174069538
1572.0022289858732,1572.0022289858732,1.00049168241823,0.00018376884858403985
1572.009173681135,1572.009173681135,0.9999788148999593,0.0001837429830899159
1572.0161183763034,1572.0161183763034,0.9997022912926669,0.00018371025483150414
1572.0230630711924,1572.0230630711924,1.000187655054954,0.0001838279248719445
1572.030007766455,1572.030007766455,0.9999671547071319,0.0001835949812458145
1572.0369524616235,1572.0369524616235,1.0001135907311791,0.0001837598282051589
1572.0438971565127,1572.0438971565127,0.9999724237045493,0.00018376673744270415
1572.0508418517743,1572.0508418517743,1.000305012715039,0.00018381928388659104
1572.05778654657,1572.05778654657,0.9998975312730736,0.00018365249475154265
1572.0647312416456,1572.0647312416456,1.0001963866705137,0.00018368287534778466
1572.0716759366283,1572.0716759366283,0.9998119336307238,0.00018362005931101756
1572.0786206314249,1572.0786206314249,0.9999822616134038,0.0001836265376660631
1572.0855653264073,1572.0855653264073,0.9999542805751489,0.000183577051278201
1572.092510021296,1572.092510021296,1.0003508689318616,0.00018366363858057346
1572.0994547160922,1572.0994547160922,1.000096307316978,0.00018357425643653663
1572.106399410888,1572.106399410888,0.9998765796136059,0.00018358884730806127
1572.1133441056845,1572.1133441056845,1.0000482111068054,0.00018357288506389092
1572.1202888004811,1572.1202888004811,1.000118709034033,0.00018362433633074994
1572.127233495184,1572.127233495184,1.0002252128403548,0.000183539046630092
1572.1341781898864,1572.1341781898864,1.0000344923560067,0.00018351390173790657
1572.141122884496,1572.141122884496,0.999775915241808,0.00018348899478433115
1572.1480675791058,1572.1480675791058,0.9997130025311411,0.00018352910134241556
1572.1550122737158,1572.1550122737158,0.9999116546069817,0.00018363773488556584
1572.1619569683266,1572.1619569683266,1.0000439349954662,0.00018371465679657093
1572.168901662843,1572.168901662843,1.0002833657394974,0.0001835263824482858
1572.1758463573592,1572.1758463573592,1.0000961332325224,0.00018345260323484252
1572.1827910517832,1572.1827910517832,1.0001111424469027,0.00018355717319965703
1572.1897357462992,1572.1897357462992,0.9999608906202054,0.00018350246704928417
1572.1966804407227,1572.1966804407227,0.9996032811593369,0.00018357523882038274
1572.2036251350542,1572.2036251350542,1.0000994957159706,0.00018359236174704966
1572.2105698293844,1572.2105698293844,1.0001645784229989,0.00018361551829052365
1572.217514523715,1572.217514523715,0.9997968675974521,0.00018349758931804268
1572.2244592180452,1572.2244592180452,1.0000169261570708,0.00018354777844001137
1572.2314039122823,1572.2314039122823,0.9999880447715828,0.00018358639681140965
1572.238348606519,1572.238348606519,1.0002667653532158,0.00018355396133297393
1572.2452933006641,1572.2452933006641,1.00001220656916,0.00018348661774632817
1572.2522379949019,1572.2522379949019,1.0001218253347095,0.00018355363114703327
1572.2591826890455,1572.2591826890455,0.9998208797977328,0.00018351659615908891
1572.2661273830965,1572.2661273830965,0.9997258890167163,0.00018349345155936327
1572.2730720771474,1572.2730720771474,1.000021292640174,0.00018352009171387806
1572.2800167711052,1572.2800167711052,0.9999167572438292,0.00018354666629260207
1572.2869614651568,1572.2869614651568,1.0008064815394258,0.00018351074983879268
1572.2939061590218,1572.2939061590218,1.0002170900817116,0.00018357545876617254
1572.3008508529795,1572.3008508529795,0.9998877522095073,0.00018358695120506655
1572.3077955469373,1572.3077955469373,1.0001390406273827,0.0001835408014751854
1572.314740240802,1572.314740240802,0.9999762875199514,0.00018347796268556723
1572.321684934573,1572.321684934573,1.0000912103439052,0.00018352163197221845
1572.3286296284382,1572.3286296284382,1.0001276212416745,0.00018346305718075913
1572.3355743221173,1572.3355743221173,0.9997126326247638,0.00018349548973047272
1572.342519015796,1572.342519015796,0.999860256810539,0.00018346125690665271
1572.3494637095675,1572.3494637095675,1.000120214610107,0.00018345194607394748
1572.3564084031525,1572.3564084031525,0.9998586498915081,0.00018332007611531959
1572.363353096831,1572.363353096831,0.9999863250475348,0.0001834603861813364
1572.3702977903226,1572.3702977903226,1.0000463532155146,0.00018337588351975367
1572.3772424838157,1572.3772424838157,1.0000284217260218,0.00018340689746196677
1572.3841871774016,1572.3841871774016,1.0000236046529807,0.00018353750195337803
1572.3911318708936,1572.3911318708936,0.9997142521001887,0.00018345295801131922
1572.3980765642923,1572.3980765642923,1.000365161233586,0.00018340249267797588
1572.4050212576913,1572.4050212576913,1.0002544427018019,0.00018340956658559256
1572.411965950997,1572.411965950997,0.9998759102206964,0.00018339776099282327
1572.4189106443032,1572.4189106443032,0.9999757284262689,0.0001833485832179037
1572.425855337703,1572.425855337703,0.9998284091900945,0.00018325778410730438
1572.4328000309156,1572.4328000309156,1.000316343087361,0.0001833527162414942
1572.4397447240353,1572.4397447240353,0.9997579810618064,0.00018342646815512162
1572.446689417341,1572.446689417341,0.9999051467146238,0.00018327959734742305
1572.4536341103676,1572.4536341103676,1.0000110876551986,0.00018335323959582355
1572.460578803487,1572.460578803487,0.9999988186338765,0.00018339855904439198
1572.4675234967006,1572.4675234967006,0.9999786143668701,0.00018329951929026505
1572.474468189634,1572.474468189634,1.0000362890145975,0.00018328355473600525
1572.4814128825676,1572.4814128825676,1.0001387217545687,0.0001833989142133592
1572.488357575501,1572.488357575501,0.9996686558687387,0.00018320984198140616
1572.4953022684338,1572.4953022684338,0.9999358059840364,0.00018331929344889782
1572.502246961367,1572.502246961367,1.000227160384745,0.00018338377837675047
1572.5091916543008,1572.5091916543008,1.0002480686945188,0.00018343659083318615
1572.5161363468626,1572.5161363468626,1.0001146982900067,0.00018330720716999447
1572.5230810397027,1572.5230810397027,0.9999012175041286,0.00018335383143320362
1572.53002573245,1572.53002573245,1.0000072690926802,0.00018323348473707715
1572.5369704251034,1572.5369704251034,0.9998633590663717,0.00018332232515908347
1572.5439151177575,1572.5439151177575,1.0000717426874957,0.00018325496157367072
1572.5508598104116,1572.5508598104116,0.9997096687704344,0.0001833411617768104
1572.5578045029724,1572.5578045029724,0.9999004578081128,0.00018328563508141927
1572.564749195441,1572.564749195441,1.0000618947157474,0.0001833294309755592
1572.5716938879084,1572.5716938879084,0.999803492102498,0.00018329079887940088
