time,time,flux,flux_err
1325.2995356568335,1325.2995356568335,1.0007592722017267,0.0011726622241871997
1325.307869092511,1325.307869092511,1.00012666159291,0.0011749930730662018
1325.3162025283834,1325.3162025283834,0.9988248118630416,0.0011794012514588109
1325.3245359644636,1325.3245359644636,0.999049678199934,0.001184526012812288
1325.3321749477036,1325.3321749477036,0.9975702056673812,0.0010855108717239893
1325.3391194780536,1325.3391194780536,0.9992416433566416,0.0010908054165225123
1325.346064008561,1325.346064008561,0.9996031790525324,0.0010961058218631405
1325.3530085391733,1325.3530085391733,0.9980056221519302,0.0011015913011978085
1325.3599530699248,1325.3599530699248,0.9997783589404972,0.001108568471308587
1325.3668976008223,1325.3668976008223,0.9996675581393699,0.0011150860220855263
1325.3738421318242,1325.3738421318242,0.999425999795166,0.0011219903736116087
1325.3807866629545,1325.3807866629545,1.0004715401357898,0.0011293954704200988
1325.3877311942126,1325.3877311942126,1.0006506780258877,0.0011375816095649481
1325.3946757255985,1325.3946757255985,1.001936869162074,0.001145647745332139
1325.4016202571015,1325.4016202571015,0.9986969296607034,0.001152894415106807
1325.4085647887146,1325.4085647887146,1.0003431130261178,0.0011612582906918101
1325.4155093204558,1325.4155093204558,0.998346096116711,0.0011695088941662817
1325.4224538523135,1325.4224538523135,1.0006474992328749,0.001179520847390977
1325.4293983842817,1325.4293983842817,1.0001631395471453,0.0011890731629320174
1325.4363429163666,1325.4363429163666,0.9986032170393819,0.0011988635914298533
1325.4432874485617,1325.4432874485617,0.9988505533827693,0.001209731986073455
1325.4502319808737,1325.4502319808737,0.9997058026216304,0.0012214310452761078
1325.45717651329,1325.45717651329,1.0000047953991855,0.0012333124759729666
1325.4641210458171,1325.4641210458171,1.002502128288818,0.001245819187385234
1325.4710655784547,1325.4710655784547,0.9991143569064107,0.0012578924504074028
1325.4780101111915,1325.4780101111915,1.001052220336435,0.00127253066237804
1325.4849546440328,1325.4849546440328,0.9991981405737661,0.0012876341380565607
1325.491899176985,1325.491899176985,1.000355309453233,0.001302885159338898
1325.4988437100303,1325.4988437100303,0.999806975644432,0.00131819307696526
1325.5057882431859,1325.5057882431859,0.9994884571076657,0.0013350622598976374
1325.5127327764349,1325.5127327764349,0.9985058068084813,0.0013504721362128426
1325.519677309771,1325.519677309771,0.999752488321991,0.0013665912364201809
1325.5266218432175,1325.5266218432175,0.9995286052190071,0.0013826474225330783
1325.5335663767576,1325.5335663767576,1.0006092864456329,0.00139802883424777
1325.5405109103904,1325.5405109103904,0.9982674961533633,0.0014119984357996234
1325.547455444117,1325.547455444117,1.0023879900266868,0.0014265942716640873
1325.554399977936,1325.554399977936,0.9998880534372256,0.0014398525877110549
1325.5613445118488,1325.5613445118488,0.9994535064923656,0.0014515673926142176
1325.5682890458486,1325.5682890458486,1.0029619427268366,0.0014634333408178983
1325.5752335799295,1325.5752335799295,0.997524688010653,0.0014729878581043693
1325.58217811411,1325.58217811411,1.0004350827548831,0.0014823204940300262
1325.5891226483595,1325.5891226483595,1.000199633850939,0.0014904972262671308
1325.596067182709,1325.596067182709,1.0007500181670346,0.001497580060794601
1325.6030117171333,1325.6030117171333,0.999592270512301,0.001502700861842649
1325.6099562516513,1325.6099562516513,0.9986823171969027,0.0015070846880398752
1325.616900786239,1325.616900786239,1.0016239348427036,0.0015102120477672335
1325.6238453209198,1325.6238453209198,0.9990003368953808,0.0015115466711396275
1325.6307898556647,1325.6307898556647,1.000106503335577,0.0015124008664073642
1325.6377343905028,1325.6377343905028,1.0010451423709856,0.0015118367660842138
1325.6446789254044,1325.6446789254044,0.9988295203380281,0.0015097728212989602
1325.6516234603937,1325.6516234603937,1.0010600618767689,0.001509229998368969
1325.6585679954528,1325.6585679954528,0.9996298213508348,0.0015078806126429878
1325.6655125305876,1325.6655125305876,1.0008898197409997,0.001506470167908446
1325.672457065798,1325.672457065798,1.0010921059351257,0.0015052937554011158
1325.6794016010729,1325.6794016010729,1.0012719080759969,0.001504648721904975
1325.686346136423,1325.686346136423,1.0012637054374487,0.0015049242719212623
1325.6932906718484,1325.6932906718484,0.9989211010244772,0.0015047707439475237
1325.700235207339,1325.700235207339,1.0006679987297933,0.0015052520462331006
1325.7071797428985,1325.7071797428985,1.0016392086390007,0.001506812615005506
1325.714124278516,1325.714124278516,0.9988928295628966,0.0015083891501543223
1325.7210688142154,1325.7210688142154,1.002737860203582,0.0015116644019842393
1325.7280133499676,1325.7280133499676,0.9964479687647978,0.0015130773698385153
1325.734957885795,1325.734957885795,0.9998218124366705,0.0015154645380043273
1325.7419024216863,1325.7419024216863,1.0011564098018884,0.0015196231410306742
1325.7488469576301,1325.7488469576301,1.000618152417717,0.0015234788519334157
1325.7557914936442,1325.7557914936442,0.9995541712492626,0.0015276723006174523
1325.762736029716,1325.762736029716,1.0006101731538675,0.0015319392313541498
1325.769680565846,1325.769680565846,0.9991259557739565,0.0015360578714461981
1325.7766251020462,1325.7766251020462,0.9978837478486777,0.0015400310243294266
1325.7835696382926,1325.7835696382926,1.0018827293385577,0.0015448887254309416
1325.7905141745973,1325.7905141745973,1.002102675844084,0.0015490594801127631
1325.7974587109604,1325.7974587109604,0.9991667994470799,0.0015519935019252151
1325.8044032473877,1325.8044032473877,1.0005404371510038,0.001554874799734162
1325.811347783861,1325.811347783861,0.9986863861188772,0.001557436680967766
1325.818292320393,1325.818292320393,0.999770336733425,0.001559726623980222
1325.825236856977,1325.825236856977,0.9988448025538427,0.0015612108006791017
1325.832181393608,1325.832181393608,1.002255807335536,0.0015628261906317318
1325.8391259303085,1325.8391259303085,1.0011826176005594,0.0015632851233616748
1325.8460704670497,1325.8460704670497,1.000176719715012,0.001562203673672374
1325.853015003849,1325.853015003849,0.9991398172295174,0.0015602953536795732
1325.8599595406836,1325.8599595406836,1.0014150385420255,0.00155744210989473
1325.8669040775821,1325.8669040775821,0.9997369345292283,0.0015523233405764177
1325.8738486145273,1325.8738486145273,1.0039697649181658,0.0015468345925341357
1325.8807931515016,1325.8807931515016,0.9988487946453575,0.0015396234630941472
1325.8877376885398,1325.8877376885398,0.9996290345340137,0.0015346921080745411
1325.8946822256185,1325.8946822256185,1.000186813366736,0.0015301032952174372
1325.9016267627499,1325.9016267627499,0.9994609614161257,0.0015250031357545168
1325.908571299928,1325.908571299928,0.9988616939029565,0.0015208992250703374
1325.9155158371345,1325.9155158371345,1.0014234518106897,0.0015172606071739187
1325.9224603744058,1325.9224603744058,1.0009353601048638,0.0015133601372890775
1325.929404911706,1325.929404911706,1.001342295297754,0.0015105842837390031
1325.9363494490585,1325.9363494490585,1.0006280639669012,0.001508218319082121
1325.943293986446,1325.943293986446,0.998042823100144,0.0015048070401904067
1325.9502385238743,1325.9502385238743,1.0007278116417886,0.0015033117177005266
1325.957183061349,1325.957183061349,1.0002291513952943,0.0015013391218176913
1325.9652387248523,1325.9652387248523,0.9991251775985379,0.0014990067331128666
1325.9724610439275,1325.9724610439275,0.9998021126054321,0.001498800334622397
1325.9794055815182,1325.9794055815182,1.000171045868824,0.0014974372095807463
1325.9863501191562,1325.9863501191562,0.999099494616676,0.0014972191731510566
1325.9932946568345,1325.9932946568345,0.999786244846678,0.0014981253543645341
1326.0002391945368,1326.0002391945368,1.0002343729075176,0.0014987643639457157
1326.0071837322844,1326.0071837322844,0.9992755078243073,0.001500508037855708
1326.014128270068,1326.014128270068,1.0015824403691205,0.001504009674753669
1326.0210728078805,1326.0210728078805,1.000494080657339,0.0015074194607467136
1326.0280173457336,1326.0280173457336,1.0012822693489987,0.001510347445057168
1326.0349618836274,1326.0349618836274,0.9986637311814963,0.0015096281190205315
1326.0419064215444,1326.0419064215444,0.9978132567118447,0.0015057434236427478
1326.048850959485,1326.048850959485,1.0018681909285834,0.0015050542114185277
1326.0557954974834,1326.0557954974834,1.00140316425756,0.0015047735941208376
1326.0627400355054,1326.0627400355054,0.9995766108026508,0.0015048691456539306
1326.0696845735506,1326.0696845735506,1.0008278462450382,0.0015050473561085832
1326.0766291116304,1326.0766291116304,0.9996996984133565,0.0015047220296733783
1326.08357364974,1326.08357364974,0.9996847149789332,0.0015040144660371374
1326.09051818789,1326.09051818789,1.0016842440664522,0.0015041757495015498
1326.0974627260632,1326.0974627260632,0.9992012576716952,0.001503152882944234
1326.1044072642599,1326.1044072642599,0.9990433746111475,0.0015017169459366718
1326.1113518024908,1326.1113518024908,1.0004835062316946,0.0015013606528485718
1326.1182963407518,1326.1182963407518,0.9983796065037213,0.0014998239101496175
1326.1252408790353,1326.1252408790353,1.000267937387868,0.0014990102179936655
1326.1321854173543,1326.1321854173543,1.0003672034998972,0.0014976561745014686
1326.1391299556904,1326.1391299556904,1.000595907669333,0.0014958011301989661
1326.1460744940562,1326.1460744940562,0.9978790692354798,0.0014933993984505346
1326.153019032462,1326.153019032462,1.0009119289808566,0.0014925240744772788
1326.159963570868,1326.159963570868,1.0020276780853283,0.0014914334725891311
1326.166908109315,1326.166908109315,1.0007648736028472,0.001488776952838045
1326.1738526477845,1326.1738526477845,0.9982277438296563,0.0014861235672336002
1326.1807971862727,1326.1807971862727,1.0005815109989746,0.0014851639058981628
1326.1877417247892,1326.1877417247892,1.0004383439874762,0.0014827264815639796
1326.1946862633347,1326.1946862633347,1.0004344447799025,0.001481491026784864
1326.2016308018983,1326.2016308018983,1.0002836705222955,0.001479551049458566
1326.208575340485,1326.208575340485,0.9969480578572343,0.0014776577340100516
1326.2155198791002,1326.2155198791002,0.9997887272411938,0.001476567833275893
1326.2224644177277,1326.2224644177277,1.0016318340634698,0.0014751569050435404
1326.229408956378,1326.229408956378,1.001841838305193,0.001473394004658208
1326.236353495052,1326.236353495052,0.9997689082948036,0.0014712503561536254
1326.2432980337487,1326.2432980337487,0.9990459671032559,0.0014696071729261362
1326.250242572464,1326.250242572464,0.9997620907329358,0.0014682461148217032
1326.2571871112018,1326.2571871112018,0.9998961348659294,0.0014672449264731987
1326.2641316499512,1326.2641316499512,0.9998336013041659,0.0014654278860264413
1326.2710761887297,1326.2710761887297,1.0015500013463532,0.0014632448098281503
1326.2780207275198,1326.2780207275198,0.9979124949233069,0.0014606796608351343
1326.2849652663394,1326.2849652663394,1.000170670373247,0.0014597424194705193
1326.2919098051527,1326.2919098051527,1.002100037804526,0.0014581611806291244
1326.2988543440188,1326.2988543440188,0.9985702889272702,0.001456297126808228
1326.3057988828787,1326.3057988828787,0.9975241305291973,0.0014542728800717828
1326.3127434217683,1326.3127434217683,1.0005493078090208,0.0014536161506834492
1326.3196879606633,1326.3196879606633,1.0023800878408435,0.0014532870500670594
1326.3266324995814,1326.3266324995814,1.0013216522073884,0.0014524150922355602
1326.3335770385172,1326.3335770385172,1.0020493498611476,0.001451929855125021
1326.3405215774706,1326.3405215774706,0.9997105193669873,0.0014514529761683423
1326.3485772426734,1326.3485772426734,0.9992620853462479,0.0014511463400156597
1326.3571884710068,1326.3571884710068,0.9992286216148836,0.0014511818294301658
1326.3641330100186,1326.3641330100186,0.9984786779577611,0.001450073422285127
1326.37107754903,1326.37107754903,1.0002475334823866,0.0014498588598098787
1326.3780220880647,1326.3780220880647,0.9969355132309723,0.0014497783143614267
1326.3849666271108,1326.3849666271108,1.001706390657721,0.0014505981661716194
1326.391911166169,1326.391911166169,0.99989388514258,0.001450566053566544
1326.3988557052448,1326.3988557052448,1.000094191813903,0.0014508039549161829
1326.4058002443373,1326.4058002443373,1.0018192957322547,0.0014505154426704251
1326.412744783431,1326.412744783431,1.0009147650483865,0.0014502111374559102
1326.419689322541,1326.419689322541,1.0003218139865866,0.0014496453917088041
1326.4266338616685,1326.4266338616685,0.9990314606105514,0.0014494873134884788
1326.4335784008022,1326.4335784008022,0.9965868158558486,0.0014491203333676305
1326.4405229399595,1326.4405229399595,1.0003959735629664,0.0014494979586469011
1326.4474674791163,1326.4474674791163,1.000500942510177,0.0014495468442970985
1326.4544120182904,1326.4544120182904,0.9990336565786417,0.001449077692925281
1326.4613565574768,1326.4613565574768,1.0014241743486743,0.0014491899002500822
1326.4683010966687,1326.4683010966687,1.0021542152436558,0.0014487665550056879
1326.4752456358722,1326.4752456358722,0.9983931283897022,0.0014475584878281033
1326.4821901750875,1326.4821901750875,1.000416224151742,0.0014476744380330507
1326.4891347143198,1326.4891347143198,0.9988756046205978,0.001447168277795072
1326.4960792535471,1326.4960792535471,1.0022319901182013,0.0014473920714719987
1326.5030237927967,1326.5030237927967,0.9989155039973865,0.0014464560277399723
1326.509968332053,1326.509968332053,1.000231521183125,0.0014472794620756127
1326.5169128713087,1326.5169128713087,0.9980736994353165,0.001446557672592204
1326.523857410588,1326.523857410588,1.0009868183252797,0.0014482520269419835
1326.5308019498673,1326.5308019498673,1.0002621568648462,0.0014491812593901527
1326.5377464891578,1326.5377464891578,0.9995406643508943,0.0014496984778090238
1326.5446910284547,1326.5446910284547,1.001217194124666,0.0014510980030807115
1326.551635567763,1326.551635567763,0.999835860442752,0.0014523958112608313
1326.558580107083,1326.558580107083,1.0014670484149006,0.0014517933380165846
1326.565524646397,1326.565524646397,0.9988013275815886,0.0014508434990120338
1326.5724691857286,1326.5724691857286,0.9980682141086957,0.0014495751692130629
1326.5794137250662,1326.5794137250662,0.9997983860089343,0.0014497208060143736
1326.586358264415,1326.586358264415,1.0017147053974038,0.0014504964379441656
1326.5933028037643,1326.5933028037643,1.0005465191935425,0.0014497078919773715
1326.6002473431192,1326.6002473431192,1.000196031564272,0.001449659348053645
1326.6071918824796,1326.6071918824796,0.9994163534476354,0.0014488721819991622
1326.6141364218463,1326.6141364218463,0.9997304980435029,0.001448492235669883
1326.6210809612242,1326.6210809612242,1.0003511143010675,0.0014473137737929024
1326.6280255006027,1326.6280255006027,0.9995147447749886,0.0014465507711332094
1326.6349700399921,1326.6349700399921,0.9994987794980258,0.0014447705907895867
1326.641914579382,1326.641914579382,0.9989714983176314,0.0014431009661841016
1326.6488591187779,1326.6488591187779,1.0030555010919866,0.0014417448578403285
1326.6558036581791,1326.6558036581791,0.9987879962486683,0.0014389112346943028
1326.6627481975925,1326.6627481975925,1.0006179171661636,0.0014363397693211261
1326.6696927369935,1326.6696927369935,1.001423189278272,0.0014334333637015025
1326.6766372764184,1326.6766372764184,0.9992857860141615,0.001430541493448848
1326.683581815843,1326.683581815843,0.997626503272295,0.0014273435857714292
1326.691915263153,1326.691915263153,0.9989995766154449,0.0014238613606250702
1326.6988598025775,1326.6988598025775,0.9992937490724492,0.0014205928651173955
1326.7058043420022,1326.7058043420022,1.0019263157250449,0.001418221910866911
1326.7135822261812,1326.7135822261812,1.0012107609127896,0.0014154790983159674
1326.721082328766,1326.721082328766,1.0016672563444047,0.0014119396399548299
1326.7280268682196,1326.7280268682196,0.9984363826132023,0.0014089126167584286
1326.7349714076618,1326.7349714076618,0.9989909278749092,0.0014063817820605287
1326.74191594711,1326.74191594711,0.9989755340276106,0.0014039158162737655
1326.7488604865634,1326.7488604865634,1.001819683529655,0.0014022898284378575
1326.7558050260172,1326.7558050260172,1.0020312096456256,0.0014003880660136566
1326.7627495654713,1326.7627495654713,0.9998188411757154,0.001397845415078766
1326.769694104931,1326.769694104931,0.9978420525893821,0.0013958951195674643
1326.7766386443905,1326.7766386443905,1.0013369912082803,0.0013949047361621822
1326.7835831838559,1326.7835831838559,1.0034027189739103,0.0013938178814121615
1326.7905277233217,1326.7905277233217,0.9997304952482347,0.0013917815913794128
1326.7974722627866,1326.7974722627866,0.9974999525419121,0.0013902104404371473
1326.804416802253,1326.804416802253,1.0003220289220445,0.0013898291427452305
1326.8113613417236,1326.8113613417236,1.001655144142094,0.001389793169751636
1326.818305881195,1326.818305881195,0.9991601149855782,0.0013886282162502161
1326.8252504206605,1326.8252504206605,1.001655887071154,0.0013877312661077783
1326.8321949601318,1326.8321949601318,0.9996609613554501,0.001385881237783834
1326.8391394996088,1326.8391394996088,1.000199177302497,0.0013850612945938434
1326.84608403908,1326.84608403908,1.0000901037387553,0.0013832359864827727
1326.8530285785514,1326.8530285785514,1.0003091284871506,0.0013814018417928396
1326.8599731180286,1326.8599731180286,0.997682590149004,0.0013783327922774458
1326.8669176575,1326.8669176575,0.9981935433765408,0.0013756445549315069
1326.8738621969712,1326.8738621969712,1.0003524087072726,0.0013729844542271265
1326.880806736448,1326.880806736448,1.0014227769711055,0.0013697998394251757
1326.8877512759198,1326.8877512759198,0.9992973489789353,0.0013660912030409621
1326.8946958153906,1326.8946958153906,1.000394800027184,0.0013619926154117793
1326.901640354868,1326.901640354868,0.9995778477100217,0.0013580001196794465
1326.9085848943391,1326.9085848943391,0.9988794191812997,0.0013535680808190048
1326.9155294338047,1326.9155294338047,1.0012187904841912,0.0013490614003731295
1326.9224739732758,1326.9224739732758,0.9989199071365802,0.0013437444784898862
1326.9294185127474,1326.9294185127474,0.9979607220664443,0.001339239898045724
1326.9363630522128,1326.9363630522128,1.0031047855517696,0.001335907967867722
1326.943307591678,1326.943307591678,0.9997404275708464,0.001330851777655635
1326.9502521311438,1326.9502521311438,1.0006157612948936,0.0013270256678853652
1326.9571966706092,1326.9571966706092,0.9989574999456874,0.001322395226346171
1326.9641412100689,1326.9641412100689,1.0011942457084413,0.0013194952354123345
1326.9710857495286,1326.9710857495286,1.0002144495689629,0.0013153122653211502
1326.9780302889822,1326.9780302889822,1.0018227685195615,0.0013124665686538662
1326.984974828442,1326.984974828442,0.9990155366070999,0.001308991542009413
1326.991919367896,1326.991919367896,0.999502721070942,0.0013066785316570811
1326.9988639073497,1326.9988639073497,0.9995264555525051,0.0013045215280721924
1327.0058084467978,1327.0058084467978,0.9996570167599732,0.001302815038545754
1327.0127529862398,1327.0127529862398,1.0002363306369408,0.0013017101508082576
1327.0196975256877,1327.0196975256877,1.0001760254657888,0.001300101048516435
1327.02664206513,1327.02664206513,1.0006622921820605,0.0012990916809066022
1327.0335866045666,1327.0335866045666,0.9998643310319976,0.001298436289535425
1327.0405311439965,1327.0405311439965,0.999742914160179,0.001297022232384379
1327.047475683445,1327.047475683445,0.9995165638923236,0.0012966130335999356
1327.0544202228696,1327.0544202228696,1.0018035020376965,0.0012970850402272034
1327.0624758886026,1327.0624758886026,1.0007830671561566,0.001296517060570446
1327.069698209604,1327.069698209604,0.9991495903672141,0.0012958807970366766
1327.076642749029,1327.076642749029,0.9995066609188467,0.0012959474456686406
1327.08358728843,1327.08358728843,0.998644932388306,0.0012955549966649589
