time,time,flux,flux_err
1325.2990917182935,1325.2990917182935,1.0000679059777142,0.0005380519189010652
1325.3074251673493,1325.3074251673493,1.0000784897927966,0.0005386563947774266
1325.315064162504,1325.315064162504,0.9997137720290054,0.0004918617793337479
1325.3220087037216,1325.3220087037216,0.9999991157695314,0.0004923944736735597
1325.3289532450904,1325.3289532450904,1.0002615985834793,0.0004929728921050633
1325.3358977866076,1325.3358977866076,1.0007458004693033,0.0004936223832554681
1325.3428423282735,1325.3428423282735,0.9986552675522539,0.0004935727131273934
1325.3497868700904,1325.3497868700904,0.9997883304349457,0.0004944485134002745
1325.35673141205,1325.35673141205,1.0002848740652468,0.0004951371122632151
1325.3636759541494,1325.3636759541494,1.00034797718435,0.0004959884003063776
1325.3706204963917,1325.3706204963917,1.000107945005765,0.000496502071922867
1325.37756503877,1325.37756503877,1.0006754808024545,0.0004972821010280167
1325.3845095812947,1325.3845095812947,0.9998358761413029,0.0004977663534818963
1325.3914541239496,1325.3914541239496,0.9993407795763387,0.0004983516014515023
1325.3983986667445,1325.3983986667445,0.999406367878891,0.0004991163308974642
1325.4053432096648,1325.4053432096648,0.9993968170554011,0.000499810913675176
1325.4122877527243,1325.4122877527243,1.0006099236750052,0.0005007285246638272
1325.4192322959093,1325.4192322959093,1.000667575890954,0.0005015071718121175
1325.4261768392223,1325.4261768392223,0.9992928024068961,0.0005020667927140663
1325.433121382663,1325.433121382663,1.0007108507271067,0.0005030073292428526
1325.440065926227,1325.440065926227,1.0003373916420064,0.0005035854664211899
1325.4470104699208,1325.4470104699208,1.0004834845877792,0.0005042603693181845
1325.4539550137256,1325.4539550137256,0.9995847568547716,0.0005049129121881019
1325.4608995576555,1325.4608995576555,1.0002166473135636,0.0005057491587086625
1325.4678441017077,1325.4678441017077,0.9988213268995751,0.0005063811038405443
1325.4747886458736,1325.4747886458736,1.0004972264879153,0.000507570981413223
1325.4817331901554,1325.4817331901554,0.9994641247386754,0.000508345879968217
1325.4886777345514,1325.4886777345514,1.0002989160641207,0.0005095020291434489
1325.4956222790606,1325.4956222790606,1.0005571263671442,0.00051072444557092
1325.5025668236858,1325.5025668236858,0.9999189845473643,0.0005116327101784177
1325.5095113684106,1325.5095113684106,0.9992170461253227,0.0005128939573998345
1325.5164559132513,1325.5164559132513,1.0005816789391933,0.0005143333361869248
1325.5234004581944,1325.5234004581944,0.9993684061257199,0.0005154047129850793
1325.5303450032447,1325.5303450032447,1.0004838843554302,0.000517191815231565
1325.5372895484059,1325.5372895484059,0.9995009109588449,0.0005184735868882836
1325.5442340936602,1325.5442340936602,1.0005084221798966,0.0005201659107164684
1325.551178639022,1325.551178639022,1.0000222661750844,0.000521603302916072
1325.558123184477,1325.558123184477,1.000262976578632,0.0005233793815507431
1325.565067730034,1325.565067730034,1.0009307271767054,0.0005250112067240276
1325.5720122756895,1325.5720122756895,0.9994327077442329,0.0005264323710353515
1325.5789568214448,1325.5789568214448,0.999853109586836,0.0005281423822930928
1325.5859013672866,1325.5859013672866,1.0000715082947012,0.0005297115464091382
1325.5928459132306,1325.5928459132306,0.9990740072889723,0.0005311200701930441
1325.5997904592589,1325.5997904592589,1.0005668324526855,0.0005327826834339831
1325.6067350053831,1325.6067350053831,1.0000207237542416,0.0005340880332223252
1325.6136795515981,1325.6136795515981,0.9993851220672957,0.000535255841530133
1325.620624097894,1325.620624097894,1.0002337133886816,0.0005364188712462807
1325.6275686442864,1325.6275686442864,1.0000086878830063,0.0005373410840709528
1325.6345131907626,1325.6345131907626,1.000293062241465,0.0005381122248026386
1325.6414577373182,1325.6414577373182,0.9998236059429468,0.0005389695822639793
1325.6484022839632,1325.6484022839632,1.0004624962805577,0.0005396460155073021
1325.6553468306872,1325.6553468306872,0.9993696196270696,0.0005401403247464239
1325.6622913774984,1325.6622913774984,0.9999910918351393,0.0005408362424923099
1325.6692359243884,1325.6692359243884,1.0008261693666471,0.0005414168719182017
1325.6761804713537,1325.6761804713537,1.000147866847708,0.0005418437370151605
1325.683125018404,1325.683125018404,0.9995714267996562,0.0005422912534459082
1325.6900695655208,1325.6900695655208,0.9999272729030091,0.000543042383206731
1325.6970141127217,1325.6970141127217,0.9990810148816163,0.0005433780164272426
1325.703958659993,1325.703958659993,1.0006031677956653,0.0005442201225545601
1325.71090320734,1325.71090320734,0.9996330702148782,0.0005447936839550682
1325.7178477547623,1325.7178477547623,1.0002168754053715,0.0005455020987157032
1325.7247923022546,1325.7247923022546,1.0007973702975475,0.0005463407312213296
1325.7317368498193,1325.7317368498193,0.9997120492966024,0.0005468129852509943
1325.7386813974517,1325.7386813974517,1.0010507293590307,0.0005477788583252009
1325.7456259451506,1325.7456259451506,0.9996635305599826,0.0005484238556618166
1325.752570492919,1325.752570492919,1.0003170342612306,0.0005493528187381491
1325.7595150407549,1325.7595150407549,0.9999640593596653,0.0005501798577157094
1325.7664595886604,1325.7664595886604,0.9992475100180023,0.0005509456022415038
1325.7734041366273,1325.7734041366273,1.0002212026466353,0.0005520120876217431
1325.7803486846576,1325.7803486846576,0.9999618089961816,0.0005526576584141902
1325.787293232756,1325.787293232756,1.0003398209900791,0.0005535821022876995
1325.7942377809115,1325.7942377809115,0.9999356835685204,0.0005541895678942818
1325.8011823291283,1325.8011823291283,1.0000975339580083,0.0005549162886423429
1325.8081268774097,1325.8081268774097,0.9999004006334715,0.0005553634628524778
1325.8150714257513,1325.8150714257513,0.9995026319662468,0.0005557998250100906
1325.8220159741463,1325.8220159741463,1.000536160516941,0.0005563644933107775
1325.8289605226043,1325.8289605226043,0.9995708500716267,0.0005565512249789391
1325.8359050711156,1325.8359050711156,1.0007326133188374,0.0005569005276177919
1325.8428496196848,1325.8428496196848,0.9998827841107424,0.0005568474755667865
1325.8497941683088,1325.8497941683088,0.9998458623852233,0.0005566126440358883
1325.8567387169915,1325.8567387169915,0.9990533043607307,0.0005563533111399852
1325.8636832657266,1325.8636832657266,1.0002783167509832,0.0005560815721716471
1325.8706278145141,1325.8706278145141,1.0003869378289436,0.0005552206384720001
1325.8775723633512,1325.8775723633512,0.9999885860774469,0.0005544158926601861
1325.884516912243,1325.884516912243,1.0001143211860384,0.0005537180970939345
1325.891461461188,1325.891461461188,1.0004560031683896,0.0005532448534574353
1325.8984060101761,1325.8984060101761,0.9999175397374321,0.0005526093289124379
1325.9053505592224,1325.9053505592224,0.9996893577386883,0.000552059615327636
1325.9122951083095,1325.9122951083095,0.9995127100354427,0.0005515097788227572
1325.919239657449,1325.919239657449,1.0007354334574015,0.0005513558392953504
1325.9261842066326,1325.9261842066326,0.9998177542676097,0.0005508259943659061
1325.9331287558693,1325.9331287558693,1.0002593358209413,0.0005505383375778662
1325.940073305149,1325.940073305149,1.000024953098454,0.0005502511011172071
1325.9470178544718,1325.9470178544718,0.9989756204204125,0.0005498958088848544
1325.9539624038382,1325.9539624038382,0.9999819618689303,0.0005499669355883354
1325.9614625172076,1325.9614625172076,1.0002421133735857,0.0005497735971960532
1325.9692404126042,1325.9692404126042,0.9999717351477105,0.0005496509143822703
1325.9761849621107,1325.9761849621107,1.0002042155968482,0.0005497416979842187
1325.9831295116574,1325.9831295116574,1.0003058731611374,0.000549951954733784
1325.990074061248,1325.990074061248,1.0001643852108166,0.000549951833237025
1325.997018610878,1325.997018610878,1.000050080967301,0.0005501008312597439
1326.0039631605491,1326.0039631605491,1.0000126824633047,0.0005505831280588422
1326.0109077102575,1326.0109077102575,0.9996012113835047,0.0005511584887995022
1326.0178522600054,1326.0178522600054,0.9998149556337135,0.0005517872607990977
1326.0247968097938,1326.0247968097938,0.9994069692374069,0.0005524102571429494
1326.0317413596192,1326.0317413596192,1.0004175571257652,0.0005530848410659278
1326.0386859094801,1326.0386859094801,1.0010474622606407,0.0005528469313186375
1326.0456304593783,1326.0456304593783,0.9999244154436309,0.0005525840852833171
1326.0525750093118,1326.0525750093118,0.9999191974933609,0.0005526210869498415
1326.0595195592825,1326.0595195592825,0.9997328166330636,0.0005527075876186031
1326.0664641092865,1326.0664641092865,0.9992227487327432,0.0005528977779794787
1326.0734086593236,1326.0734086593236,1.0000392172689512,0.0005531569035468986
1326.0803532093994,1326.0803532093994,1.0006119980142298,0.0005532807853952221
1326.0872977595034,1326.0872977595034,1.0000704959775601,0.0005533715445419699
1326.094242309643,1326.094242309643,0.9998512915832357,0.0005533323415675546
1326.101186859813,1326.101186859813,1.0006456483282988,0.0005535338938830261
1326.1081314100188,1326.1081314100188,0.9993845388776459,0.0005532664532241645
1326.1150759602513,1326.1150759602513,0.9998791321913357,0.0005533359858704341
1326.1220205105153,1326.1220205105153,1.00000696801767,0.0005532513019649028
1326.128965060811,1326.128965060811,1.0003268227161246,0.0005532583293592983
1326.1359096111378,1326.1359096111378,0.9992012208610184,0.0005531064544962105
1326.1428541614926,1326.1428541614926,1.0003364759100468,0.0005532844822615106
1326.149798711875,1326.149798711875,1.0005690911273966,0.0005530853022158853
1326.1567432622858,1326.1567432622858,0.9999747405508301,0.0005528188610865758
1326.1636878127272,1326.1636878127272,0.9997553814804473,0.0005526808148438796
1326.170632363196,1326.170632363196,0.9991806153471501,0.0005524721615702654
1326.177576913689,1326.177576913689,1.0004703684606426,0.0005523586822472718
1326.1845214642112,1326.1845214642112,0.9996491746876085,0.0005520302693205949
1326.1914660147577,1326.1914660147577,1.0007709875776993,0.0005520559712536931
1326.1984105653312,1326.1984105653312,1.0002376200927265,0.0005518099591671517
1326.2053551159283,1326.2053551159283,1.000246343999864,0.0005516585273438318
1326.2122996665544,1326.2122996665544,0.9996671490592318,0.0005513589213461186
1326.2192442172038,1326.2192442172038,0.999737250080561,0.0005512636341900637
1326.2261887678756,1326.2261887678756,0.9997860758007209,0.0005511610131085824
1326.2331333185725,1326.2331333185725,0.9995382964626363,0.0005509318069989865
1326.2400778692906,1326.2400778692906,1.00091556884915,0.0005510720893608387
1326.2470224200342,1326.2470224200342,1.0000167906362614,0.0005508272520334493
1326.2539669707976,1326.2539669707976,1.0000325656353517,0.000550734266883835
1326.2609115215862,1326.2609115215862,1.0006057481543948,0.0005506144210685034
1326.2678560723948,1326.2678560723948,0.9995354480278733,0.000550377319028715
1326.2748006232264,1326.2748006232264,0.9997661086305076,0.0005500882776192231
1326.2817451740793,1326.2817451740793,0.9993245530559187,0.0005498944521557945
1326.2886897249516,1326.2886897249516,0.9989942985487172,0.0005496339780043751
1326.2956342758462,1326.2956342758462,1.0002931222631104,0.0005497368094144115
1326.302578826761,1326.302578826761,1.0007097720823874,0.0005497330623490574
1326.3095233776921,1326.3095233776921,1.0003656295315513,0.0005497274776539867
1326.3164679286463,1326.3164679286463,1.000522172600854,0.0005497744891133859
1326.323412479616,1326.323412479616,1.000164092539503,0.0005497517744227588
1326.330357030606,1326.330357030606,0.9987780831539149,0.0005496574700294121
1326.3373015816148,1326.3373015816148,1.001341882182897,0.0005500458245480136
1326.344246132642,1326.344246132642,0.9993232005948052,0.000549988909310137
1326.3539685041087,1326.3539685041087,1.0006676070413487,0.0005504723074312814
1326.3609130551774,1326.3609130551774,0.9999160671403985,0.000550579312212783
1326.367857606263,1326.367857606263,0.9994093690798538,0.0005506052282440861
1326.3748021573651,1326.3748021573651,0.9992856628687417,0.0005508644576843004
1326.3817467084841,1326.3817467084841,0.999755083345646,0.0005510736681713859
1326.3886912596186,1326.3886912596186,1.0005030934383952,0.000551392363692041
1326.395635810771,1326.395635810771,1.0003870960262062,0.0005514550449961188
1326.4025803619347,1326.4025803619347,0.9997982795474911,0.0005515650086564667
1326.4095249131187,1326.4095249131187,1.0005328507433213,0.0005518334971535679
1326.4164694643146,1326.4164694643146,1.0003382585431166,0.0005519852656932355
1326.4234140155247,1326.4234140155247,0.9997993784659313,0.000552069349191907
1326.4303585667499,1326.4303585667499,0.9987225433014648,0.0005520266662856044
1326.4373031179903,1326.4373031179903,1.0006076219676645,0.0005525426491461637
1326.4442476692416,1326.4442476692416,0.9998048716560539,0.0005524994624304944
1326.4511922205074,1326.4511922205074,1.0000033858043935,0.0005526250318345383
1326.4581367717874,1326.4581367717874,1.0005402684984321,0.0005530852180589952
1326.4650813230808,1326.4650813230808,1.0000962087579977,0.0005530040053424757
1326.472025874387,1326.472025874387,0.9996869572474129,0.0005531839041778516
1326.478970425705,1326.478970425705,1.0003757204057386,0.0005534073833650669
1326.4859149770332,1326.4859149770332,1.0004776619147346,0.000553579444055018
1326.4928595283745,1326.4928595283745,0.99915424450045,0.0005535550085973499
1326.4998040797277,1326.4998040797277,1.000506677583958,0.0005539654761561254
1326.5067486310945,1326.5067486310945,0.9994479328034401,0.0005540276602397419
1326.5136931824711,1326.5136931824711,0.9998356637325244,0.0005543012147697676
1326.5206377338575,1326.5206377338575,0.9999134969889634,0.0005546561009666833
1326.5275822852557,1326.5275822852557,1.0001767024869737,0.0005550775208663788
1326.5345268366652,1326.5345268366652,1.0001247129095727,0.0005553316283422625
1326.5414713880837,1326.5414713880837,0.999542627150781,0.0005557063940973999
1326.548415939512,1326.548415939512,1.000117834535672,0.0005561787196544421
1326.5553604909524,1326.5553604909524,1.0001010795981862,0.0005563126018138437
1326.5623050424,1326.5623050424,1.0010974350095494,0.0005565833870364487
1326.569249593859,1326.569249593859,1.0004988638669459,0.0005565126594196077
1326.5761941453259,1326.5761941453259,1.0014130111448687,0.0005567775901667699
1326.5831386968007,1326.5831386968007,0.9988199171474019,0.0005564301038006343
1326.5900832482846,1326.5900832482846,0.9998525694888556,0.0005569618407215912
1326.5970277997772,1326.5970277997772,1.0005305043570023,0.0005569854515072801
1326.6039723512802,1326.6039723512802,1.0006016498492214,0.0005573178215726593
1326.6109169027902,1326.6109169027902,0.9996283990175302,0.0005572567517961374
1326.617861454306,1326.617861454306,0.9998869533244005,0.0005573471580627139
1326.6248060058322,1326.6248060058322,0.9991950539623569,0.0005573099061114024
1326.6317505573638,1326.6317505573638,1.000124341290065,0.0005574428860092219
1326.6386951089032,1326.6386951089032,1.0014014653811434,0.0005575059349019915
1326.6456396604524,1326.6456396604524,0.9995892239058393,0.0005571543086688725
1326.652584212005,1326.652584212005,0.9990517557201581,0.0005567274366004435
1326.6595287635678,1326.6595287635678,0.9995207180486757,0.0005565821818849998
1326.6664733151326,1326.6664733151326,0.9997157926101725,0.0005562203795433508
1326.6734178667086,1326.6734178667086,1.0010314852623368,0.0005560664204313007
1326.680362418287,1326.680362418287,1.0000000345612736,0.0005554540637454314
1326.6881403160646,1326.6881403160646,1.0000819108463401,0.0005549924399506254
1326.695640431785,1326.695640431785,1.0003907903897629,0.0005546108335937712
1326.7025849833822,1326.7025849833822,1.0003380890579274,0.0005542602668718646
1326.7098073170516,1326.7098073170516,0.9995866803191908,0.0005536866729417775
1326.7178629969155,1326.7178629969155,0.9996012565171466,0.0005534309736249807
1326.724807548535,1326.724807548535,1.0000840013583332,0.0005530795956103276
1326.7317521001528,1326.7317521001528,0.9997564782086996,0.0005526346164942752
1326.7386966517793,1326.7386966517793,1.0003596006728723,0.0005524235045686378
1326.7456412034073,1326.7456412034073,1.0001056041094718,0.000552157967263369
1326.7525857550404,1326.7525857550404,0.9993437783838148,0.0005518746306720039
1326.7595303066792,1326.7595303066792,0.9989346337836723,0.000551551026732905
1326.7664748583227,1326.7664748583227,1.000082644613574,0.0005516326093936443
1326.7734194099655,1326.7734194099655,1.0001899550468827,0.000551541090805737
1326.7803639616197,1326.7803639616197,1.0008666804341158,0.0005515589280623894
1326.787308513271,1326.787308513271,1.000155949571249,0.0005514186704510193
1326.7942530649282,1326.7942530649282,1.0003425988677248,0.0005514701600674722
1326.801197616588,1326.801197616588,0.9997518195542293,0.0005514540637919988
1326.8081421682507,1326.8081421682507,0.999818992739103,0.0005516492278592231
1326.8150867199179,1326.8150867199179,0.9998285137427996,0.000551652312365542
1326.8220312715869,1326.8220312715869,1.0000465638141056,0.000551695875914986
1326.8289758232568,1326.8289758232568,1.0000073069363453,0.0005515872630669796
1326.8359203749328,1326.8359203749328,1.0000680179805288,0.0005515847148598148
1326.842864926609,1326.842864926609,0.9997781950088067,0.000551389364547205
1326.8498094782892,1326.8498094782892,0.9997320965060694,0.000551191576152533
1326.8567540299696,1326.8567540299696,1.0000844943462068,0.0005509998957378359
1326.8636985816545,1326.8636985816545,1.000374652163178,0.0005506689909570688
1326.870643133339,1326.870643133339,1.0009684402710626,0.000550339310508987
1326.8775876850236,1326.8775876850236,1.000012098522182,0.0005497616418579522
1326.8845322367156,1326.8845322367156,0.9999089760790018,0.0005490348352482358
1326.8914767884048,1326.8914767884048,0.9999180841766224,0.0005483782357778423
1326.8984213400954,1326.8984213400954,0.9999454142676674,0.0005478054704628396
1326.9053658917887,1326.9053658917887,1.0001427220283057,0.0005470310222700735
1326.912310443482,1326.912310443482,0.9998370618249218,0.000546160468605033
1326.9192549951788,1326.9192549951788,0.9988026945614952,0.0005452235956667523
1326.9261995468719,1326.9261995468719,1.0003010732721769,0.0005446079517729037
1326.9331440985702,1326.9331440985702,1.00048467430473,0.0005439180270942791
1326.940088650266,1326.940088650266,0.9997851721676548,0.0005430017803330054
1326.947033201964,1326.947033201964,1.0007205174203335,0.0005423977586255554
1326.9539777536618,1326.9539777536618,0.9995690634248785,0.0005415150030192394
1326.9609223053612,1326.9609223053612,0.9998505763202464,0.0005410116717902529
1326.967866857059,1326.967866857059,0.9999748713811025,0.0005403734412930193
1326.9748114087565,1326.9748114087565,1.0008540570056108,0.0005401249523613014
1326.9817559604546,1326.9817559604546,0.9997603157267154,0.000539410149863746
1326.9887005121539,1326.9887005121539,0.9993148831216685,0.0005390139625892019
1326.9956450638506,1326.9956450638506,1.0004630690201581,0.0005387520625091039
1327.002589615548,1327.002589615548,0.9995932447182903,0.0005384881230217264
1327.0095341672445,1327.0095341672445,1.000204887114654,0.0005383731350065812
1327.0164787189406,1327.0164787189406,1.0003893039123546,0.0005382848871171524
1327.023423270637,1327.023423270637,0.9997126613528181,0.0005380682730573689
1327.0303678223322,1327.0303678223322,0.9999021351426048,0.0005381881109544451
1327.037312374025,1327.037312374025,0.9999258564761198,0.000538084077731995
1327.0442569257175,1327.0442569257175,0.999009414343978,0.000538013511356166
1327.0512014774097,1327.0512014774097,1.0012558215254717,0.000538303328178983
1327.058701593233,1327.058701593233,0.9996975843992985,0.0005382910202212767
1327.0664794911247,1327.0664794911247,0.9996029732695385,0.0005383947656859477
1327.0734240428108,1327.0734240428108,1.0011137777242716,0.0005387639553340936
