time,time,flux,flux_err
1325.299436043643,1325.299436043643,0.9999107898230388,0.00021909999654493598
1325.3077694419658,1325.3077694419658,1.0000688492376717,0.00021916263195703153
1325.3161028405027,1325.3161028405027,0.9999199348771208,0.0002191874580148308
1325.324436239262,1325.324436239262,1.000366941662397,0.00021928488352131303
1325.3320751883177,1325.3320751883177,0.9999397631254091,0.0002001984987683207
1325.339019687608,1325.339019687608,0.9997882822207549,0.00020022204398038765
1325.3459641870559,1325.3459641870559,1.0000521313439628,0.00020029835882404067
1325.3529086866406,1325.3529086866406,0.9998711193446537,0.0002003427446318724
1325.3598531863731,1325.3598531863731,0.999778991700526,0.0002004173432679948
1325.3667976862548,1325.3667976862548,1.0000726473311343,0.00020049224625128442
1325.3737421862668,1325.3737421862668,1.000201837659639,0.0002005693411721207
1325.3806866864247,1325.3806866864247,1.0000914339849658,0.00020062112322985671
1325.3876311867166,1325.3876311867166,0.9997817696393255,0.00020066995323424425
1325.3945756871535,1325.3945756871535,1.0001603981737943,0.00020076421114696426
1325.4015201877219,1325.4015201877219,1.000005186291809,0.0002008156813014542
1325.408464688418,1325.408464688418,0.9998389422116336,0.00020086377594071112
1325.4154091892483,1325.4154091892483,1.0003170584649248,0.00020098582399934363
1325.4223536902123,1325.4223536902123,0.9999649884417006,0.0002010301400033937
1325.429298191304,1325.429298191304,0.9997889397844206,0.00020109566998987623
1325.4362426925272,1325.4362426925272,1.0003854166239763,0.00020122124073744733
1325.4431871938752,1325.4431871938752,0.9999004530884159,0.0002012633067486975
1325.4501316953429,1325.4501316953429,0.999881392386355,0.00020135287624262538
1325.4570761969355,1325.4570761969355,1.000345478721467,0.00020149565402952018
1325.4640206986533,1325.4640206986533,0.9999820954516518,0.0002015372370611288
1325.4709652004901,1325.4709652004901,0.9998375138272753,0.0002016339761016975
1325.4779097024439,1325.4779097024439,1.000113372645632,0.00020176871209321508
1325.4848542045195,1325.4848542045195,0.9999551554254934,0.00020185942430708714
1325.491798706712,1325.491798706712,1.0000296670141327,0.00020197381185716343
1325.4987432090177,1325.4987432090177,0.999632072131757,0.0002020758792221774
1325.5056877114366,1325.5056877114366,1.0001500959489522,0.00020221821997296586
1325.5126322139724,1325.5126322139724,0.9999751968462787,0.00020233527567862594
1325.5195767166097,1325.5195767166097,1.0001041581376697,0.00020247357948145235
1325.5265212193633,1325.5265212193633,1.0003037933455028,0.0002026333231830209
1325.5334657222222,1325.5334657222222,1.0000733310512495,0.00020273953536450795
1325.5404102251912,1325.5404102251912,0.9997873071569707,0.00020283858097659168
1325.5473547282659,1325.5473547282659,1.0000032059704782,0.0002029823904972896
1325.5542992314472,1325.5542992314472,0.9996379631315732,0.000203075236822212
1325.5612437347281,1325.5612437347281,0.9999836005640634,0.0002032237644540752
1325.5681882381136,1325.5681882381136,0.9998765563514352,0.00020334369251762615
1325.5751327415949,1325.5751327415949,1.0001378193540966,0.0002034770143851525
1325.5820772451784,1325.5820772451784,0.9999656118087199,0.00020355523382712708
1325.589021748863,1325.589021748863,1.000188103062565,0.0002036489914270217
1325.5959662526388,1325.5959662526388,0.9999158449930337,0.00020372948620580672
1325.6029107565187,1325.6029107565187,1.000014220379248,0.00020380157341378014
1325.6098552604894,1325.6098552604894,0.9997951292847578,0.00020384351761709927
1325.616799764553,1325.616799764553,0.9999939936007681,0.00020390844683139598
1325.6237442687127,1325.6237442687127,0.9998452339387732,0.00020393043296200003
1325.6306887729538,1325.6306887729538,1.0000300545174048,0.00020398588830071964
1325.6376332772968,1325.6376332772968,1.000181322978837,0.00020400215836572063
1325.644577781724,1325.644577781724,1.0000981290627962,0.00020401841397321686
1325.6515222862358,1325.6515222862358,1.000223932071016,0.0002040391916951211
1325.6584667908405,1325.6584667908405,1.0000513515054066,0.0002040231521590633
1325.665411295527,1325.665411295527,0.9997487125735646,0.00020400605165388572
1325.6723558003034,1325.6723558003034,1.000059176582311,0.00020402318845592888
1325.679300305159,1325.679300305159,1.000017366696245,0.00020403094771269647
1325.6862448100956,1325.6862448100956,0.9996371461650015,0.00020401543320476014
1325.6931893151163,1325.6931893151163,0.9996315172525627,0.00020405206619522582
1325.7001338202135,1325.7001338202135,1.0000740245815731,0.0002040841234394533
1325.7070783253944,1325.7070783253944,1.0004018603718599,0.00020413582835356387
1325.714022830654,1325.714022830654,1.0001094112593862,0.00020414669334520587
1325.7209673359923,1325.7209673359923,0.9999713848313039,0.0002041654402849406
1325.7279118414035,1325.7279118414035,1.000419749217069,0.0002042638291349927
1325.7348563468902,1325.7348563468902,1.0000024484885208,0.00020426121870453692
1325.7418008524553,1325.7418008524553,1.0000340292690613,0.0002043443959831069
1325.7487453580904,1325.7487453580904,0.9997695072188305,0.00020435374912885717
1325.7556898637988,1325.7556898637988,0.999867132576807,0.00020440138592545655
1325.7626343695792,1325.7626343695792,0.9999217137023066,0.00020445830118194082
1325.7695788754297,1325.7695788754297,0.9997177503520538,0.00020450752238263366
1325.7765233813502,1325.7765233813502,1.0000947322152436,0.00020457962228909903
1325.7834678873403,1325.7834678873403,0.9998138562146863,0.00020462939119673262
1325.7904123934004,1325.7904123934004,1.000008334671119,0.0002046720837617599
1325.7973568995244,1325.7973568995244,0.999945691681914,0.00020470436066462555
1325.804301405716,1325.804301405716,1.0003398665981782,0.00020476472312707942
1325.8112459119766,1325.8112459119766,1.0000898047390918,0.0002047722997248461
1325.8181904182989,1325.8181904182989,1.0003833502006003,0.0002048011483333265
1325.8251349246846,1325.8251349246846,0.9999737622811038,0.000204796315208792
1325.8320794311348,1325.8320794311348,0.9999317781330864,0.00020481666775424385
1325.8390239376401,1325.8390239376401,0.9997813583502028,0.00020481484095531897
1325.8459684442123,1325.8459684442123,0.9997106420387893,0.0002047948779360901
1325.8529129508483,1325.8529129508483,1.0004289649671096,0.00020484331789600899
1325.8598574575403,1325.8598574575403,0.9998066018391762,0.00020476893480948798
1325.86680196429,1325.86680196429,0.9998999006794108,0.00020473725900153525
1325.8737464711012,1325.8737464711012,0.9999644120547044,0.00020465752672170425
1325.8806909779703,1325.8806909779703,1.000069507215855,0.0002046071757089624
1325.887635484892,1325.887635484892,0.9999137097114265,0.00020455884664849364
1325.8945799918715,1325.8945799918715,1.000035702146874,0.00020449858884650637
1325.9015244989096,1325.9015244989096,0.9998696147416322,0.00020444444446602052
1325.9084690059972,1325.9084690059972,0.999961218034078,0.0002043892588702582
1325.9154135131366,1325.9154135131366,1.0001108508980914,0.00020435414926409635
1325.9223580203347,1325.9223580203347,1.0000133879530924,0.0002043153655608349
1325.9293025275852,1325.9293025275852,1.0002468006388907,0.00020431050362167022
1325.9362470348851,1325.9362470348851,1.0001150693909184,0.00020427522376234531
1325.9431915422315,1325.9431915422315,0.9999549320116288,0.00020421719997592829
1325.9501360496365,1325.9501360496365,1.0001154050084877,0.00020422201005181992
1325.9570805570877,1325.9570805570877,0.9999559226791703,0.00020420057344105433
1325.9651361857916,1325.9651361857916,0.9999246780298764,0.00020418044589379144
1325.9723584736498,1325.9723584736498,0.999902904725442,0.00020414857017762113
1325.979302981255,1325.979302981255,0.999416282574131,0.0002041421206788208
1325.9862474889073,1325.9862474889073,1.0002170350871413,0.00020420787795285165
1325.9931919966027,1325.9931919966027,1.000108284093839,0.00020421169376727582
1326.0001365043543,1326.0001365043543,1.0001771286500667,0.00020423101714636235
1326.0070810121397,1326.0070810121397,1.0002882243598143,0.00020424005495787534
1326.0140255199753,1326.0140255199753,1.0001402965683903,0.00020427209024715456
1326.0209700278515,1326.0209700278515,0.999807080592095,0.00020429448580552758
1326.0279145357715,1326.0279145357715,0.9995444346580789,0.0002043205854974347
1326.0348590437347,1326.0348590437347,0.9998624691751692,0.00020433388241544717
1326.041803551739,1326.041803551739,1.0001273655535876,0.0002043328064587929
1326.0487480597812,1326.0487480597812,0.9999150980621394,0.00020431838436534082
1326.0556925678695,1326.0556925678695,1.0001971798149545,0.00020434463363501798
1326.062637075999,1326.062637075999,1.0003385621794851,0.00020435207252362972
1326.069581584169,1326.069581584169,1.0001521975936654,0.00020435195396466098
1326.076526092374,1326.076526092374,0.9997902199047528,0.00020432896722843
1326.08347060062,1326.08347060062,0.9999485436289545,0.0002043340112182097
1326.0904151089037,1326.0904151089037,0.9998740525293055,0.0002043395211270127
1326.097359617225,1326.097359617225,1.0000036023013517,0.00020435415815780707
1326.1043041255846,1326.1043041255846,0.9998232688526194,0.00020434278557410042
1326.1112486339755,1326.1112486339755,1.000060266514218,0.00020436273118800173
1326.1181931424048,1326.1181931424048,1.0002993155466902,0.00020438868541823016
1326.1251376508744,1326.1251376508744,0.9997884036709335,0.00020432758222964785
1326.1320821593768,1326.1320821593768,1.0001340639029408,0.0002043585526910698
1326.1390266679105,1326.1390266679105,1.0000470942749744,0.00020433571882729311
1326.1459711764824,1326.1459711764824,1.0000120867508557,0.00020434079275293338
1326.152915685086,1326.152915685086,0.9998215038795635,0.00020428944572894022
1326.1598601937276,1326.1598601937276,0.9996601804662554,0.00020427165630696712
1326.1668047023927,1326.1668047023927,0.9999541940944014,0.00020428457468342753
1326.1737492110947,1326.1737492110947,1.0002197525954375,0.00020428298660998346
1326.18069371983,1326.18069371983,1.0003170449683385,0.00020426932651241078
1326.1876382285936,1326.1876382285936,0.9999056721958315,0.00020420345036536338
1326.1945827373893,1326.1945827373893,1.0001047892205777,0.00020421584792051895
1326.2015272462174,1326.2015272462174,1.0001496108797656,0.00020421631916604522
1326.2084717550745,1326.2084717550745,0.9995451217071645,0.0002041478115780208
1326.2154162639574,1326.2154162639574,1.000087581857924,0.00020416615923085166
1326.2223607728786,1326.2223607728786,1.000201928304031,0.00020416004706930993
1326.2293052818197,1326.2293052818197,0.9997889080587499,0.00020411527557158185
1326.2362497907902,1326.2362497907902,0.9998987473756404,0.00020412859212148713
1326.2431942997953,1326.2431942997953,1.0004319772423371,0.00020415299603616685
1326.250138808819,1326.250138808819,1.0000884581265077,0.00020412290526480655
1326.2570833178736,1326.2570833178736,1.000002637335475,0.00020410280527392334
1326.2640278269546,1326.2640278269546,1.0001644603872228,0.00020411466330856755
1326.2709723360617,1326.2709723360617,1.000305350199091,0.00020410277172316763
1326.277916845195,1326.277916845195,0.9995270363270844,0.00020401384312214096
1326.2848613543551,1326.2848613543551,1.000239448010281,0.0002040654027072107
1326.2918058635405,1326.2918058635405,0.9998356609095463,0.00020403085377700622
1326.2987503727468,1326.2987503727468,0.9995683397662833,0.00020399602476226967
1326.305694881982,1326.305694881982,1.0001380640250657,0.00020403836750667714
1326.3126393912382,1326.3126393912382,0.9999553068104146,0.00020401553099064603
1326.3195839005198,1326.3195839005198,1.0001447426256118,0.00020402954747107154
1326.3265284098247,1326.3265284098247,1.0001034684779753,0.00020403426791645355
1326.3334729191506,1326.3334729191506,0.999975851160143,0.0002040265789829015
1326.3404174285022,1326.3404174285022,1.0001577318274417,0.00020405623738435717
1326.3484730593802,1326.3484730593802,0.9999968884569261,0.00020403524052229434
1326.3570842510312,1326.3570842510312,0.9999310773049525,0.0002040478579207529
1326.3640287604558,1326.3640287604558,1.0000308196629555,0.00020406706308771175
1326.3709732699006,1326.3709732699006,0.9997414422074915,0.0002040363099075424
1326.3779177793688,1326.3779177793688,1.0000189514441593,0.00020409184831058133
1326.384862288854,1326.384862288854,1.0000153701884458,0.0002040990947018659
1326.3918067983573,1326.3918067983573,1.0000734484836538,0.00020412408824194888
1326.3987513078869,1326.3987513078869,1.00012113787817,0.00020413062140495756
1326.4056958174363,1326.4056958174363,1.000282421285449,0.00020414953589240444
1326.4126403269981,1326.4126403269981,0.9998397618542194,0.0002041364811311716
1326.4195848365823,1326.4195848365823,0.9998803176496758,0.00020414356055123073
1326.4265293461842,1326.4265293461842,0.9998561440927606,0.00020414841466641882
1326.4334738558096,1326.4334738558096,0.9997158608719612,0.00020413834822956045
1326.4404183654437,1326.4404183654437,1.0000547355521752,0.00020418984835762874
1326.447362875101,1326.447362875101,1.0001570066267669,0.00020419576312893651
1326.4543073847756,1326.4543073847756,1.0002980074806527,0.00020423003025397778
1326.461251894465,1326.461251894465,0.9998506965736054,0.00020420067092023048
1326.4681964041747,1326.4681964041747,1.0000294436298967,0.00020422870224813907
1326.475140913896,1326.475140913896,1.0000877566232576,0.00020423532366028232
1326.482085423638,1326.482085423638,1.000225051769639,0.00020425397775706888
1326.489029933397,1326.489029933397,0.9996880024213686,0.00020420851506107045
1326.495974443168,1326.495974443168,0.9999531922633669,0.00020423927693431033
1326.502918952956,1326.502918952956,0.9999152842639696,0.0002042325404606395
1326.509863462765,1326.509863462765,0.9998164929782918,0.00020424832579799375
1326.5168079725763,1326.5168079725763,0.9998824093458344,0.0002042481494072633
1326.5237524824083,1326.5237524824083,1.0004073403551057,0.00020431656908774512
1326.5306969922578,1326.5306969922578,0.999906469995763,0.00020429528992475676
1326.5376415021187,1326.5376415021187,1.0000911367437624,0.00020433805783013075
1326.5445860119974,1326.5445860119974,0.9999508905710638,0.00020436324422680417
1326.5515305218817,1326.5515305218817,1.0001201228286032,0.00020439611691981923
1326.5584750317862,1326.5584750317862,1.0003389552114785,0.000204405088611875
1326.5654195416969,1326.5654195416969,0.9998500734874932,0.0002043751676917234
1326.5723640516276,1326.5723640516276,0.999811195158291,0.00020435055475183156
1326.5793085615674,1326.5793085615674,0.9999698812134298,0.00020437630890006838
1326.5862530715215,1326.5862530715215,0.999770076365069,0.00020438688954230365
1326.5931975814847,1326.5931975814847,0.9997502549918206,0.00020438902125219605
1326.600142091465,1326.600142091465,1.0000529942413574,0.00020441508265727745
1326.6070866014538,1326.6070866014538,1.0004309087080023,0.00020443424542705002
1326.6140311114518,1326.6140311114518,1.0000564757432338,0.00020441585161725344
1326.6209756214669,1326.6209756214669,1.0000766417141693,0.00020443695056919847
1326.6279201314824,1326.6279201314824,1.0001005025685608,0.00020442737876657748
1326.6348646415208,1326.6348646415208,0.9996741201995702,0.0002043847250426938
1326.6418091515654,1326.6418091515654,0.9998922752330858,0.00020438748304848226
1326.6487536616216,1326.6487536616216,1.0002221647058254,0.00020442048486551723
1326.6556981716863,1326.6556981716863,0.9999311074970292,0.00020436963950024473
1326.6626426817627,1326.6626426817627,0.9997972222821382,0.00020433699053935193
1326.6695871918448,1326.6695871918448,1.0002719307429815,0.00020434696972598102
1326.6765317019388,1326.6765317019388,1.0000298013500337,0.00020430758729974934
1326.6834762120411,1326.6834762120411,0.9996668320547226,0.0002042468176630705
1326.691809624182,1326.691809624182,1.000236701301862,0.00020425915346726975
1326.6987541343049,1326.6987541343049,0.9998623156176807,0.00020419365738100432
1326.7056986444395,1326.7056986444395,1.0002191540817011,0.00020417846424760117
1326.7134764957952,1326.7134764957952,0.9998097176580503,0.00020413814024314368
1326.7209765667587,1326.7209765667587,1.0002204135721509,0.00020413663219913617
1326.7279210769163,1326.7279210769163,0.9998481055282241,0.00020408595478502733
1326.73486558708,1326.73486558708,0.9999903340482863,0.00020408135348953978
1326.741810097253,1326.741810097253,0.9999776496969572,0.00020404917297685908
1326.7487546074422,1326.7487546074422,1.0002614263726173,0.00020403784944052322
1326.7556991176293,1326.7556991176293,0.9997939057190731,0.00020400501974201236
1326.7626436278283,1326.7626436278283,1.000048278228171,0.00020400099958825041
1326.7695881380298,1326.7695881380298,1.0002923650086444,0.00020402033072802007
1326.7765326482427,1326.7765326482427,0.9999278340626894,0.0002039595699852423
1326.783477158456,1326.783477158456,0.9998606992494091,0.00020394491705934473
1326.7904216686813,1326.7904216686813,0.9997549609740325,0.0002039389102484439
1326.7973661789115,1326.7973661789115,0.9998335575432001,0.0002039503321455546
1326.8043106891516,1326.8043106891516,0.9999619244781455,0.00020396073146120055
1326.8112551993845,1326.8112551993845,1.000543631129839,0.00020400399037738705
1326.8181997096328,1326.8181997096328,0.9997722264221333,0.00020394062054863307
1326.8251442198955,1326.8251442198955,0.9998214239966521,0.00020394611841067812
1326.8320887301525,1326.8320887301525,1.0003681624596215,0.0002039671519005489
1326.839033240415,1326.839033240415,1.0001996116283305,0.00020395147898693688
1326.8459777506835,1326.8459777506835,0.9994870197044967,0.000203864011702619
1326.8529222609607,1326.8529222609607,0.999892870222095,0.00020389867707532164
1326.8598667712408,1326.8598667712408,1.000097232342704,0.00020389303705682654
1326.8668112815271,1326.8668112815271,1.000035402201878,0.000203863755474627
1326.873755791813,1326.873755791813,1.0003098821942895,0.00020385107983436854
1326.8807003021043,1326.8807003021043,0.9999389850512301,0.00020378972563449716
1326.8876448124024,1326.8876448124024,0.9997908527145943,0.0002037243196756854
1326.8945893227024,1326.8945893227024,1.000269673532725,0.00020373382998210284
1326.9015338330094,1326.9015338330094,1.0000348197847118,0.00020365426480739948
1326.9084783433184,1326.9084783433184,0.9998316069242661,0.00020358175807076443
1326.9154228536304,1326.9154228536304,0.999696228047549,0.00020349950654412907
1326.9223673639513,1326.9223673639513,1.0001868068215083,0.00020349100019006588
1326.9293118742723,1326.9293118742723,0.9999256782201975,0.00020343205529755676
1326.9362563845932,1326.9362563845932,1.0000162741289242,0.00020339631288340045
1326.9432008949138,1326.9432008949138,1.0001016053600502,0.0002033431970728333
1326.9501454052468,1326.9501454052468,0.9997693393740571,0.00020325749168927071
1326.9570899155763,1326.9570899155763,0.9999688908823827,0.00020323665078143043
1326.964034425912,1326.964034425912,1.0006582679587364,0.00020323701219764862
1326.9709789362473,1326.9709789362473,0.9999590196243737,0.00020315473317852688
1326.9779234465855,1326.9779234465855,0.9995175733619245,0.00020307107920692624
1326.984867956927,1326.984867956927,1.0001054493886725,0.00020308298266769018
1326.991812467271,1326.991812467271,1.000078653147502,0.00020304990603522443
1326.998756977618,1326.998756977618,1.000122622837887,0.0002030312806776791
1327.0057014879653,1327.0057014879653,0.9995945541069385,0.00020296489074235827
1327.0126459983153,1327.0126459983153,1.0002169464139201,0.00020301717233662885
1327.019590508665,1327.019590508665,0.9999355409131256,0.00020299857762980897
1327.0265350190152,1327.0265350190152,0.9999417033210733,0.00020299408866681864
1327.033479529374,1327.033479529374,1.0001419324006189,0.00020299482328829145
1327.0404240397233,1327.0404240397233,1.0000206321147096,0.0002029846699787057
1327.0473685500797,1327.0473685500797,0.9999658751994943,0.00020297498086713962
1327.0543130604383,1327.0543130604383,1.0000234206229839,0.000202995209704463
