time,time,flux,flux_err
1325.299606995871,1325.299606995871,0.9999536076267207,0.0005806565599744218
1325.307940431248,1325.307940431248,0.9999994654260739,0.000581389153474184
1325.3155794138488,1325.3155794138488,1.0003693027682927,0.0005315372703335404
1325.3225239436345,1325.3225239436345,0.9999691737252515,0.0005323561842997526
1325.329468473542,1325.329468473542,1.0005909504455714,0.0005332536143478557
1325.3364130035893,1325.3364130035893,0.9998381698854178,0.0005342205743899749
1325.3433575337651,1325.3433575337651,0.999462401954867,0.0005351584093759707
1325.3503020640803,1325.3503020640803,0.9994220682072179,0.0005365197264443386
1325.357246594506,1325.357246594506,1.000001684739758,0.0005379921447099883
1325.3641911250716,1325.3641911250716,0.9996300074219265,0.0005393566585576205
1325.371135655748,1325.371135655748,1.0003397350860976,0.0005411776208126535
1325.3780801865573,1325.3780801865573,0.9997596787205781,0.0005427213076580146
1325.3850247174844,1325.3850247174844,1.000474405284592,0.0005446833226452347
1325.3919692485329,1325.3919692485329,0.9994290370799501,0.0005462883011114453
1325.3989137796975,1325.3989137796975,1.0009459491188093,0.0005483970250285084
1325.4058583109795,1325.4058583109795,0.9997556434232957,0.0005499916814405331
1325.412802842377,1325.412802842377,0.9996451803166092,0.0005522115144125604
1325.4197473738914,1325.4197473738914,1.0000652972821524,0.0005547449581329864
1325.4266919055221,1325.4266919055221,1.0001360220294626,0.0005573323684652154
1325.4336364372573,1325.4336364372573,0.9993551944341947,0.000560202335689183
1325.4405809691095,1325.4405809691095,1.0004314760203639,0.0005633827110649142
1325.4475255010661,1325.4475255010661,1.000009829656934,0.0005665552237073941
1325.454470033133,1325.454470033133,1.0011019928861686,0.0005700684824189469
1325.4614145653109,1325.4614145653109,0.9995190626909596,0.000573382633232274
1325.468359097582,1325.468359097582,1.0001399088268141,0.0005772674439003467
1325.4753036299753,1325.4753036299753,1.00010887289859,0.0005811661855933991
1325.4822481624556,1325.4822481624556,0.9998550076360655,0.000585412591931138
1325.4891926950413,1325.4891926950413,0.9996042989710985,0.0005897856678383273
1325.4961372277314,1325.4961372277314,0.999053932637987,0.0005941100397661764
1325.50308176052,1325.50308176052,1.0001296113133542,0.0005987521271546942
1325.5100262933968,1325.5100262933968,0.9999925260238083,0.0006030374831105709
1325.5169708263893,1325.5169708263893,0.9997075453779566,0.0006072734362011551
1325.523915359452,1325.523915359452,1.0004987250236883,0.0006115273094743108
1325.5308598926192,1325.5308598926192,1.0003130274317398,0.0006156529279856598
1325.5378044258916,1325.5378044258916,1.0006324511628357,0.0006195806828584282
1325.5447489592393,1325.5447489592393,0.9999524204986369,0.0006230110141835822
1325.5516934926804,1325.5516934926804,0.9994765784030604,0.0006264863024224958
1325.5586380262143,1325.5586380262143,0.9998209602813117,0.0006295917567933414
1325.5655825598358,1325.5655825598358,0.9990270139273418,0.0006323284742243205
1325.5725270935327,1325.5725270935327,1.0001755368453737,0.00063522043299383
1325.5794716273351,1325.5794716273351,1.000296204316982,0.000637527727153467
1325.5864161612121,1325.5864161612121,0.9993524715516464,0.0006393162672993732
1325.5933606951712,1325.5933606951712,0.9998896064657586,0.0006409567857152807
1325.6003052292176,1325.6003052292176,1.0013394351281688,0.0006425024987134373
1325.6072497633395,1325.6072497633395,0.9995557979340639,0.0006432303506568478
1325.614194297549,1325.614194297549,1.0000958379401625,0.0006439348810644614
1325.6211388318338,1325.6211388318338,0.9994335880199887,0.0006442352196277145
1325.6280833662004,1325.6280833662004,0.9995185903141369,0.0006441169458257072
1325.635027900625,1325.635027900625,1.0002701976938557,0.0006437034018059567
1325.6419724351547,1325.6419724351547,1.0001952795169347,0.0006432261311286239
1325.648916969742,1325.648916969742,0.9996353965971476,0.0006425627554471088
1325.6558615043996,1325.6558615043996,1.000453827430833,0.0006418865080486115
1325.6628060391442,1325.6628060391442,0.9998511548966448,0.0006412516522096398
1325.6697505739592,1325.6697505739592,1.0009914030176994,0.0006408187039133622
1325.676695108826,1325.676695108826,0.9998992405224014,0.0006400895676583755
1325.6836396437925,1325.6836396437925,0.9991460669005028,0.0006395894523076462
1325.6905841787989,1325.6905841787989,0.9997878585169022,0.0006393772188445628
1325.6975287138928,1325.6975287138928,0.9997648073867769,0.000639231180701946
1325.7044732490453,1325.7044732490453,1.0001753361913124,0.0006392548710725484
1325.7114177842732,1325.7114177842732,0.999635535294999,0.0006393749342991525
1325.7183623195592,1325.7183623195592,1.0003484849465647,0.0006397569458263125
1325.7253068549094,1325.7253068549094,0.9991173634449148,0.0006399028428721651
1325.7322513903234,1325.7322513903234,1.0005669218589168,0.0006405315014924707
1325.7391959257961,1325.7391959257961,1.0006826431742681,0.000640966635438738
1325.7461404613325,1325.7461404613325,0.9995840087444966,0.0006415733553885828
1325.7530849969444,1325.7530849969444,0.9994609904367877,0.0006424288904218276
1325.7600295326033,1325.7600295326033,1.0001187929656103,0.0006431632956810043
1325.7669740683257,1325.7669740683257,0.9997821851668303,0.0006440424003134099
1325.7739186040953,1325.7739186040953,1.0012212678737542,0.0006450414026291102
1325.7808631399282,1325.7808631399282,0.9997459206986068,0.0006456861529243604
1325.7878076758261,1325.7878076758261,0.9996590523153497,0.0006463251761425896
1325.7947522117697,1325.7947522117697,1.0005808888643388,0.0006471146226261148
1325.8016967477774,1325.8016967477774,0.9996694108681291,0.0006474874758909281
1325.8086412838265,1325.8086412838265,0.9986416440053205,0.0006478429777898952
1325.8155858199448,1325.8155858199448,1.0002119207000624,0.000648240437277621
1325.8225303561103,1325.8225303561103,0.9995727943157867,0.0006483638203174591
1325.8294748923213,1325.8294748923213,0.9994394279982302,0.0006483858272187348
1325.8364194285973,1325.8364194285973,1.0009678724076354,0.0006485019329261564
1325.8433639649138,1325.8433639649138,1.0008820842399602,0.00064832957053022
1325.8503085012821,1325.8503085012821,1.0001421216287654,0.0006474172709273475
1325.8572530377035,1325.8572530377035,0.9989534276298352,0.0006465319584984643
1325.8641975741655,1325.8641975741655,0.9992090327446663,0.0006454346589008936
1325.87114211068,1325.87114211068,0.999642815402427,0.0006437031113008922
1325.8780866472412,1325.8780866472412,1.0002800853135203,0.0006419097781834416
1325.8850311838423,1325.8850311838423,1.000221992844799,0.000640273020297475
1325.8919757204967,1325.8919757204967,1.000072415456226,0.0006388704907264128
1325.898920257197,1325.898920257197,0.9995013693165931,0.0006375055816191788
1325.9058647939382,1325.9058647939382,0.9990080378386376,0.0006363224169896162
1325.912809330726,1325.912809330726,1.0002081371435108,0.0006352224677124295
1325.919753867549,1325.919753867549,1.0001621119388509,0.0006341723285642642
1325.9266984044245,1325.9266984044245,1.0003735273115753,0.0006330829133924514
1325.9336429413343,1325.9336429413343,1.000996400878265,0.0006323010154881922
1325.9405874782915,1325.9405874782915,1.000302761133389,0.0006312745838483638
1325.9475320152828,1325.9475320152828,0.9996001290270089,0.0006303798343815551
1325.954476552321,1325.954476552321,0.9983732622017982,0.0006296266072136997
1325.9619766523506,1325.9619766523506,0.999625788972278,0.0006291359429654604
1325.9697545339332,1325.9697545339332,1.0017060132359077,0.0006287774715935181
1325.976699071088,1325.976699071088,1.0000093100738605,0.000628142375563524
1325.9836436082828,1325.9836436082828,1.0004882786810279,0.0006280038493403032
1325.9905881455131,1325.9905881455131,0.9994344140830244,0.0006277254494046829
1325.9975326827903,1325.9975326827903,1.0001466418133536,0.0006277629132985516
1326.0044772200904,1326.0044772200904,1.0007553643374316,0.0006279034603578175
1326.0114217574312,1326.0114217574312,0.9990963797367696,0.0006281496303517232
1326.0183662947954,1326.0183662947954,1.0005117371384067,0.0006288786107043028
1326.0253108322177,1326.0253108322177,0.9996892390629284,0.0006293790004099919
1326.0322553696521,1326.0322553696521,1.0000586288494246,0.0006296782797465013
1326.0391999071321,1326.0391999071321,0.99987509010029,0.0006288034626958131
1326.0461444446366,1326.0461444446366,0.99940418881369,0.0006279312397656549
1326.0530889821748,1326.0530889821748,1.000524354079773,0.0006279666182087099
1326.0600335197487,1326.0600335197487,1.0002646110731832,0.0006276560904248756
1326.0669780573514,1326.0669780573514,0.9999609901571136,0.0006275385553894484
1326.0739225949833,1326.0739225949833,1.0001805936037684,0.0006274335006595762
1326.0808671326506,1326.0808671326506,1.0001790155408592,0.000627115619203094
1326.0878116703402,1326.0878116703402,0.9997668779027679,0.0006268206915622972
1326.0947562080657,1326.0947562080657,1.0005090390333407,0.0006265779244798604
1326.101700745814,1326.101700745814,0.9999760225793732,0.0006261355558822726
1326.1086452835912,1326.1086452835912,0.9992706191386395,0.0006256230056313876
1326.115589821392,1326.115589821392,0.9998046535254839,0.0006253321002377432
1326.1225343592273,1326.1225343592273,0.9999043014862583,0.0006250096176146205
1326.1294788970868,1326.1294788970868,1.0002909128386857,0.0006245049896214551
1326.1364234349744,1326.1364234349744,0.99991514968683,0.0006240225426823828
1326.1433679728918,1326.1433679728918,0.9995778685372487,0.0006234700388508469
1326.1503125108325,1326.1503125108325,1.000233427130396,0.0006230788872818178
1326.1572570488013,1326.1572570488013,0.999996477578691,0.0006225203872739797
1326.1642015867776,1326.1642015867776,1.0009417220733128,0.0006221717383456292
1326.1711461247871,1326.1711461247871,1.0012940255137384,0.0006215913740632077
1326.1780906628208,1326.1780906628208,0.9999444708380834,0.000620752127942302
1326.1850352008835,1326.1850352008835,0.9992857743835746,0.000620207274324747
1326.1919797389692,1326.1919797389692,0.999709978345248,0.0006197071820732436
1326.198924277079,1326.198924277079,0.9993496671101154,0.0006191387364492186
1326.2058688151992,1326.2058688151992,1.000212003130207,0.0006185333735334767
1326.21281335335,1326.21281335335,1.0001277653141658,0.0006181254016989843
1326.2197578915168,1326.2197578915168,1.0003894377833469,0.0006175922513974532
1326.2267024297075,1326.2267024297075,0.9995934450082358,0.0006169140866995095
1326.2336469679158,1326.2336469679158,1.0000136878119703,0.0006164247511148949
1326.240591506153,1326.240591506153,0.9999138394830098,0.0006157815403456731
1326.2475360444137,1326.2475360444137,1.0017841122698152,0.0006155331522703574
1326.2544805826742,1326.2544805826742,0.9998847266905596,0.0006146789410255423
1326.26142512097,1326.26142512097,0.999812317449846,0.0006140777214483201
1326.268369659277,1326.268369659277,0.9996230967941762,0.0006135494709360493
1326.2753141976068,1326.2753141976068,1.0011131753602198,0.0006130617911369932
1326.2822587359497,1326.2822587359497,0.9997214581912246,0.0006123781355684296
1326.2892032743146,1326.2892032743146,1.0002841446234574,0.0006120059097681318
1326.296147812703,1326.296147812703,0.999706876925327,0.0006113380631410796
1326.3030923510973,1326.3030923510973,1.0005975759515184,0.0006111263322046707
1326.3100368895155,1326.3100368895155,0.9995672407250181,0.0006107003644472411
1326.316981427939,1326.316981427939,1.0012274916677537,0.0006107131299887727
1326.3239259663972,1326.3239259663972,1.0006161027944078,0.0006103695776256452
1326.3308705048562,1326.3308705048562,0.999616306729519,0.0006100620224482693
1326.3378150433375,1326.3378150433375,1.0006746423134927,0.0006101309462476048
1326.344759581831,1326.344759581831,0.9989720239365154,0.0006096042407996341
1326.354481935751,1326.354481935751,1.0004085960077291,0.0006098467444306604
1326.3614264742732,1326.3614264742732,1.000014393117565,0.0006096729886011086
1326.368371012825,1326.368371012825,0.9993373329087621,0.0006093833176967832
1326.3753155513762,1326.3753155513762,0.9994577848116956,0.0006093086482499463
1326.3822600899573,1326.3822600899573,1.0001688473063592,0.000609239594819964
1326.3892046285437,1326.3892046285437,0.9998649167033935,0.0006092964959033603
1326.396149167142,1326.396149167142,1.000547750123459,0.0006092239799969393
1326.4030937057519,1326.4030937057519,1.0003829248652583,0.0006089581965611808
1326.4100382443733,1326.4100382443733,1.0002499376820304,0.0006088587953491681
1326.416982783018,1326.416982783018,1.0006740122927718,0.0006088929648149909
1326.4239273216626,1326.4239273216626,0.9995546997229076,0.0006087032065532911
1326.430871860325,1326.430871860325,1.0004989449112351,0.0006087724550249668
1326.4378163989927,1326.4378163989927,0.998746736863858,0.0006084012160555002
1326.4447609376784,1326.4447609376784,1.0000008845467716,0.0006085829510628059
1326.4517054763758,1326.4517054763758,0.9999413479879784,0.0006083956914701931
1326.4586500150726,1326.4586500150726,1.0002305295451757,0.0006082356382382659
1326.4655945537932,1326.4655945537932,1.0003793508154692,0.0006081586701317094
1326.4725390925137,1326.4725390925137,0.9998581256760186,0.0006079641320369803
1326.4794836312515,1326.4794836312515,0.9992451735672014,0.0006077275196144058
1326.486428169995,1326.486428169995,1.000554510441682,0.0006077750145499105
1326.4933727087505,1326.4933727087505,0.9997832087014503,0.0006075835577605956
1326.5003172475117,1326.5003172475117,1.000409288200382,0.0006075638047598946
1326.5072617862838,1326.5072617862838,0.999269648159343,0.0006072827689310638
1326.5142063250687,1326.5142063250687,1.0014284893694316,0.0006076077184562101
1326.521150863853,1326.521150863853,0.9993296010962698,0.000607305338941648
1326.5280954026553,1326.5280954026553,1.0001581617298592,0.0006075402495322033
1326.535039941457,1326.535039941457,0.9990690044878795,0.0006075151769925054
1326.5419844802764,1326.5419844802764,0.9999013538297531,0.0006077881635139712
1326.5489290190956,1326.5489290190956,1.00065649049488,0.0006083327064166181
1326.555873557921,1326.555873557921,1.0003553479929068,0.0006081183532699167
1326.562818096752,1326.562818096752,0.9997633769545681,0.0006080106571425899
1326.5697626355945,1326.5697626355945,1.0004010901594582,0.0006078629510048634
1326.576707174449,1326.576707174449,1.0002066660525828,0.0006076756239692332
1326.5836517133089,1326.5836517133089,0.9994793192172076,0.0006074665513843788
1326.590596252169,1326.590596252169,1.0002234810901312,0.0006074272705411307
1326.597540791035,1326.597540791035,1.0003344723107375,0.0006074055546735051
1326.6044853299127,1326.6044853299127,0.9985283787664686,0.0006070638577706045
1326.6114298687903,1326.6114298687903,1.0004144602382528,0.0006072180288816125
1326.6183744076793,1326.6183744076793,1.0002476509197769,0.0006070756783509349
1326.6253189465685,1326.6253189465685,0.9986726149413121,0.0006066764812137305
1326.6322634854635,1326.6322634854635,1.0009272409520924,0.0006065240624339771
1326.6392080243645,1326.6392080243645,1.000202010317295,0.0006062424115268466
1326.646152563265,1326.646152563265,1.0009119125912036,0.0006058840156951044
1326.6530971021778,1326.6530971021778,1.0003336620347052,0.0006053226786288081
1326.6600416410963,1326.6600416410963,0.9994849448493994,0.0006046807790372557
1326.6669861800085,1326.6669861800085,0.9996274576052258,0.0006041847645088055
1326.673930718933,1326.673930718933,0.9997253566877207,0.0006035825070289701
1326.6808752578627,1326.6808752578627,1.0002317958133662,0.0006030754053759535
1326.6886531414652,1326.6886531414652,0.9995619892557857,0.0006021737024500381
1326.6961532435084,1326.6961532435084,1.0005358470911259,0.0006017332489300249
1326.70309778245,1326.70309778245,1.0001486453874087,0.000601048507500415
1326.7103201029454,1326.7103201029454,0.9993448368526394,0.000600066875428912
1326.7183757681191,1326.7183757681191,1.000137040604177,0.0005995479530635225
1326.7253203070668,1326.7253203070668,1.0003027434842064,0.000598966625474314
1326.7322648460145,1326.7322648460145,1.000288230349858,0.000598297999248439
1326.7392093849676,1326.7392093849676,0.9996647611139065,0.0005977197242196047
1326.7461539239207,1326.7461539239207,1.0002237813346917,0.0005973622372276658
1326.7530984628793,1326.7530984628793,0.9999322714097051,0.0005968504933754821
1326.760043001833,1326.760043001833,0.999309772258297,0.0005963055623812316
1326.7669875407917,1326.7669875407917,1.000618113918407,0.0005959651255030878
1326.7739320797511,1326.7739320797511,1.0002878333913416,0.0005954686378503179
1326.7808766187159,1326.7808766187159,0.9998904460125774,0.0005950759921542931
1326.7878211576808,1326.7878211576808,1.0000857931488762,0.0005949839959878461
1326.7947656966458,1326.7947656966458,0.9993307293767966,0.0005946342823760816
1326.8017102356107,1326.8017102356107,0.9997222223806285,0.0005945585220565183
1326.8086547745754,1326.8086547745754,1.0005575730738863,0.0005945571231935726
1326.8155993135401,1326.8155993135401,1.0001504069136868,0.0005942561388935231
1326.822543852511,1326.822543852511,1.0002471035179574,0.0005942353163099523
1326.8294883914816,1326.8294883914816,0.9998188354965685,0.0005937884087992278
1326.8364329304466,1326.8364329304466,0.9992062766831948,0.0005935424320877611
1326.8433774694174,1326.8433774694174,1.0000571957422277,0.0005932804789558065
1326.850322008388,1326.850322008388,1.000799490832184,0.0005931853889394104
1326.857266547347,1326.857266547347,0.999604161752752,0.0005925012629717073
1326.864211086318,1326.864211086318,1.0000153846220698,0.0005920557912104918
1326.8711556252886,1326.8711556252886,0.9998394920292302,0.000591337760704336
1326.8781001642533,1326.8781001642533,0.9999292370488068,0.0005906972284677484
1326.8850447032182,1326.8850447032182,0.9998903441945057,0.0005899194451423362
1326.8919892421832,1326.8919892421832,1.0009074261091562,0.0005892545097048958
1326.8989337811481,1326.8989337811481,0.9990821529755681,0.0005881943054839949
1326.905878320113,1326.905878320113,1.0003425009508213,0.0005874901931464387
1326.9128228590776,1326.9128228590776,1.0002910440004835,0.0005863696831904144
1326.919767398037,1326.919767398037,1.0008712044012675,0.0005856269263047931
1326.9267119369956,1326.9267119369956,0.9996964421771206,0.0005842998643408036
1326.9336564759494,1326.9336564759494,0.9992490633761861,0.0005833912154696587
1326.9406010149082,1326.9406010149082,0.9997782044148241,0.0005825892828054941
1326.9475455538613,1326.9475455538613,0.9997680829067821,0.0005818383353726901
1326.9544900928147,1326.9544900928147,0.9998103828212187,0.0005810408837994911
1326.9614346317624,1326.9614346317624,1.0000908654058442,0.0005801777776802684
1326.9683791707098,1326.9683791707098,1.0001685540620835,0.000579488807470392
1326.975323709657,1326.975323709657,1.0007408980234105,0.0005789729155026811
1326.9822682485988,1326.9822682485988,1.0002975315788252,0.0005782417923319726
1326.9892127875403,1326.9892127875403,1.0000555707336058,0.0005776526836910286
1326.9961573264766,1326.9961573264766,0.9994383193478786,0.0005770255145939244
1327.0031018654117,1327.0031018654117,1.000016243912342,0.0005766922647347706
1327.010046404342,1327.010046404342,0.9999725292381967,0.0005765093596924204
1327.0169909432716,1327.0169909432716,0.9999921763810263,0.0005761362752612739
1327.0239354821958,1327.0239354821958,0.9999816321131085,0.0005760134174470489
1327.03088002112,1327.03088002112,0.9997504707005482,0.0005758527580695036
1327.0378245600439,1327.0378245600439,0.9996999155548055,0.0005756357173855147
1327.0447690989567,1327.0447690989567,1.0001353041708108,0.0005756032487557184
1327.0517136378635,1327.0517136378635,0.9997070531411515,0.0005753467519941794
1327.059213739889,1327.059213739889,1.0003989972637568,0.0005754164455800401
1327.066991623457,1327.066991623457,1.0000799201765393,0.0005753290792497817
1327.0739361623637,1327.0739361623637,1.0000587065552873,0.0005754168251616954
