time,time,flux,flux_err
1325.2993038189616,1325.2993038189616,0.9994058659902292,0.0009934103750112646
1325.307637239242,1325.307637239242,1.0008921713597927,0.0009960961896145859
1325.3152762080244,1325.3152762080244,1.0003189787548723,0.0009117841989936889
1325.3222207252604,1325.3222207252604,1.0016714409472507,0.0009149556777462682
1325.3291652426474,1325.3291652426474,1.0012974226149909,0.0009182442340237599
1325.336109760186,1325.336109760186,0.9993141123299256,0.0009211771765856908
1325.3430542778704,1325.3430542778704,0.9991253069773662,0.0009248157761941134
1325.3499987957,1325.3499987957,1.0001543940034832,0.0009294515813705826
1325.3569433136752,1325.3569433136752,1.0009123601425562,0.0009337750628515518
1325.363887831793,1325.363887831793,0.9994874126619038,0.0009378426019779177
1325.370832350051,1325.370832350051,1.0006547730640913,0.0009427315541190674
1325.377776868449,1325.377776868449,0.9989879821125873,0.0009470227992487504
1325.3847213869863,1325.3847213869863,1.000325947720304,0.0009519451834890046
1325.391665905657,1325.391665905657,0.9993410700783784,0.0009561542610900652
1325.3986104244627,1325.3986104244627,1.0009115352408966,0.0009617308446386247
1325.405554943406,1325.405554943406,0.9998351792576663,0.0009661942323184111
1325.4124994624738,1325.4124994624738,0.9988110587222158,0.0009714360406466122
1325.4194439816772,1325.4194439816772,0.9996746397233587,0.0009776491439211434
1325.4263885010073,1325.4263885010073,1.0007482319253476,0.0009835896201114457
1325.433333020465,1325.433333020465,1.000137272436306,0.0009893665597254767
1325.44027754005,1325.44027754005,1.0011751946102425,0.0009955273634108487
1325.4472220597568,1325.4472220597568,1.0007155258528049,0.0010016902641553362
1325.4541665795841,1325.4541665795841,0.9996882608427136,0.0010085650603061558
1325.461111099534,1325.461111099534,0.9990851310486581,0.0010151429380585821
1325.4680556196047,1325.4680556196047,0.9998699304376348,0.0010227003559473498
1325.4750001397963,1325.4750001397963,0.9985948877653481,0.0010303826033173176
1325.4819446600995,1325.4819446600995,1.0008293845601117,0.0010389258294282594
1325.4888891805226,1325.4888891805226,1.0011723490376587,0.001047648690623637
1325.4958337010576,1325.4958337010576,0.9998126123680058,0.0010562101769060752
1325.5027782217041,1325.5027782217041,0.9999858391655874,0.0010655080634480105
1325.5097227424635,1325.5097227424635,0.999328969206854,0.0010744158858372634
1325.51666726333,1325.51666726333,1.0005149887024818,0.0010841566973408302
1325.5236117843087,1325.5236117843087,0.9998027450491002,0.0010936046735218982
1325.530556305392,1325.530556305392,0.9998267416642845,0.001103568328573562
1325.5375008265805,1325.5375008265805,1.000511781337844,0.0011134879859642272
1325.5444453478735,1325.5444453478735,1.0010738992564254,0.0011225941921343785
1325.5513898692711,1325.5513898692711,0.9988512419945469,0.0011319890422900965
1325.5583343907708,1325.5583343907708,0.9997638652409634,0.001141481843649789
1325.565278912371,1325.565278912371,0.9989042467834585,0.0011493357197764214
1325.5722234340683,1325.5722234340683,0.9996582372450187,0.0011573992956888173
1325.5791679558654,1325.5791679558654,1.0020909822990645,0.0011654769093473872
1325.5861124777575,1325.5861124777575,0.999239599738066,0.0011719446180167967
1325.5930569997477,1325.5930569997477,0.9987556810258302,0.0011776802093483422
1325.6000015218292,1325.6000015218292,1.0013194317777778,0.0011835252212891228
1325.6069460440071,1325.6069460440071,0.9998768633230364,0.0011878945631808358
1325.6138905662751,1325.6138905662751,0.9997968534763437,0.001191633963020422
1325.6208350886332,1325.6208350886332,1.001754196307035,0.0011951541858131066
1325.627779611082,1325.627779611082,1.000605715755793,0.0011963466306545991
1325.6347241336175,1325.6347241336175,0.9981870680233957,0.0011968048432112921
1325.6416686562438,1325.6416686562438,1.000125903042963,0.0011978175030019837
1325.6486131789522,1325.6486131789522,0.9989083265736026,0.0011975439512824084
1325.6555577017457,1325.6555577017457,0.999261981010914,0.0011977127628869763
1325.6625022246276,1325.6625022246276,0.9997721703622897,0.0011975477817302764
1325.6694467475932,1325.6694467475932,0.9993908110602007,0.0011977426384701686
1325.676391270635,1325.676391270635,1.0010308006809416,0.001198149898267642
1325.6833357937576,1325.6833357937576,1.001915356284259,0.0011985169935618315
1325.6902803169626,1325.6902803169626,1.0016016025706118,0.0011992986159222454
1325.6972248402446,1325.6972248402446,0.9996133193734458,0.0011996975732756312
1325.7041693636043,1325.7041693636043,0.9998483880561821,0.0012004251991427429
1325.7111138870378,1325.7111138870378,0.9988028631760255,0.0012017736223081082
1325.71805841055,1325.71805841055,0.9989991890461498,0.001203411680586425
1325.7250029341362,1325.7250029341362,0.9992568828862293,0.0012056742112233616
1325.7319474577953,1325.7319474577953,0.9985449749200095,0.001207436435922038
1325.738891981529,1325.738891981529,1.001946160165033,0.0012108576184943465
1325.7458365053321,1325.7458365053321,1.0001856468940065,0.0012132716735259526
1325.752781029202,1325.752781029202,1.0011241596611673,0.0012162505363399456
1325.7597255531496,1325.7597255531496,1.0006361094907983,0.0012193569790038895
1325.7666700771606,1325.7666700771606,1.0006410972729114,0.001221868616220532
1325.7736146012408,1325.7736146012408,0.9997519832577263,0.0012242337856030136
1325.7805591253868,1325.7805591253868,1.0007526146040395,0.0012271219566355282
1325.7875036495982,1325.7875036495982,0.9983396420436742,0.0012294991632142674
1325.7944481738755,1325.7944481738755,0.9998313144663447,0.00123220889792322
1325.8013926982198,1325.8013926982198,0.9994855489459569,0.0012342475589465754
1325.808337222623,1325.808337222623,0.9994216783645035,0.0012356749490535501
1325.8152817470939,1325.8152817470939,1.0012350132059864,0.0012371735786924894
1325.8222262716208,1325.8222262716208,1.0018935834587546,0.0012380467694342214
1325.829170796212,1325.829170796212,1.001882819151645,0.0012387219254423633
1325.8361153208625,1325.8361153208625,0.9988159003622311,0.0012383396543444258
1325.8430598455725,1325.8430598455725,0.9991682195067385,0.0012377725534065255
1325.8500043703386,1325.8500043703386,1.0003788010163235,0.0012366223813630643
1325.8569488951634,1325.8569488951634,0.9990230923770109,0.001234134902948913
1325.8638934200467,1325.8638934200467,0.9991897633011186,0.001231595870625114
1325.870837944985,1325.870837944985,1.001522294409634,0.001228188656729075
1325.8777824699787,1325.8777824699787,1.0021476800341929,0.0012243154484825295
1325.8847269950259,1325.8847269950259,1.0013567978363835,0.001221072295040295
1325.8916715201274,1325.8916715201274,0.9999301517513732,0.001217349093896531
1325.898616045281,1325.898616045281,0.9982755802555177,0.0012140689287570222
1325.9055605704896,1325.9055605704896,1.0006022715739338,0.0012114855932303765
1325.912505095748,1325.912505095748,0.9992214397677996,0.0012087987551032103
1325.919449621056,1325.919449621056,1.0000154037234126,0.0012063264983577465
1325.926394146415,1325.926394146415,0.9983666805319457,0.001203852337249296
1325.9333386718245,1325.9333386718245,0.9997366341147153,0.0012023162584496718
1325.9402831972798,1325.9402831972798,1.0012240608413978,0.0012009553991864264
1325.947227722787,1325.947227722787,0.9997542192531712,0.0011990315948198734
1325.9541722483405,1325.9541722483405,1.0027794766958025,0.0011980856173854078
1325.961672335991,1325.961672335991,0.9988216642536021,0.0011956836345602083
1325.9694502047198,1325.9694502047198,0.9997875986214207,0.0011954495587948703
1325.9763947304193,1325.9763947304193,1.0000451155888856,0.0011946135729869304
1325.9833392561648,1325.9833392561648,1.0004321890320937,0.0011945584024395347
1325.9902837819513,1325.9902837819513,0.9981997950506305,0.0011942785068235723
1325.9972283077848,1325.9972283077848,0.9989952609121435,0.0011949799972307885
1326.0041728336605,1326.0041728336605,1.001995329519492,0.0011967433792058656
1326.0111173595778,1326.0111173595778,1.000016083139678,0.0011984962082572386
1326.018061885538,1326.018061885538,0.9997923556748418,0.0012010446637809227
1326.0250064115353,1326.0250064115353,1.0015241046425927,0.0012036447881405266
1326.0319509375772,1326.0319509375772,1.0006093896574533,0.0012050805588192373
1326.0388954636571,1326.0388954636571,0.9999079947904812,0.0012031669630995696
1326.0458399897775,1326.0458399897775,0.9997908464596772,0.0012021794598986225
1326.0527845159334,1326.0527845159334,0.9995452725608936,0.0012024762281335768
1326.0597290421306,1326.0597290421306,1.0006562988538323,0.001202601712626015
1326.066673568364,1326.066673568364,1.0002665254710632,0.0012028247472435755
1326.0736180946365,1326.0736180946365,0.9986948984091455,0.0012025670369003444
1326.080562620946,1326.080562620946,0.9995906778089744,0.0012028283496796951
1326.087507147288,1326.087507147288,1.000403703713341,0.0012029284838293692
1326.0944516736674,1326.0944516736674,1.0011777314913544,0.0012029900927573597
1326.1013962000827,1326.1013962000827,1.0007047626691292,0.0012022544186463438
1326.1083407265298,1326.1083407265298,0.9998594453259232,0.001201923252902627
1326.115285253012,1326.115285253012,0.998472792861898,0.0012009222684050429
1326.1222297795289,1326.1222297795289,0.9991032012009973,0.0012007452212437224
1326.129174306077,1326.129174306077,1.0012830452867607,0.0012006837841928393
1326.1361188326596,1326.1361188326596,0.9991415635178413,0.0011997156936261481
1326.1430633592743,1326.1430633592743,0.9989663247173963,0.001199353849237507
1326.1500078859196,1326.1500078859196,1.001268206531405,0.0011990068095123782
1326.1569524125935,1326.1569524125935,1.0021331897894428,0.0011982735233213337
1326.1638969393007,1326.1638969393007,1.0007013802553262,0.0011973978367799019
1326.1708414660384,1326.1708414660384,0.9984786549459116,0.0011958463861196941
1326.1777859928059,1326.1777859928059,1.0000312133105536,0.0011953229371648303
1326.184730519601,1326.184730519601,0.9985487728647169,0.0011940863259633564
1326.191675046428,1326.191675046428,0.9998678705134367,0.0011933766941244375
1326.1986195732802,1326.1986195732802,1.000026763967973,0.001192665520978669
1326.2055641001607,1326.2055641001607,0.9991933773785435,0.0011914761709376383
1326.21250862707,1326.21250862707,1.0003641498265234,0.0011909174737709833
1326.2194531540042,1326.2194531540042,1.0012138221176656,0.0011904147353432562
1326.2263976809668,1326.2263976809668,1.0015075680240761,0.0011898758779831065
1326.2333422079585,1326.2333422079585,0.999780425497687,0.0011881747026046005
1326.240286734973,1326.240286734973,1.0002835919037811,0.0011877661263042503
1326.2472312620143,1326.2472312620143,0.9993096875684048,0.0011867485527505544
1326.2541757890785,1326.2541757890785,0.9992798180550547,0.001185759768296738
1326.2611203161694,1326.2611203161694,0.9995862607054145,0.001185035663924121
1326.268064843283,1326.268064843283,1.0001812356184607,0.0011844235851578224
1326.2750093704212,1326.2750093704212,0.9998037509784916,0.0011832451471384634
1326.281953897585,1326.281953897585,0.9996224442138537,0.0011820551922505265
1326.2888984247697,1326.2888984247697,0.9996518724638426,0.0011811194766716683
1326.2958429519767,1326.2958429519767,1.000263317510007,0.0011805887731305953
1326.3027874792083,1326.3027874792083,1.0005265072012857,0.001180030119608447
1326.3097320064621,1326.3097320064621,1.0008691885956247,0.0011796896565935936
1326.316676533736,1326.316676533736,1.0008673238232872,0.0011791491601925662
1326.3236210610298,1326.3236210610298,0.9997068400860961,0.0011786950930562194
1326.3305655883464,1326.3305655883464,0.9988246998798305,0.0011783891657259507
1326.3375101156867,1326.3375101156867,1.0001557138808765,0.001179148992799959
1326.3444546430437,1326.3444546430437,1.0000373479483615,0.0011794336928165903
1326.3541769813787,1326.3541769813787,0.9997693087993322,0.0011800498113308038
1326.361121508783,1326.361121508783,1.0000919441240925,0.001180642819574924
1326.3680660362086,1326.3680660362086,0.9996022136692687,0.0011806078264882832
1326.3750105636507,1326.3750105636507,0.999385729576046,0.0011806368838258605
1326.3819550911157,1326.3819550911157,1.0000886537630316,0.0011807863358329993
1326.3888996185974,1326.3888996185974,1.0001705979882405,0.0011814179188639712
1326.3958441460957,1326.3958441460957,0.9990946165846827,0.0011814858583784585
1326.402788673611,1326.402788673611,1.0023837805607065,0.0011829391609660068
1326.4097332011454,1326.4097332011454,0.9994684509643204,0.0011825229604556873
1326.4166777286973,1326.4166777286973,1.0002788869415566,0.0011830767254466586
1326.4236222562636,1326.4236222562636,1.0004666919994798,0.001183098886274964
1326.4305667838476,1326.4305667838476,1.000201908721023,0.00118387115129125
1326.4375113114484,1326.4375113114484,0.9997904291275791,0.0011840407398804034
1326.4444558390646,1326.4444558390646,0.9977532552220365,0.0011844214579840784
1326.4514003666966,1326.4514003666966,0.9990488435409512,0.0011849315861143948
1326.4583448943456,1326.4583448943456,0.9999331156656279,0.0011852882408721044
1326.4652894220083,1326.4652894220083,1.0009161190145348,0.001185762230163867
1326.4722339496852,1326.4722339496852,0.9999513542585458,0.001185384384671129
1326.4791784773765,1326.4791784773765,0.9998673785068577,0.001185572068791585
1326.486123005081,1326.486123005081,0.9994412361911461,0.0011859235731677988
1326.4930675328046,1326.4930675328046,0.9998696779448666,0.0011861024317402205
1326.5000120605387,1326.5000120605387,1.0009332641143918,0.001186826406943386
1326.5069565882848,1326.5069565882848,1.0006761103859632,0.0011870887482408152
1326.513901116045,1326.513901116045,1.0000955020145592,0.0011874464789479828
1326.5208456438224,1326.5208456438224,0.9991395004144646,0.0011877311158277491
1326.5277901716072,1326.5277901716072,1.001220979541241,0.0011896285560173223
1326.5347346994063,1326.5347346994063,0.9984184723903249,0.0011899872400257313
1326.5416792272158,1326.5416792272158,0.9992643783554301,0.0011917333629356884
1326.5486237550394,1326.5486237550394,0.9999857642748973,0.0011934268565302081
1326.5555682828751,1326.5555682828751,1.0013702927593715,0.0011938689503366675
1326.562512810721,1326.562512810721,1.0011206980809575,0.0011946391284869456
1326.5694573385797,1326.5694573385797,1.0006082794653302,0.001193840142104341
1326.5764018664506,1326.5764018664506,0.9991251875659947,0.001193635868808804
1326.5833463943295,1326.5833463943295,0.9976578730409077,0.0011939115681963472
1326.5902909222218,1326.5902909222218,0.9995256638760631,0.0011945010118946764
1326.59723545012,1326.59723545012,1.0000887102377451,0.0011949412013556415
1326.6041799780314,1326.6041799780314,1.0015631000311347,0.0011956531487737625
1326.6111245059528,1326.6111245059528,1.0015529205371447,0.0011956171191851348
1326.6180690338842,1326.6180690338842,1.0007370387050643,0.0011954357562913166
1326.6250135618247,1326.6250135618247,1.0000524910840345,0.0011951102578795273
1326.631958089775,1326.631958089775,0.9990911091221332,0.0011944487328542737
1326.6389026177317,1326.6389026177317,0.9990990051296462,0.0011940204560163055
1326.6458471457022,1326.6458471457022,1.0008448782907116,0.001193409094303485
1326.6527916736777,1326.6527916736777,0.9990747312197208,0.0011918923453289123
1326.659736201665,1326.659736201665,0.9999914496695613,0.0011907069900244122
1326.6666807296558,1326.6666807296558,0.9985580809291458,0.0011892091000933515
1326.6736252576577,1326.6736252576577,0.9998453709080117,0.0011878231932199344
1326.6805697856691,1326.6805697856691,1.00108293210499,0.001186482520470227
1326.6883476570467,1326.6883476570467,1.0010228754370338,0.0011843749431664525
1326.6958477473158,1326.6958477473158,0.9995470331718718,0.0011825052498033808
1326.7027922753507,1326.7027922753507,0.9999754682342668,0.0011809993364029561
1326.7100145845118,1326.7100145845118,0.9989096130127286,0.0011789731404578878
1326.7180702370472,1326.7180702370472,1.0008387057737123,0.0011777067278786752
1326.725014765104,1326.725014765104,0.9998568450603166,0.0011758754693287374
1326.7319592931653,1326.7319592931653,1.000652122064464,0.0011744611540088123
1326.7389038212352,1326.7389038212352,0.9987131638730334,0.0011732077064610128
1326.7458483493094,1326.7458483493094,1.0005936740562917,0.0011719048905050353
1326.7527928773889,1326.7527928773889,0.9999446317704628,0.0011705181828957948
1326.7597374054767,1326.7597374054767,1.0005626806757963,0.0011695728236258054
1326.766681933568,1326.766681933568,0.9998244544125194,0.0011681725374797806
1326.7736264616674,1326.7736264616674,0.9992759143451933,0.0011674979513777652
1326.780570989769,1326.780570989769,1.0000032317712404,0.0011669528102548207
1326.7875155178783,1326.7875155178783,1.0001021077676362,0.0011660376056060657
1326.7944600459905,1326.7944600459905,1.0003031677016492,0.0011660551887762024
1326.8014045741097,1326.8014045741097,1.0002324301500098,0.0011660694916372006
1326.808349102232,1326.808349102232,1.0011134953563394,0.0011660105694285307
1326.8152936303582,1326.8152936303582,0.9980268396308146,0.0011654580438481027
1326.8222381584924,1326.8222381584924,1.0003822726169591,0.0011656865183082357
1326.8291826866262,1326.8291826866262,1.0001592957443866,0.0011651616312746429
1326.836127214769,1326.836127214769,1.0001510488823977,0.001164490986890612
1326.8430717429087,1326.8430717429087,0.998940154820283,0.0011639975812140432
1326.8500162710584,1326.8500162710584,0.9998019674174202,0.0011633422183593438
1326.85696079921,1326.85696079921,1.0012102679757262,0.001162452505807789
1326.863905327366,1326.863905327366,0.9998158186557703,0.0011607006419410138
1326.870849855523,1326.870849855523,1.001422581435175,0.0011588543194349797
1326.8777943836858,1326.8777943836858,0.9997450980285594,0.0011563669571762467
1326.8847389118473,1326.8847389118473,1.0000756145217657,0.0011534095341159806
1326.8916834400163,1326.8916834400163,0.9986739168140628,0.0011510070426175348
1326.8986279681865,1326.8986279681865,0.9991764927262757,0.001147658577368636
1326.9055724963582,1326.9055724963582,0.9992542274387471,0.001144454972535127
1326.9125170245327,1326.9125170245327,1.000093366445108,0.0011418396644047213
1326.9194615527106,1326.9194615527106,1.0019629091519098,0.0011390365932193523
1326.9264060808905,1326.9264060808905,1.0005847644825718,0.0011351835208971747
1326.9333506090745,1326.9333506090745,1.0015683486135178,0.0011323445036860553
1326.9402951372574,1326.9402951372574,1.0004643073725945,0.0011291167839763622
1326.9472396654407,1326.9472396654407,0.9968408581794337,0.0011254748593629803
1326.9541841936257,1326.9541841936257,0.9996030860211361,0.0011231891506475232
1326.9611287218152,1326.9611287218152,0.9972168483258788,0.0011200839153906075
1326.968073250006,1326.968073250006,1.0000713979541571,0.001118482480602849
1326.9750177781975,1326.9750177781975,1.0013638455002194,0.0011163593159515598
1326.9819623063884,1326.9819623063884,1.0008844261296106,0.0011136614322479073
1326.988906834582,1326.988906834582,0.9993992046565919,0.001111822233796666
1326.9958513627776,1326.9958513627776,1.000574643993501,0.0011108135493347235
1327.0027958909704,1327.0027958909704,1.0001101351337975,0.0011091892853497599
1327.009740419167,1327.009740419167,0.9995331963842983,0.0011077420437184944
1327.0166849473649,1327.0166849473649,0.9995117989676195,0.0011070529950395532
1327.02362947556,1327.02362947556,1.0006149923358507,0.0011066490706274931
1327.030574003758,1327.030574003758,1.0008463734610327,0.0011069641479195679
1327.0375185319556,1327.0375185319556,1.000140128218539,0.0011059759704278973
1327.0444630601523,1327.0444630601523,0.9995807203185796,0.0011059879103185043
1327.0514075883505,1327.0514075883505,0.998617755671968,0.0011056433126878998
1327.0589076788026,1327.0589076788026,0.9995772804999019,0.0011057260382328097
1327.0666855503844,1327.0666855503844,1.0011640001777562,0.0011063525104466755
1327.0736300785793,1327.0736300785793,1.0003284287058252,0.0011064162577309124
