time,time,flux,flux_err
1544.3838000743942,1544.3838000743942,1.001423219222195,0.0027446602099050928
1544.39213349146,1544.39213349146,1.000684291566636,0.0027161540313853224
1544.4004669086814,1544.4004669086814,1.0020014723200177,0.002688306380149943
1544.4088003257477,1544.4088003257477,0.9955966242261564,0.0026563720786367704
1544.4164392912971,1544.4164392912971,0.9970416706403906,0.0024022968341494973
1544.423383805532,1544.423383805532,0.9996318320545672,0.0023814408911730215
1544.4303283196734,1544.4303283196734,1.0012570779779792,0.0023612766662464467
1544.437272833815,1544.437272833815,0.9982566382992154,0.002340174216784503
1544.4442173478635,1544.4442173478635,1.002790502616298,0.002322446471510203
1544.451161861912,1544.451161861912,1.0005087030162563,0.0023023595310353445
1544.4581063760536,1544.4581063760536,0.9977161529487827,0.0022850711666918995
1544.4650508899153,1544.4650508899153,1.0038135366735699,0.002271361241673294
1544.4719954040575,1544.4719954040575,1.001475975636568,0.0022577403469734455
1544.4789399179192,1544.4789399179192,0.9981530813976363,0.0022449106978322535
1544.4858844316884,1544.4858844316884,0.9999418699467013,0.0022339091223383505
1544.4928289456436,1544.4928289456436,0.9980194850371709,0.0022264761520475033
1544.499773459692,1544.499773459692,0.9979410963993057,0.002217621495380914
1544.506717973461,1544.506717973461,1.0022514422623519,0.002210182487293234
1544.51366248723,1544.51366248723,0.9993021699864931,0.0022005745609314795
1544.5206070009995,1544.5206070009995,1.0006114677044267,0.0021945345315764857
1544.5275515145818,1544.5275515145818,0.9986437778660218,0.0021857291219889805
1544.5344960280715,1544.5344960280715,1.0012804299075488,0.002180463633499964
1544.5414405418405,1544.5414405418405,1.0006020478481354,0.0021731041816628297
1544.5483850555165,1544.5483850555165,1.0010810793487006,0.0021668641407779935
1544.5553295689133,1544.5553295689133,1.000311773549675,0.0021585332654683828
1544.562274082589,1544.562274082589,0.99961344836778,0.0021517435734577533
1544.5692185959856,1544.5692185959856,1.0016244697938583,0.002146213743584638
1544.576163109382,1544.576163109382,0.9997885356866923,0.0021403503478937096
1544.5831076228717,1544.5831076228717,0.9966009498934767,0.002132155591938087
1544.5900521361748,1544.5900521361748,1.001247680833206,0.0021257848458744832
1544.5969966494783,1544.5969966494783,0.9988999570525989,0.0021186407737730064
1544.6039411627814,1544.6039411627814,1.0031075282984931,0.002113792294395345
1544.6108856759918,1544.6108856759918,0.99851951799598,0.0021066958425857577
1544.617830189202,1544.617830189202,1.0007238466253552,0.002101071074965484
1544.6247747023194,1544.6247747023194,0.9982745213018035,0.0020956022669461
1544.6317192154363,1544.6317192154363,1.0006797781061219,0.002092441370402013
1544.6389415091044,1544.6389415091044,0.9997096039811979,0.0020863335132775356
1544.646997144145,1544.646997144145,0.9981480214374268,0.002081502403905056
1544.6539416571693,1544.6539416571693,0.9991118575623027,0.002075312316212175
1544.6608861700067,1544.6608861700067,1.002880064927014,0.0020721046175607473
1544.6678306829376,1544.6678306829376,0.9984938092758521,0.002068473370815967
1544.6747751957753,1544.6747751957753,0.9981926516730063,0.0020619746598824337
1544.6817197085197,1544.6817197085197,1.0007632246611635,0.0020562465331332405
1544.6886642212644,1544.6886642212644,0.9995109896235365,0.002050761553157824
1544.6956087339156,1544.6956087339156,1.0013849340978112,0.0020451054717557583
1544.702553246474,1544.702553246474,1.002194470746024,0.002040432844344059
1544.7094977591255,1544.7094977591255,0.9965589089907425,0.0020348189729234396
1544.7164422716837,1544.7164422716837,1.000346638641481,0.002026932513708666
1544.7233867842422,1544.7233867842422,1.0012786944517527,0.002022491000765362
1544.7303312967074,1544.7303312967074,0.9992795187735197,0.002017539470646842
1544.7372758090794,1544.7372758090794,0.9972651692169368,0.00201124468622815
1544.7442203213584,1544.7442203213584,0.9996683266073662,0.0020068288616940846
1544.7511648337304,1544.7511648337304,1.0002661943069355,0.0020029352080745354
1544.7581093460092,1544.7581093460092,1.0010980986602362,0.001998683655269294
1544.765053858102,1544.765053858102,1.0003871601102725,0.001993757828019576
1544.7719983702877,1544.7719983702877,1.0009908517193025,0.0019910288627513597
1544.7789428822873,1544.7789428822873,1.0003053181141297,0.0019876768984255447
1544.785887394473,1544.785887394473,0.9979806902847077,0.0019842018902866956
1544.7928319063794,1544.7928319063794,1.000670544175763,0.001979425337953789
1544.799776418286,1544.799776418286,1.0014738974566861,0.00197632984632115
1544.8067209301921,1544.8067209301921,0.9989143634665979,0.001973734644264475
1544.8136654420055,1544.8136654420055,0.999061910762264,0.0019697093419673312
1544.8206099538188,1544.8206099538188,1.0002087457405682,0.0019665145622795375
1544.8275544654452,1544.8275544654452,1.000906530912233,0.0019620849268736475
1544.834498977259,1544.834498977259,0.998829409338869,0.0019573458904486164
1544.8414434886993,1544.8414434886993,1.0011497219071486,0.0019579820347101597
1544.8483880001402,1544.8483880001402,1.000003453807658,0.0019530298773059683
1544.8553325115813,1544.8553325115813,1.0007003643167112,0.001947052123525223
1544.8622770230218,1544.8622770230218,0.9993731427703546,0.0019403888152251182
1544.8692215344624,1544.8692215344624,1.000655933976446,0.001935827428029544
1544.8761660459033,1544.8761660459033,0.9982656206621362,0.0019300040786809334
1544.883110557344,1544.883110557344,1.0012648437954215,0.0019240019526980978
1544.890055068319,1544.890055068319,0.9992307337567086,0.0019191728564191626
1544.8969995795735,1544.8969995795735,0.999025683258614,0.00191378525595093
1544.903944090735,1544.903944090735,1.0009391218438957,0.0019091389008116754
1544.9108886017098,1544.9108886017098,1.0014093431080187,0.001902511450643063
1544.917833112685,1544.917833112685,1.0005493904496234,0.0018990790636619283
1544.9247776235666,1544.9247776235666,1.0014551970169325,0.0018955991971107643
1544.9317221344486,1544.9317221344486,1.0004457400913527,0.0018934364883904761
1544.9386666453304,1544.9386666453304,0.998436247842052,0.001888141174272833
1544.945611155933,1544.945611155933,0.9980460483697836,0.0018851142788671887
1544.952555666629,1544.952555666629,1.0004747666037086,0.0018772455410229541
1544.9595001773246,1544.9595001773246,0.9995035579216826,0.0018737633687556602
1544.9664446878337,1544.9664446878337,1.0002667839590622,0.0018693855520833121
1544.9733891983435,1544.9733891983435,0.9994563185332035,0.0018652441432001076
1544.9803337087596,1544.9803337087596,0.9996334739097815,0.0018617954003631125
1544.9872782191756,1544.9872782191756,1.0031336047263486,0.0018560930522820225
1544.994222729592,1544.994222729592,0.9989464857995867,0.001851054832783883
1545.0011672398218,1545.0011672398218,0.9986802068563312,0.001851226429934797
1545.008111749866,1545.008111749866,1.0004436698637509,0.0018409248343350156
1545.0150562600957,1545.0150562600957,1.0005815574261505,0.00184111145807292
1545.0220007701396,1545.0220007701396,1.000372440259373,0.0018343012720896529
1545.028945280183,1545.028945280183,0.9998683529387756,0.0018304173099888087
1545.035889790134,1545.035889790134,1.000372995576572,0.0018261315742702186
1545.042834299991,1545.042834299991,1.001196550149098,0.0018243255429270637
1545.049778809756,1545.049778809756,0.9985830418834167,0.001820935452118372
1545.0567233195197,1545.0567233195197,0.9999369289078663,0.0018159017040685539
1545.063667829191,1545.063667829191,0.9999046633349005,0.0018130450817204955
1545.0706123388622,1545.0706123388622,1.0012765985360053,0.0018103364892099387
1545.077556848347,1545.077556848347,1.0002096156691962,0.0018091989665779359
1545.084501357925,1545.084501357925,0.9984658300842517,0.0018044229907735894
1545.0914458673174,1545.0914458673174,1.0002187805765985,0.0018006780105135462
1545.0983903766157,1545.0983903766157,0.9980687929206769,0.001798071495335201
1545.1053348859145,1545.1053348859145,1.0002467817040122,0.001795551611679568
1545.1122793953061,1545.1122793953061,1.0004044033643258,0.0017901941597260034
1545.1192239044185,1545.1192239044185,1.0011917742658203,0.0017881184843276227
1545.126168413531,1545.126168413531,1.0030675961162454,0.0017829168166735374
1545.1331129226432,1545.1331129226432,1.0000806838775003,0.0017780973101279482
1545.1400574312904,1545.1400574312904,0.997562020581906,0.0017739333217440464
1545.1470019404026,1545.1470019404026,0.9990668121281854,0.0017710936906133556
1545.1539464490495,1545.1539464490495,0.9992695365566157,0.0017677325090105175
1545.1608909578824,1545.1608909578824,0.9987269023729599,0.0017632516098298376
1545.1678354666221,1545.1678354666221,1.0018149925385653,0.0017613806162922925
1545.1747799752688,1545.1747799752688,1.0003382363630324,0.0017582207063943645
1545.1817244838226,1545.1817244838226,1.0011600027446308,0.0017577396478867403
1545.1886689922828,1545.1886689922828,1.0010361534961885,0.001751352660781659
1545.1956135007435,1545.1956135007435,0.9980380146710723,0.0017480437523698113
1545.2025580091108,1545.2025580091108,0.9999886116836251,0.001747172041841532
1545.2095025172919,1545.2095025172919,0.9996991976700069,0.001743558672505384
1545.2164470255661,1545.2164470255661,0.9991623238256537,0.00173987629719821
1545.2233915337472,1545.2233915337472,0.9996145424764217,0.001737480954951741
1545.230336041742,1545.230336041742,1.0028309424486168,0.0017360037363263092
1545.2372805498298,1545.2372805498298,0.9990068694346572,0.001734404402886878
1545.2442250577312,1545.2442250577312,1.0002001359713386,0.0017332569398466752
1545.25116956554,1545.25116956554,0.9984032411215182,0.0017344911362646813
1545.258114073442,1545.258114073442,1.0018691284873618,0.0017280238537843967
1545.265058581157,1545.265058581157,0.9980340518211313,0.001727811069331472
1545.2720030887797,1545.2720030887797,0.9995773830573842,0.0017249265428290507
1545.2789475963086,1545.2789475963086,0.9985368468442971,0.001721722553750147
1545.285892103838,1545.285892103838,0.9993131698644662,0.0017212664626056432
1545.292836611367,1545.292836611367,0.9995642585646852,0.0017201120240029142
1545.2997811187097,1545.2997811187097,1.0023593156176616,0.001716795495205478
1545.3067256260529,1545.3067256260529,1.0008225067120429,0.0017151021532971576
1545.3136701332091,1545.3136701332091,1.0011079444761724,0.0017107363873807835
1545.3206146403659,1545.3206146403659,0.9986040217636484,0.0017109018435276647
1545.3275591475226,1545.3275591475226,0.9997777517754812,0.001704412621786834
1545.334503654493,1545.334503654493,1.0004228680428309,0.0017027621307808423
1545.3414481615564,1545.3414481615564,0.9999024120871487,0.001700239166947798
1545.3483926683407,1545.3483926683407,1.0003146135676444,0.0016964830581644892
1545.3553371751245,1545.3553371751245,1.0002794118765557,0.0016967139854349455
1545.3622816819086,1545.3622816819086,0.9995758229192513,0.0016949425289836666
1545.3692261885997,1545.3692261885997,1.000037725012128,0.0016902683927467442
1545.376170695011,1545.376170695011,0.9998824012742015,0.0016869529816603945
1545.383115201609,1545.383115201609,0.9987039951995504,0.0016854975830048549
1545.3900597080205,1545.3900597080205,0.9986451603598315,0.0016847756416956711
1545.3970042143387,1545.3970042143387,1.000695447483992,0.001680803152676834
1545.4039487206574,1545.4039487206574,0.999777641423534,0.0016795221777459093
1545.4108932268825,1545.4108932268825,1.002090294102834,0.001677494544556742
1545.417837733015,1545.417837733015,0.9995073512566922,0.001674251577319752
1545.4247822390541,1545.4247822390541,1.0002607854755223,0.0016735893045589114
1545.4317267450926,1545.4317267450926,1.001599364103159,0.0016697460578711533
1545.4386712509458,1545.4386712509458,0.9981995122437046,0.0016676177539790462
1545.4456157567984,1545.4456157567984,1.0012172398353565,0.001666552602133494
1545.452560262558,1545.452560262558,0.9974673303650243,0.0016659850392465449
1545.4595047683179,1545.4595047683179,1.0012552786496645,0.0016662462342150752
1545.466449273891,1545.466449273891,1.0008155876724252,0.0016649505798874056
1545.4733937793712,1545.4733937793712,1.0027613999923932,0.001664402272526687
1545.4803382849448,1545.4803382849448,0.9996521016167744,0.001661841006542076
1545.4872827903316,1545.4872827903316,0.9983848764790683,0.001660246563755722
1545.4942272956255,1545.4942272956255,1.00144148995134,0.0016632360071541022
1545.5011718008268,1545.5011718008268,1.0004377048946116,0.0016647463859461148
1545.5081163060272,1545.5081163060272,0.9998935001968453,0.0016587539835582706
1545.515060811042,1545.515060811042,0.9995709123388693,0.0016596675240915324
1545.5220053161495,1545.5220053161495,0.999334961460234,0.001660853460177222
1545.528949821071,1545.528949821071,1.001925300560749,0.0016613179486662632
1545.5358943258993,1545.5358943258993,0.99935878792125,0.00166000954516228
1545.542838830728,1545.542838830728,1.0001851655451244,0.0016588859687216527
1545.5497833352767,1545.5497833352767,0.9998328606902913,0.001658670248396737
1545.5567278401982,1545.5567278401982,1.000756463336086,0.0016575691653849002
1545.5636723446537,1545.5636723446537,1.0004818376364522,0.0016592256820824086
1545.5706168491097,1545.5706168491097,0.999830750482273,0.0016578034452722722
1545.577561353565,1545.577561353565,0.9996262786882883,0.0016582593404034594
1545.5845058577418,1545.5845058577418,0.999644843330595,0.001656485545394081
1545.5914503620113,1545.5914503620113,0.998878554680981,0.0016581850465538152
1545.5983948661876,1545.5983948661876,0.9995119730780223,0.001656161734417786
1545.605339370271,1545.605339370271,0.9999629288712487,0.00165785720304829
1545.6122838742608,1545.6122838742608,1.0003487587088766,0.0016552933753561836
1545.6192283782511,1545.6192283782511,1.0001284914469437,0.0016607980944057395
1545.6261728821478,1545.6261728821478,0.9992652211101637,0.0016581046100391285
1545.6331173857657,1545.6331173857657,1.0016704208993459,0.0016576222273639869
1545.6400618894763,1545.6400618894763,1.0013799955089737,0.0016569961730645635
1545.6470063931874,1545.6470063931874,0.999811974633762,0.0016585974507612358
1545.6539508967116,1545.6539508967116,1.0002115518195545,0.0016582866236029385
1545.6608954001433,1545.6608954001433,0.9989370358811416,0.001658130025126154
1545.6678399034809,1545.6678399034809,0.9995620695140566,0.001658907784543843
1545.6747844069125,1545.6747844069125,0.999426912266163,0.0016593987387180913
1545.6817289100643,1545.6817289100643,1.0002945469316125,0.0016571247958261028
1545.6886734132163,1545.6886734132163,0.998981053089727,0.0016595180111249371
1545.6956179162748,1545.6956179162748,1.0013372413006825,0.0016599499818838296
1545.7025624193336,1545.7025624193336,0.9991209447844819,0.0016598732699222077
1545.7095069222064,1545.7095069222064,1.0009823615480715,0.0016575828758725348
1545.7164514250787,1545.7164514250787,0.9984895869564353,0.0016589330815994028
1545.7233959277653,1545.7233959277653,1.0013136483276677,0.0016568178680975265
1545.7303404304512,1545.7303404304512,1.0007793729397758,0.001659372594629234
1545.7372849330445,1545.7372849330445,0.999062466038038,0.001655229675525706
1545.7442294355446,1545.7442294355446,0.9999969621238627,0.0016593766263367099
1545.7511739379513,1545.7511739379513,0.9987979809887129,0.0016586861826533602
1545.7581184404512,1545.7581184404512,1.000931435827789,0.0016556641727866427
1545.7650629426719,1545.7650629426719,1.0012888502000734,0.00165707545990754
1545.7720074447993,1545.7720074447993,0.9981294273365208,0.0016552376116483844
1545.7789519469272,1545.7789519469272,1.0006823953824742,0.0016560175732645804
1545.785896449054,1545.785896449054,1.0005786018017164,0.001656858223200859
1545.7928409509022,1545.7928409509022,1.0014352319830626,0.0016566947423871023
1545.7997854528435,1545.7997854528435,0.9981431367007396,0.0016553059451645472
1545.8067299545053,1545.8067299545053,0.9990846363881009,0.0016571247196472826
1545.81367445626,1545.81367445626,1.000054697623923,0.001657598251934406
1545.820618957922,1545.820618957922,1.0002096003522805,0.0016575119076283136
1545.8275634593977,1545.8275634593977,1.0007065924488092,0.0016554742916327658
1545.8345079609662,1545.8345079609662,1.0015885167567071,0.0016561705067589054
1545.8414524623486,1545.8414524623486,1.000465968095252,0.0016572811010035957
1545.8483969635447,1545.8483969635447,0.9993941966803914,0.0016597946113779427
1545.855341464834,1545.855341464834,0.9985946772730017,0.0016573247695196025
1545.8622859660302,1545.8622859660302,0.9998596011499558,0.0016601436127372435
1545.8692304670403,1545.8692304670403,0.9992737407015596,0.0016592374448851442
1545.8761749679568,1545.8761749679568,1.0013632039873537,0.001656425098046696
1545.8831194689667,1545.8831194689667,0.9992039538689529,0.001658341504199631
1545.8900639696972,1545.8900639696972,0.999828369116632,0.0016583179471123244
1545.8970084704274,1545.8970084704274,0.9994947146976539,0.001656412366740211
1545.9039529710649,1545.9039529710649,0.999783542201064,0.0016574604608903883
1545.9108974717024,1545.9108974717024,0.9997331717242947,0.0016568085065123233
1545.9178419720597,1545.9178419720597,1.0016603210517427,0.00165740131335149
1545.9247864726046,1545.9247864726046,1.0007395051973134,0.0016595737584303295
1545.931730972869,1545.931730972869,1.000263326199218,0.001655383761697648
1545.9386754730408,1545.9386754730408,0.9997992673376561,0.0016559091447328471
1545.9456199733056,1545.9456199733056,0.9997304093751751,0.0016606695479464458
1545.9525644732914,1545.9525644732914,1.0011695956206697,0.0016582731267379002
1545.9595089733696,1545.9595089733696,0.9985624760521657,0.0016583974237176734
1545.9664534731687,1545.9664534731687,0.9984349787758913,0.0016583275809688553
1545.9733979729676,1545.9733979729676,1.0014437873877327,0.001659154710093203
1545.9803424727675,1545.9803424727675,1.0007070246322507,0.00165922112147501
1545.9872869725664,1545.9872869725664,0.999126779672498,0.001658042912148792
1545.9942314718996,1545.9942314718996,0.9997257507645407,0.0016562586487340546
1546.0011759715126,1546.0011759715126,0.9999588814301162,0.0016605148620839633
1546.0081204709395,1546.0081204709395,0.9993806641448646,0.0016564266596364962
1546.0150649701795,1546.0150649701795,1.000262241231773,0.0016583995192830149
1546.02200946942,1546.02200946942,0.9997633668315828,0.0016553820668162873
1546.02895396866,1546.02895396866,1.0006936912405338,0.001655830207178489
1546.0358984677143,1546.0358984677143,1.0002357125706947,0.0016556688188967515
1546.0428429666754,1546.0428429666754,1.0014442511315231,0.001659590818366875
1546.049787465543,1546.049787465543,0.9990225407118594,0.0016579585636200878
1546.056731964411,1546.056731964411,0.9997869270340004,0.0016574362885503526
1546.0636764631859,1546.0636764631859,0.9998274319845539,0.0016602425994635868
1546.070620961867,1546.070620961867,1.0008105046915823,0.0016563542930762283
1546.0775654602699,1546.0775654602699,0.9976810583149269,0.0016563411344806913
1546.0845099588576,1546.0845099588576,1.0003297809209888,0.001658465092129904
1546.0914544572602,1546.0914544572602,1.0009310282622441,0.0016588894939525319
1546.098398955569,1546.098398955569,0.9999017438087716,0.0016593823861376367
1546.1053434537848,1546.1053434537848,0.9993695083935986,0.0016582321934242666
1546.1122879519075,1546.1122879519075,1.0017641187817528,0.0016574476478382605
1546.1192324500305,1546.1192324500305,1.0001586019337758,0.0016564912616248537
1546.1261769479668,1546.1261769479668,0.9993796874595219,0.0016558452565360656
1546.1331214459035,1546.1331214459035,1.000852694855094,0.0016580333151044607
1546.1400659436538,1546.1400659436538,0.9987070793039233,0.0016557491455270717
1546.1470104414036,1546.1470104414036,0.9990662357370216,0.0016576551562935936
1546.153954938875,1546.153954938875,0.9997662085733408,0.0016580585851649625
1546.1608994368112,1546.1608994368112,1.0004887215561926,0.001658756921309484
