time,time,flux,flux_err
1683.3609611155164,1683.3609611155164,1.000189220079674,0.0001496694686958323
1683.369294498072,1683.369294498072,0.999872021152321,0.00014962381546008912
1683.3776278804341,1683.3776278804341,1.000197975075584,0.0001496740884854449
1683.3859612626013,1683.3859612626013,1.0000917230595565,0.00014964775321983222
1683.3936001961733,1683.3936001961733,0.9997481423532829,0.0001365862480554242
1683.4005446810102,1683.4005446810102,0.9996034112386134,0.00013659252641040756
1683.4074891656608,1683.4074891656608,0.9997986542610473,0.00013658640579556095
1683.414433650219,1683.414433650219,0.9999779343381597,0.00013659529541186984
1683.421378134776,1683.421378134776,1.000013411189971,0.00013660421110765053
1683.4283226191474,1683.4283226191474,1.0001144418014072,0.00013660760309833182
1683.435267103379,1683.435267103379,1.0000934822402723,0.00013660084561450248
1683.4422115875175,1683.4422115875175,1.0002709539076646,0.0001365975486987985
1683.4491560715164,1683.4491560715164,1.0000322931442303,0.0001366015476929984
1683.4561005553758,1683.4561005553758,0.9999984279910574,0.00013658247910191678
1683.463045039188,1683.463045039188,0.999997913092086,0.0001365985108050317
1683.4699895228143,1683.4699895228143,0.9999498480488634,0.00013658812877259438
1683.4769340063474,1683.4769340063474,0.9999970334487991,0.00013657698358647763
1683.4838784897408,1683.4838784897408,0.9998743575205626,0.000136604066914313
1683.490822973134,1683.490822973134,0.9998824165657343,0.00013657387181248133
1683.4977674563877,1683.4977674563877,0.999709777176558,0.00013655576741230377
1683.5047119395488,1683.5047119395488,1.0001464108713531,0.00013656814363309917
1683.5116564225234,1683.5116564225234,1.000040436717186,0.00013660799010841633
1683.5186009054974,1683.5186009054974,1.000185605224786,0.00013655386746889826
1683.525545388285,1683.525545388285,1.0000575556956295,0.00013657715819020505
1683.5324898710267,1683.5324898710267,1.0000387539975037,0.00013653550014410294
1683.539434353722,1683.539434353722,1.000117311682698,0.00013657424898093131
1683.5463788362304,1683.5463788362304,1.000045320543989,0.0001365235205140621
1683.5536010979818,1683.5536010979818,0.9997553636645214,0.00013648741181758803
1683.5616566974604,1683.5616566974604,0.9999504245412394,0.00013654613981450332
1683.5711011932926,1683.5711011932926,0.9998621400906076,0.00013651088729195498
1683.5797123512566,1683.5797123512566,1.0002069342773041,0.00013655703201201466
1683.5872123917848,1683.5872123917848,1.00003645856889,0.00013654423453268591
1683.5949902116026,1683.5949902116026,0.9999933992024556,0.00013649374155119733
1683.6019346934595,1683.6019346934595,0.9999998195490922,0.00013645336833532963
1683.6088791752231,1683.6088791752231,0.9998771553101078,0.00013643878431994136
1683.6186014495986,1683.6186014495986,0.999946961071706,0.00013653070058175946
1683.6255459311294,1683.6255459311294,0.9998773458920244,0.00013649211576644498
1683.632490412614,1683.632490412614,0.9999809781196106,0.00013650793205075847
1683.6399904525836,1683.6399904525836,1.0006381013214267,0.00013648879693109936
1683.647768271702,1683.647768271702,0.9998587634208354,0.00013651962898468404
1683.6547127530005,1683.6547127530005,1.0005742778028281,0.00013645144528980107
1683.6616572341122,1683.6616572341122,0.9997979251558858,0.00013644795908400911
1683.668601715317,1683.668601715317,1.000043473415555,0.00013647847016325568
1683.6755461962887,1683.6755461962887,0.9995914263379703,0.00013646521350152977
1683.6824906773072,1683.6824906773072,0.9998144116430104,0.00013648308452536467
1683.6894351582328,1683.6894351582328,1.0000683103691386,0.0001365212915984535
1683.6963796391115,1683.6963796391115,1.0001112099208231,0.00013652097562780825
1683.7033241198974,1683.7033241198974,1.0001683639342918,0.0001365447523960802
1683.7102686005433,1683.7102686005433,1.0002790972776587,0.00013657432774650977
1683.717213081236,1683.717213081236,1.0000645655544464,0.00013657778056777652
1683.7241575618355,1683.7241575618355,0.9999819175449918,0.00013651706482315778
1683.7311020423883,1683.7311020423883,1.000175254225789,0.00013657075779019694
1683.7380465228016,1683.7380465228016,0.9998464271549873,0.00013652736619528588
1683.7449910032149,1683.7449910032149,0.9998387665625081,0.00013650230652736744
1683.7519354835354,1683.7519354835354,0.99978190542033,0.00013656425163223208
1683.7588799638083,1683.7588799638083,0.9998588540540447,0.00013656875899659292
1683.765824444082,1683.765824444082,1.0001109079716106,0.00013660273303922344
1683.7727689242154,1683.7727689242154,1.0001565040143425,0.00013658124146863763
1683.779713404303,1683.779713404303,0.9997417153206116,0.00013652708809968353
1683.78665788439,1683.78665788439,1.0001559923665893,0.00013660553689062493
1683.7936023643374,1683.7936023643374,0.9999556462287966,0.00013656347710251708
1683.8005468442384,1683.8005468442384,0.9998105206170319,0.00013658073741870395
1683.8074913241398,1683.8074913241398,1.0003016517448495,0.00013659608412714498
1683.8144358040408,1683.8144358040408,0.999921144675351,0.00013654367036590115
1683.8213802837085,1683.8213802837085,1.000288015867142,0.00013659657890786121
1683.82832476347,1683.82832476347,1.000015916179319,0.00013657976329980857
1683.835269243138,1683.835269243138,0.9998678115362993,0.0001365603745069242
1683.8422137227597,1683.8422137227597,0.9997519361535735,0.00013654975376677575
1683.8491582022878,1683.8491582022878,0.9998257046898733,0.00013657522592390507
1683.8561026818165,1683.8561026818165,0.9998484198840838,0.00013653164773053163
1683.8630471612985,1683.8630471612985,1.0000143655689473,0.00013656649031514796
1683.8699916407343,1683.8699916407343,1.0001204680954212,0.00013655424703985726
1683.8769361200762,1683.8769361200762,1.0000855232829733,0.00013659274536822552
1683.8838805993714,1683.8838805993714,1.0003328878090607,0.00013659029227888227
1683.890825078714,1683.890825078714,0.9998924082050825,0.0001365297558649857
1683.9024918037364,1683.9024918037364,1.0000071067496363,0.00013654057481667217
1683.9102696203875,1683.9102696203875,0.999889088432259,0.0001365044324777094
1683.9172140994967,1683.9172140994967,0.9998267283785236,0.0001365326632917666
1683.924158578513,1683.924158578513,1.000002457054852,0.00013659163076714046
1683.9311030575295,1683.9311030575295,0.9999239843705088,0.00013654920930530968
1683.938047536499,1683.938047536499,1.0000676340637749,0.00013660449071435814
1683.944992015422,1683.944992015422,0.9999790482709097,0.0001365901678941235
1683.951936494252,1683.951936494252,1.0001623286560293,0.00013659288758374643
1683.9588809731752,1683.9588809731752,0.9998711159263862,0.00013657924629619918
1683.965825451912,1683.965825451912,0.9999838925208996,0.0001365560830286231
1683.9727699306488,1683.9727699306488,1.0001173791029123,0.0001365593845567053
1683.9797144093857,1683.9797144093857,0.9998895082719592,0.0001365879898130859
1683.9866588880764,1683.9866588880764,1.0001098360105627,0.0001365791242276459
1683.9936033666265,1683.9936033666265,0.9998923946924932,0.00013654749284928706
1684.0005478452235,1684.0005478452235,0.9999122844698765,0.0001366006774489614
1684.0074923237742,1684.0074923237742,1.0000684271042677,0.00013659512934325094
1684.0144368022782,1684.0144368022782,0.9999211413453424,0.0001365966995362363
1684.0213812807356,1684.0213812807356,1.0003820992330714,0.00013659492681868587
1684.0283257591932,1684.0283257591932,0.999901603827426,0.0001365593705891096
1684.0352702375574,1684.0352702375574,1.0001950659538303,0.00013657913172469399
1684.0422147159213,1684.0422147159213,0.9997276373079306,0.00013656912147510454
1684.0491591942396,1684.0491591942396,0.9998109673338915,0.00013656754728526537
1684.0574925681644,1684.0574925681644,0.9999793623836915,0.00013657593680830508
1684.0644370463888,1684.0644370463888,1.0000107884342764,0.0001365494866145402
1684.0713815245667,1684.0713815245667,1.0000808990224732,0.00013650921932204457
1684.0783260027456,1684.0783260027456,0.9999446516416771,0.00013651692247083013
1684.0852704808772,1684.0852704808772,1.0001088967445124,0.00013654033746199882
1684.092214958915,1684.092214958915,0.9999610763295532,0.00013652312986581918
1684.0991594369996,1684.0991594369996,1.000297381926671,0.00013655396689869024
1684.1061039150386,1684.1061039150386,1.0001717321782075,0.00013647280653257868
1684.1130483929835,1684.1130483929835,0.9999485114601351,0.00013652257868516877
1684.1199928709284,1684.1199928709284,0.9994904677685821,0.00013638766933099942
1684.1269373488274,1684.1269373488274,1.0002617282386965,0.0001365116456666042
1684.1338818267263,1684.1338818267263,0.9999833844013335,0.00013647906538824208
1684.1408263045785,1684.1408263045785,1.0002812878986402,0.0001365451645604009
1684.1477707823833,1684.1477707823833,0.9999032894455187,0.00013653803897933415
1684.1547152601422,1684.1547152601422,1.0002506024178226,0.00013653795721474212
1684.161659737855,1684.161659737855,0.999921772371778,0.00013650108737709704
1684.1686042156605,1684.1686042156605,1.0001099453873956,0.0001364811977344718
1684.175548693233,1684.175548693233,0.9999083638794769,0.0001365400294184394
1684.1824931709918,1684.1824931709918,0.9995854012765317,0.000136497170255533
1684.1894376486114,1684.1894376486114,1.0000057466949173,0.0001365313256409015
1684.196382126184,1684.196382126184,1.0000240824439188,0.00013651098120181967
1684.2033266037568,1684.2033266037568,1.0001269477438566,0.00013652593750856508
1684.2102710811894,1684.2102710811894,0.9998653048592683,0.0001365250020504358
1684.217215558669,1684.217215558669,1.000327591420549,0.0001365850580479279
1684.2241600361954,1684.2241600361954,1.0002143597570676,0.0001366047282515477
1684.2311045135816,1684.2311045135816,1.0003679713093472,0.00013657801138832682
1684.2380489909679,1684.2380489909679,1.000217592561714,0.00013654501316348253
1684.2449934683543,1684.2449934683543,0.9985940231412005,0.00013651445364142514
1684.2519379456942,1684.2519379456942,0.9941282364071308,0.00013625991328080283
1684.2588824230345,1684.2588824230345,0.9895991380717744,0.0001360496467935331
1684.2658269002804,1684.2658269002804,0.9878497228515453,0.0001359026962047338
1684.272771377527,1684.272771377527,0.9879110054697563,0.0001359068882518474
1684.279715854728,1684.279715854728,0.9875171645352984,0.0001358982690232297
1684.2866603319278,1684.2866603319278,0.9871325679436864,0.00013581197307117242
1684.2936048090814,1684.2936048090814,0.9872054912578289,0.00013590991118672707
1684.300549286235,1684.300549286235,0.9874286523630319,0.00013589661098769868
1684.307493763342,1684.307493763342,0.987650671727992,0.00013587055934442802
1684.3144382404491,1684.3144382404491,0.9877928057754006,0.0001359912273096648
1684.321382717463,1684.321382717463,0.987605289915451,0.00013603607079006443
1684.3283271945231,1684.3283271945231,0.9875689991142694,0.00013598464664825745
1684.3352716715367,1684.3352716715367,0.9879179945210923,0.00013602889432491478
1684.3422161485046,1684.3422161485046,0.9884302089550161,0.00013610451861521762
1684.3491606253788,1684.3491606253788,0.988478651235954,0.00013611833475255284
1684.3561051022994,1684.3561051022994,0.9889620848690346,0.00013615009074410527
1684.36304957922,1684.36304957922,0.9897315711646504,0.0001362527853640394
1684.3699940560477,1684.3699940560477,0.9915341321548755,0.00013638020730730128
1684.3769385329222,1684.3769385329222,0.9967057576767905,0.0001366770391406293
1684.383883009703,1684.383883009703,1.0010085370076938,0.00013688112850536335
1684.3908274864837,1684.3908274864837,1.0007002796275448,0.00013674148471791886
1684.3977719632185,1684.3977719632185,1.0001001564754097,0.0001366967768549904
1684.4047164399533,1684.4047164399533,0.9997680477958989,0.000136609271370431
1684.4116609166408,1684.4116609166408,1.0002530847477247,0.00013667954915873176
1684.4186053933288,1684.4186053933288,1.0002066603605735,0.00013668027493744702
1684.4255498699706,1684.4255498699706,1.0002329103772454,0.00013664896355842794
1684.4324943466115,1684.4324943466115,0.999854356363987,0.0001365620421647893
1684.439438823206,1684.439438823206,0.999769866059449,0.00013661085126361085
1684.446383299708,1684.446383299708,1.0002378898257505,0.00013663428360342027
1684.453327776349,1684.453327776349,1.000125666615244,0.00013665762086294205
1684.460272252758,1684.460272252758,1.000164153160895,0.000136627962983443
1684.4672167293993,1684.4672167293993,0.9999780168565877,0.00013669297747417744
1684.4741612058078,1684.4741612058078,0.9999508841788695,0.00013669388103060306
1684.4811056822164,1684.4811056822164,1.0000875504046787,0.00013663171183007588
1684.4880501586244,1684.4880501586244,0.9997856258596608,0.00013666934811305294
1684.494994635033,1684.494994635033,1.000082509351858,0.0001366799483533521
1684.5019391114415,1684.5019391114415,0.9999420630228301,0.00013668187131656996
1684.5088835878037,1684.5088835878037,1.000254577868228,0.0001366731481177837
1684.5158280640262,1684.5158280640262,1.000134786905849,0.00013669832265970094
1684.5227725404347,1684.5227725404347,0.999823364008332,0.00013666677028738829
1684.52971701661,1684.52971701661,0.9999747760687333,0.00013668603041748132
1684.536661492879,1684.536661492879,0.9998416516107911,0.00013668589178929242
1684.5436059691478,1684.5436059691478,1.0002550187846624,0.00013669428452962347
1684.5505504453236,1684.5505504453236,0.999652350679245,0.00013669712580052364
1684.5574949214993,1684.5574949214993,1.0000251155994242,0.00013671924979542197
1684.5644393976283,1684.5644393976283,1.0000913512988912,0.000136713733237168
1684.5713838737574,1684.5713838737574,0.9999688182720444,0.00013669762527268315
1684.5783283498865,1684.5783283498865,1.0000490831008078,0.00013668877611369348
1684.5852728259226,1684.5852728259226,1.0001856214529181,0.00013665466840378563
1684.5922173020517,1684.5922173020517,1.0001214704838368,0.00013671287129050715
1684.5991617780412,1684.5991617780412,0.9998051345039638,0.0001366510251519204
1684.606106254077,1684.606106254077,1.000046224696251,0.00013670545221613762
1684.6130507300663,1684.6130507300663,1.0000030510335227,0.0001366873193001591
1684.6199952060094,1684.6199952060094,1.0002007687511547,0.00013666237878325768
1684.6269396819528,1684.6269396819528,0.9997232359106626,0.00013674111518990206
1684.6338841578952,1684.6338841578952,0.9997910365607247,0.00013673911150938133
1684.6408286337446,1684.6408286337446,0.9999987233491279,0.0001367157850943178
1684.647773109688,1684.647773109688,0.9999142475368851,0.0001367319992104573
1684.654717585491,1684.654717585491,1.0004373909730562,0.0001367859580379608
1684.6616620613404,1684.6616620613404,0.9998344290994791,0.00013671396951416378
1684.668606537144,1684.668606537144,1.000269242463202,0.0001367886604989336
1684.6755510129005,1684.6755510129005,0.9997391259938071,0.0001367515270691504
1684.6824954886574,1684.6824954886574,0.9999992364316492,0.0001367617573179448
1684.6894399644139,1684.6894399644139,0.9999679827405682,0.0001367504527459851
1684.6963844401234,1684.6963844401234,0.9998789691696792,0.00013674525473846667
1684.7033289157869,1684.7033289157869,0.9998962691275898,0.00013673996294187758
1684.7102733914974,1684.7102733914974,1.0001848879037232,0.0001367426917061289
1684.7172178671603,1684.7172178671603,0.9998138869360194,0.00013675774745378397
1684.7241623427774,1684.7241623427774,1.0002725975195403,0.00013675529928003618
1684.7311068183476,1684.7311068183476,1.0000184884019483,0.0001367299976673051
1684.7380512939185,1684.7380512939185,1.0003664968119534,0.00013678375207090105
1684.7449957694887,1684.7449957694887,0.9997976556551997,0.00013670156337015104
1684.751940245012,1684.751940245012,0.999951794364662,0.00013678311765807414
1684.758884720536,1684.758884720536,0.9998841107992794,0.00013671768105748966
1684.7658291960602,1684.7658291960602,0.9999929287967513,0.00013679558782607823
1684.7727736714903,1684.7727736714903,0.9998799637065037,0.00013678029166888677
1684.7797181469675,1684.7797181469675,1.0000132434652749,0.00013677161657835927
1684.7866626223513,1684.7866626223513,0.9998959502457472,0.00013668377506942752
1684.7936070977826,1684.7936070977826,1.0001287181419292,0.00013675619820414461
1684.800551573213,1684.800551573213,1.0000070215865615,0.00013672581341192286
1684.8074960485035,1684.8074960485035,1.000021611529548,0.00013678101153740768
1684.8144405238877,1684.8144405238877,0.9999964484709029,0.0001367831344379398
1684.8213849992258,1684.8213849992258,1.000029170344849,0.0001367697907708476
1684.82832947447,1684.82832947447,1.0001757120479593,0.00013680255430319064
1684.8352739497138,1684.8352739497138,0.9999594321427718,0.00013674145590098977
1684.842218424959,1684.842218424959,0.9999674672420344,0.00013672017285170659
1684.849162900203,1684.849162900203,0.999953627056539,0.0001367764673390043
1684.8561073754477,1684.8561073754477,0.9997582585009379,0.00013677365681635442
1684.8630518506914,1684.8630518506914,1.0001648972994448,0.000136819483824001
1684.8699963258427,1684.8699963258427,0.9998222889444088,0.00013679673168804485
1684.8769408009473,1684.8769408009473,1.000249847519735,0.00013678448029599014
1684.8838852761455,1684.8838852761455,0.9999014575364301,0.00013677755695573585
1684.8908297512032,1684.8908297512032,1.0000046979450214,0.00013676448863738603
1684.8977742263082,1684.8977742263082,1.0001814643242701,0.0001367275667762007
1684.9047187013664,1684.9047187013664,0.9997827153673071,0.00013672423209623406
1684.911663176424,1684.911663176424,0.9999630912640989,0.0001366915706070321
1684.9186076514357,1684.9186076514357,1.0002170439970508,0.00013677895441181878
1684.9255521264477,1684.9255521264477,1.000044836116155,0.0001368146110880863
1684.9324966014126,1684.9324966014126,1.0000207207167082,0.00013676891920299202
1684.9394410763773,1684.9394410763773,0.9999351340937122,0.0001368032361551724
1684.946385551296,1684.946385551296,0.9999458898143215,0.00013678876776770672
1684.9533300262144,1684.9533300262144,0.9997005790029838,0.00013680740645308223
1684.9602745011332,1684.9602745011332,0.9999733102282914,0.0001367842152834423
1684.9672189760045,1684.9672189760045,1.000017096421579,0.00013679728275094996
1684.9741634508762,1684.9741634508762,1.0001276223455364,0.00013681141962921232
1684.981107925655,1684.981107925655,1.000448921293728,0.0001368116521610363
1684.9880524004802,1684.9880524004802,0.9998144023445938,0.00013678741390325938
1684.9949968753056,1684.9949968753056,0.9999258407866778,0.00013678420330270018
1685.0019413500377,1685.0019413500377,1.0001640828252973,0.0001368053846033237
1685.0088858248164,1685.0088858248164,0.9999429841268339,0.00013679552319543792
1685.015830299549,1685.015830299549,0.9995619307291307,0.00013678191469547511
1685.0227747742806,1685.0227747742806,1.0000232235201931,0.00013678090754317562
1685.0297192489197,1685.0297192489197,1.0001797811695021,0.00013677826593071159
1685.0366637236052,1685.0366637236052,1.000215427199051,0.0001368113822193542
1685.0436081982443,1685.0436081982443,1.0002481701176718,0.00013677628932838408
1685.0505526728834,1685.0505526728834,0.999551475462581,0.00013675135070231027
1685.0574971474755,1685.0574971474755,0.9998338619083628,0.0001367787752362304
1685.0644416220687,1685.0644416220687,1.0001600317778943,0.00013680567843840863
1685.071386096614,1685.071386096614,1.0001173351686379,0.00013677869685232056
1685.07833057116,1685.07833057116,0.9999084914704062,0.00013677655764281042
1685.0852750457057,1685.0852750457057,0.9998898886627984,0.0001367512766578625
1685.0922195202056,1685.0922195202056,1.000047898877848,0.00013680674634242276
1685.0991639947047,1685.0991639947047,1.0001760504392239,0.00013683569859015602
1685.1061084691573,1685.1061084691573,0.9999946689833751,0.00013676813062094074
1685.1130529435632,1685.1130529435632,1.0001599755516257,0.0001367959498701572
1685.1199974180163,1685.1199974180163,0.9997578567796241,0.00013680489601771096
1685.1269418924226,1685.1269418924226,1.00007434539242,0.00013680634814735952
