time,time,flux,flux_err
1410.910784219698,1410.910784219698,1.0000671685091163,0.00012877546106939726
1410.91911759515,1410.91911759515,0.9997882326170916,0.00012875221206845561
1410.9274509705253,1410.9274509705253,1.0001507718662077,0.00012877134476934514
1410.935089897698,1410.935089897698,0.9999366424701244,0.00011753987441339144
1410.942034376764,1410.942034376764,1.000098251808548,0.00011754931171237496
1410.9489788557355,1410.9489788557355,1.000248380572009,0.00011754099425998569
1410.9559233344285,1410.9559233344285,1.0001122095200168,0.00011753648420844028
1410.9634233714278,1410.9634233714278,1.0000585461685845,0.00011753553054596598
1410.9745345368142,1410.9745345368142,1.0001348970368187,0.0001174991842413649
1410.9878679347753,1410.9878679347753,0.9999873795825064,0.00011752287395881934
1410.9948124127234,1410.9948124127234,0.9999913312800073,0.0001175095260012849
1411.0067569143123,1411.0067569143123,0.9999290229120394,0.00011748702536502077
1411.0142569499149,1411.0142569499149,1.0000121710565362,0.0001175100584388053
1411.02120142721,1411.02120142721,0.999957196608376,0.00011751583941161086
1411.0281459044133,1411.0281459044133,0.9998931697481972,0.00011750403060851519
1411.035090381336,1411.035090381336,1.0001223397440069,0.00011750681158929244
1411.0420348581658,1411.0420348581658,0.9998526708769498,0.00011751484270055873
1411.0492571139166,1411.0492571139166,1.0001510954032278,0.00011753303046493671
1411.057312706614,1411.057312706614,1.0001166071712702,0.00011749185400325691
1411.0642571828862,1411.0642571828862,0.9998712193350224,0.00011752868190074087
1411.0712016590635,1411.0712016590635,1.0000929552432147,0.00011751884165732555
1411.0781461349627,1411.0781461349627,0.9998145875577522,0.00011752473541140614
1411.0850906108612,1411.0850906108612,1.00000764661146,0.00011751075229623318
1411.09203508648,1411.09203508648,1.0001716769038491,0.00011753142615160085
1411.0989795621003,1411.0989795621003,0.9997988975020439,0.00011753919125320762
1411.1059240374395,1411.1059240374395,1.000113788340765,0.00011754523776525045
1411.1128685125004,1411.1128685125004,0.9999553732573336,0.00011752283680658564
1411.1198129875609,1411.1198129875609,1.0001352625779751,0.00011754780130923096
1411.1267574624344,1411.1267574624344,0.999936310514955,0.00011753563189276898
1411.1337019371233,1411.1337019371233,0.9999147694294006,0.00011751630668869366
1411.1406464116244,1411.1406464116244,1.0001527120282252,0.00011755583122592018
1411.1475908860332,1411.1475908860332,0.999879097374847,0.00011751503769255635
1411.1545353602557,1411.1545353602557,1.000048204116456,0.0001175523985762213
1411.1614798342912,1411.1614798342912,0.9999713832408105,0.00011752604011542182
1411.1684243082348,1411.1684243082348,1.0000117253428065,0.00011753810126436401
1411.175368781898,1411.175368781898,0.9997732888419952,0.00011751650384356266
1411.1823132555614,1411.1823132555614,1.0001604696042254,0.00011754862831248737
1411.189257728946,1411.189257728946,1.0002647741274802,0.00011755187780026179
1411.1962022022362,1411.1962022022362,1.000028119833182,0.00011754785361568786
1411.2031466754347,1411.2031466754347,1.000191788578893,0.00011756203662686876
1411.2100911482598,1411.2100911482598,0.9999932323044313,0.00011756025086897264
1411.217035620992,1411.217035620992,0.9999071983234777,0.0001175379165766886
1411.223980093631,1411.223980093631,0.9998918719589753,0.00011752827141600411
1411.2309245659903,1411.2309245659903,0.9999168723892067,0.000117546946675151
1411.2378690383507,1411.2378690383507,1.0000589639316861,0.00011755372356564999
1411.2448135105237,1411.2448135105237,1.0000414722314317,0.00011756131810076308
1411.251757982418,1411.251757982418,1.0000764421813404,0.00011757733155347318
1411.2587024543118,1411.2587024543118,1.0000050185543687,0.00011757263486423457
1411.2656469259264,1411.2656469259264,1.0000546962248733,0.0001175772053937934
1411.2725913974484,1411.2725913974484,1.000067769730426,0.00011757290959383891
1411.27953586869,1411.27953586869,0.9997991728092958,0.00011754838923817918
1411.286480339932,1411.286480339932,0.9999886069205315,0.00011756944542291291
1411.293424810988,1411.293424810988,0.9999744221633339,0.00011755618477154318
1411.3003692817642,1411.3003692817642,1.0001965201645908,0.00011758339909296277
1411.307313752448,1411.307313752448,0.999690434921001,0.00011755266157060361
1411.3142582231308,1411.3142582231308,0.9999082757494524,0.00011758784081591297
1411.3212026933488,1411.3212026933488,1.0000864313369031,0.00011759015277672098
1411.3281471636594,1411.3281471636594,1.0001314099763436,0.00011759180680839434
1411.3350916335974,1411.3350916335974,1.0001134251143837,0.00011756462627954889
1411.3420361035364,1411.3420361035364,1.000017949150363,0.00011756603818498029
1411.3489805732875,1411.3489805732875,0.9997518309885514,0.00011756549096766545
1411.3559250429466,1411.3559250429466,1.000187383056465,0.00011758423817147423
1411.3628695123261,1411.3628695123261,1.0000802474861379,0.00011758306446843676
1411.3698139816122,1411.3698139816122,1.0001726995043794,0.00011757658896347891
1411.3767584507127,1411.3767584507127,0.9997990492727586,0.00011756403495095924
1411.383702919626,1411.383702919626,0.9998892355297422,0.00011758416935234484
1411.39064738854,1411.39064738854,1.0002277031909663,0.00011760146047347488
1411.3975918570816,1411.3975918570816,0.9999995949750842,0.00011757525087684223
1411.4045363257155,1411.4045363257155,0.9999414724555551,0.00011757228873092508
1411.411480794071,1411.411480794071,0.9999590782619453,0.00011758206905434566
1411.4184252619598,1411.4184252619598,1.000091013613479,0.00011759641048310633
1411.425369730129,1411.425369730129,1.0001644076483198,0.00011758671407954857
1411.4323141979248,1411.4323141979248,0.9999431999456624,0.00011758541602851897
1411.4392586656274,1411.4392586656274,0.9997291279563951,0.00011757104331427989
1411.4462031332378,1411.4462031332378,1.0001245170829645,0.00011759816826758805
1411.453147600568,1411.453147600568,0.9999287049149984,0.00011757978875841272
1411.460092067806,1411.460092067806,1.0000584018444925,0.00011759848009887275
1411.4670365349498,1411.4670365349498,1.0000478632999326,0.00011759541234401823
1411.473981001815,1411.473981001815,1.0001308886715412,0.00011761122640231783
1411.4809254685867,1411.4809254685867,1.0001326399065207,0.00011761614467011572
1411.4878699352653,1411.4878699352653,1.0001322152743728,0.00011763243853080611
1411.494814401758,1411.494814401758,0.9999808622523,0.00011761446298908697
1411.5017588680635,1411.5017588680635,0.9997182291327217,0.00011760996072328923
1411.5087033342766,1411.5087033342766,0.999755745316613,0.00011761930857061796
1411.5156478003032,1411.5156478003032,0.9999271879603207,0.00011760957466708848
1411.5225922660502,1411.5225922660502,1.0002173773016183,0.0001176390588404337
1411.529536731798,1411.529536731798,1.000522876724638,0.00011767136732752246
1411.5364811972654,1411.5364811972654,0.9999408522043118,0.00011763488820996701
1411.543425662734,1411.543425662734,0.9998347685559349,0.00011761415698261911
1411.5503701279222,1411.5503701279222,1.0001547101542716,0.00011763859937683153
1411.5573145930175,1411.5573145930175,1.0001697426990037,0.00011763337558079492
1411.5642590579268,1411.5642590579268,0.9998189211321069,0.00011762017551901363
1411.571203522742,1411.571203522742,1.00007540832073,0.0001176370831786916
1411.5781479873726,1411.5781479873726,1.0000128067614709,0.00011760509663931884
1411.5850924519086,1411.5850924519086,0.9999413094209861,0.00011761775914550248
1411.592036916166,1411.592036916166,1.0000643673503187,0.00011762775340093444
1411.5989813804235,1411.5989813804235,0.9999825664093551,0.00011764444618224492
1411.6059258444009,1411.6059258444009,1.0001134870122832,0.0001176458791263602
1411.6128703083791,1411.6128703083791,0.999961066161162,0.00011763393868425304
1411.6198147720772,1411.6198147720772,0.9999159241861308,0.00011763875432441231
1411.6267592356824,1411.6267592356824,0.9999974723755578,0.00011764607561247286
1411.6337036990085,1411.6337036990085,1.0000536581771635,0.00011765382001208621
1411.640648162334,1411.640648162334,1.0003132988554395,0.00011767534957249704
1411.647592625474,1411.647592625474,0.9997047191596214,0.00011763286002772554
1411.6545370884269,1411.6545370884269,0.999929333548784,0.00011765986089400579
1411.6614815512874,1411.6614815512874,0.9999271269152423,0.00011764913937804461
1411.6684260139612,1411.6684260139612,0.9999637180479539,0.00011766025714852648
1411.675370476449,1411.675370476449,1.0000064048912596,0.00011765750433402532
1411.6823149389368,1411.6823149389368,1.0000178442440293,0.0001176511279100774
1411.6892594011447,1411.6892594011447,0.9999919018348006,0.00011765666143846478
1411.6962038632605,1411.6962038632605,0.9999601645962268,0.00011765840896525172
1411.7031483251885,1411.7031483251885,1.0002126990454936,0.00011767407660752879
1411.7100927870247,1411.7100927870247,1.0002212281361644,0.00011766225457185086
1411.7170372486742,1411.7170372486742,0.9999398437980522,0.00011765475821577244
1411.7239817103232,1411.7239817103232,0.9997572790290228,0.00011764262302643743
1411.7309261716941,1411.7309261716941,1.000058534736885,0.00011766509993361418
1411.7378706326908,1411.7378706326908,1.000077690158233,0.00011766072186491022
1411.744815093875,1411.744815093875,1.0003058619584155,0.00011766688259843032
1411.7517595547793,1411.7517595547793,1.0000387149241552,0.00011766857247513492
1411.7587040155906,1411.7587040155906,1.0000961915164417,0.00011766994791941657
1411.765648476216,1411.765648476216,1.0001531359268891,0.0001176815888508071
1411.7725929367473,1411.7725929367473,1.0000780115224697,0.00011767431398941553
1411.7795373970002,1411.7795373970002,0.9999543480273987,0.00011767462872259562
1411.7864818571595,1411.7864818571595,0.9998186333764879,0.00011766277593638785
1411.7934263173188,1411.7934263173188,1.0001450233803368,0.00011768497312336396
1411.8003707772918,1411.8003707772918,0.9999683566768418,0.00011768355278016363
1411.8073152369852,1411.8073152369852,0.9999114157920863,0.00011766953181374844
1411.8142596966795,1411.8142596966795,1.0002566541705875,0.0001176916443094439
1411.8212041560935,1411.8212041560935,1.0000480529355316,0.00011767900095531465
1411.8281486155079,1411.8281486155079,0.9997761945894208,0.00011765607426783731
1411.8350930745496,1411.8350930745496,1.000077876923614,0.00011768452576000485
1411.8420375335913,1411.8420375335913,1.0000528437682488,0.0001176688945806371
1411.8489819926335,1411.8489819926335,1.000085603739258,0.00011767889206457383
1411.8559264514884,1411.8559264514884,0.9999706870044858,0.00011767956438636796
1411.862870910065,1411.862870910065,1.0000981543563314,0.00011768836820216918
1411.8698153685477,1411.8698153685477,1.0000306746569625,0.00011770002497353165
1411.876759826938,1411.876759826938,0.9999760251425442,0.00011768452615083802
1411.8837042851414,1411.8837042851414,0.999831971298436,0.00011768245168305224
1411.8906487432516,1411.8906487432516,0.999888917480717,0.00011768354461083716
1411.8975932011763,1411.8975932011763,1.0000330510703108,0.0001177008954858707
1411.904537659007,1411.904537659007,1.0000809407016213,0.00011770360479737176
1411.911482116559,1411.911482116559,1.0000886355822693,0.00011770225281351268
1411.9184265741105,1411.9184265741105,0.9999317496607516,0.00011767475272705214
1411.925371031569,1411.925371031569,0.9999150034071149,0.00011769565943837574
1411.9323154887484,1411.9323154887484,0.9998825356917591,0.000117697052228545
1411.9392599457408,1411.9392599457408,1.0002605800982565,0.00011771428215079324
1411.9462044029206,1411.9462044029206,1.0000309757590145,0.00011768803451743869
1411.9531488596333,1411.9531488596333,0.9999286853199101,0.00011769139976455233
1411.960093316347,1411.960093316347,0.9998480776738905,0.00011769832593967697
1411.9670377728744,1411.9670377728744,1.0001432771579792,0.00011771061426325731
1411.973982229215,1411.973982229215,1.0002364114521956,0.00011771802311846209
1411.9809266854631,1411.9809266854631,0.9999633936938885,0.00011768555781206903
1411.9878711416175,1411.9878711416175,0.9999452390813905,0.00011770620396977944
1411.9948155975865,1411.9948155975865,0.9999264507052571,0.00011769688847577869
1412.001760053461,1412.001760053461,0.9999255553057388,0.00011769569983454027
1412.0087045092441,1412.0087045092441,0.9998281026491755,0.00011769647885412406
1412.0156489648396,1412.0156489648396,1.0000346633025807,0.00011770963268579622
1412.0225934202492,1412.0225934202492,0.9999871530271729,0.00011771184093537686
1412.029537875566,1412.029537875566,1.00004979971891,0.00011771594213211818
1412.0364823306954,1412.0364823306954,1.000163272907502,0.00011771870350286145
1412.0434267858268,1412.0434267858268,1.0000032435339268,0.00011769660488421118
1412.0503712406767,1412.0503712406767,0.9999318204722991,0.00011768864612222792
1412.0573156954345,1412.0573156954345,1.0001454966937806,0.0001177135160145874
1412.0642601500992,1412.0642601500992,0.9999049224978471,0.00011771309056120383
1412.0712046046706,1412.0712046046706,0.9998348934248746,0.00011771094673945221
1412.0781490590562,1412.0781490590562,1.0000822794217696,0.00011772602964023518
1412.0850935130682,1412.0850935130682,0.9999879883934009,0.00011771683670494838
1412.0920379672675,1412.0920379672675,1.0001614052160375,0.00011772586699093925
1412.098982421187,1412.098982421187,0.9998669109560684,0.00011771154480357099
1412.1059268750132,1412.1059268750132,1.0001438359115737,0.0001177270837431729
1412.1128713286532,1412.1128713286532,0.9999647138837208,0.00011772370842145646
1412.1198157822932,1412.1198157822932,0.9998459619253233,0.00011771921920655803
1412.1267602356543,1412.1267602356543,1.0000875484946652,0.00011772712415561817
1412.1337046890146,1412.1337046890146,0.9999278278840169,0.00011772657467787488
1412.1406491420967,1412.1406491420967,0.9999649747210804,0.00011772327818531187
1412.1475935951776,1412.1475935951776,1.0001905123659,0.00011772776466169627
1412.154538048166,1412.154538048166,0.9999471895804739,0.00011771731608091308
1412.1614825008746,1412.1614825008746,1.0000583335853235,0.00011774569840153453
1412.1684269534899,1412.1684269534899,0.9998939857926616,0.00011772807284720613
1412.175371406013,1412.175371406013,0.9999277454714337,0.00011772633597605502
1412.1823158584416,1412.1823158584416,1.0000605031937806,0.0001177420624889877
1412.1892603105923,1412.1892603105923,0.9999171668750154,0.0001177326604655421
1412.196204762649,1412.196204762649,0.9999204010823066,0.00011772708921989857
1412.203149214706,1412.203149214706,1.000126179018138,0.00011774757500292304
1412.210093666577,1412.210093666577,1.0000950681645915,0.00011774890625753731
1412.2170381182607,1412.2170381182607,0.9998953208401703,0.00011772700440163233
1412.2239825698523,1412.2239825698523,1.000097271717849,0.00011773704153233654
1412.23092702135,1412.23092702135,0.9999671988329955,0.00011773677546324162
1412.2378714726624,1412.2378714726624,1.0000148375778202,0.00011773455475902125
1412.2448159238804,1412.2448159238804,1.0000637498646578,0.00011772491319753534
1412.2517603750061,1412.2517603750061,0.9999211265077435,0.00011772631807148747
1412.2603714941597,1412.2603714941597,0.9999170859377517,0.0001176891525396024
1412.2695381690123,1412.2695381690123,1.0000933031125874,0.00011767852295183389
1412.2798159559145,1412.2798159559145,0.9999620606423033,0.00011769916774452805
1412.2900937425372,1412.2900937425372,0.9999121138168986,0.00011770897964708388
1412.2975937487095,1412.2975937487095,1.0006700527707995,0.00011769215799143334
1412.304538198904,1412.304538198904,1.0001106423002055,0.00011772352173298913
1412.3114826488184,1412.3114826488184,1.000158082236196,0.00011772298871757237
1412.3184270988268,1412.3184270988268,1.000031937660254,0.00011773581988210196
1412.3253715485548,1412.3253715485548,0.9998945382172968,0.00011771449210040054
1412.3323159978183,1412.3323159978183,0.9999319148844193,0.00011771131294079113
1412.3392604474534,1412.3392604474534,0.999851117477743,0.00011773411664843868
1412.3462048967162,1412.3462048967162,0.9999913420485447,0.00011772901330325297
1412.35314934598,1412.35314934598,1.0001468684006514,0.00011769596419743827
1412.3600937950557,1412.3600937950557,0.9998552417284579,0.00011770166590686316
1412.3670382439468,1412.3670382439468,1.0001234228765075,0.00011771872651478513
1412.3739826928368,1412.3739826928368,1.000209388351969,0.00011774948323436511
1412.3809271415412,1412.3809271415412,0.999888669379741,0.00011773317941134989
1412.387871590152,1412.387871590152,0.9999949784327036,0.00011774413053487981
1412.3948160384834,1412.3948160384834,1.0000169116745163,0.00011774600661176233
1412.4017604869084,1412.4017604869084,0.9999698630662955,0.00011773261100024094
1412.4087049350533,1412.4087049350533,0.9997973313218103,0.00011771994091517926
1412.4156493831063,1412.4156493831063,0.9999787837422156,0.00011769855247782748
1412.4225938310647,1412.4225938310647,1.0000973029227325,0.00011772446366530042
1412.429538278931,1412.429538278931,0.9999483023851374,0.0001177496453662248
1412.4364827265174,1412.4364827265174,1.000105404661673,0.00011775066127674022
1412.4434271742903,1412.4434271742903,0.9998389665217354,0.00011773002291678202
1412.4503716217837,1412.4503716217837,1.0000974975281245,0.00011774434661916938
1412.4573160689972,1412.4573160689972,1.0000558322975033,0.00011773185920456474
1412.4642605161189,1412.4642605161189,1.0008636879383501,0.00011773772845728028
1412.471204963239,1412.471204963239,0.9999954806364286,0.0001177221282886478
1412.4781494101742,1412.4781494101742,0.9998656455336004,0.00011769355663734486
1412.4850938571085,1412.4850938571085,1.0001439300126103,0.00011771893118261726
1412.4920383036701,1412.4920383036701,1.000040970339748,0.00011774314017269837
1412.498982750326,1412.498982750326,0.9999075036917244,0.00011772926643150365
1412.5059271967943,1412.5059271967943,0.9997101317671593,0.00011769783413192192
1412.512871643171,1412.512871643171,0.9998161177361895,0.00011773200769502083
1412.5198160893601,1412.5198160893601,1.000200335632318,0.00011775829572847672
1412.526760535457,1412.526760535457,1.0001440157141277,0.00011775406249731944
1412.5337049814596,1412.5337049814596,1.0001669024010431,0.00011774882233341936
1412.540649427277,1412.540649427277,0.9998213730342458,0.00011773115081775778
1412.5475938730938,1412.5475938730938,1.0000153195981714,0.00011773505526318957
1412.5545383186313,1412.5545383186313,1.0000026965512412,0.00011773474828993098
1412.561482764169,1412.561482764169,0.999838393214729,0.00011773255071601534
1412.568427209427,1412.568427209427,1.0000504070320178,0.00011773991149502412
1412.5753716548725,1412.5753716548725,1.0001745783995384,0.0001177544812790574
1412.5823161000367,1412.5823161000367,1.0001177851541923,0.00011775213308178601
1412.5892605450163,1412.5892605450163,1.0000159871580805,0.00011773704879159948
1412.5962049897153,1412.5962049897153,0.9999423146237831,0.000117744260482007
1412.6031494346012,1412.6031494346012,0.9999943123743815,0.00011773343542030384
1412.6100938792074,1412.6100938792074,0.9999740082013018,0.00011774969210920751
1412.61703832372,1412.61703832372,0.9999561843498398,0.00011774410282541648
1412.6239827681404,1412.6239827681404,0.9999663906301844,0.00011773217319498153
1412.6309272124672,1412.6309272124672,0.9998435125301917,0.00011770644311471694
1412.6378716566085,1412.6378716566085,1.0000400843013428,0.0001177543094713532
1412.6448161006551,1412.6448161006551,0.9998725503316201,0.00011773300909114959
1412.6517605446102,1412.6517605446102,0.9999680962220191,0.00011774524876731177
1412.6587049883778,1412.6587049883778,1.0000467391456378,0.00011774270054223735
1412.665649432053,1412.665649432053,1.0002079480416193,0.00011775179887118534
1412.672593875635,1412.672593875635,1.0002656980513716,0.00011776135152848349
1412.6795383191234,1412.6795383191234,1.0000105132765806,0.00011772327379024564
1412.6864827624263,1412.6864827624263,0.9997178720893537,0.0001176847251791542
