time,time,flux,flux_err
1354.1190796616702,1354.1190796616702,1.000164980332406,0.00015034035717708115
1354.1278762130096,1354.1278762130096,1.0001175097471824,0.00015034906892919756
1354.135515322844,1354.135515322844,0.9996593414438262,0.00013723892678883014
1354.1424599681482,1354.1424599681482,1.0001143720564172,0.0001372800006285911
1354.1494046131731,1354.1494046131731,0.9998241550972713,0.0001372700596876232
1354.1563492578255,1354.1563492578255,0.9999873729840282,0.00013729066706278474
1354.1632939023843,1354.1632939023843,0.999915944168654,0.00013729698550242567
1354.1702385466645,1354.1702385466645,0.9998898927611704,0.0001372970794123991
1354.1771831905712,1354.1771831905712,1.0000668744111745,0.00013732314570218481
1354.184127834386,1354.184127834386,1.000056048213653,0.0001373166084354296
1354.1910724779202,1354.1910724779202,1.0000216662927435,0.00013732214239226275
1354.1980171212685,1354.1980171212685,0.9999049183347324,0.00013730406300464736
1354.2049617642447,1354.2049617642447,1.0001160317190094,0.00013731179264220834
1354.2119064072206,1354.2119064072206,0.9999166435551308,0.00013729947044827462
1354.2188510496376,1354.2188510496376,1.0000836415194791,0.00013731543156542928
1354.2257956920548,1354.2257956920548,0.9999140688116558,0.0001372900550584186
1354.2327403341922,1354.2327403341922,1.0000115069877302,0.00013730586758703398
1354.239684976144,1354.239684976144,0.9999794343198545,0.00013730336009243642
1354.2466296178159,1354.2466296178159,0.9999286714757654,0.0001372921300368865
1354.2535742593016,1354.2535742593016,1.0001407111943992,0.00013730734438018616
1354.2605189005078,1354.2605189005078,0.999942207098836,0.00013729055605106265
1354.2674635415283,1354.2674635415283,1.0001205654884326,0.00013731533993876677
1354.2744081823616,1354.2744081823616,1.0000824183609835,0.00013730792486617527
1354.2813528229167,1354.2813528229167,1.000069620975294,0.0001372997181672528
1354.2882974631914,1354.2882974631914,0.9997753232900722,0.00013728246260097144
1354.2952421032805,1354.2952421032805,1.0001010366623937,0.00013731028970193112
1354.3021867431828,1354.3021867431828,0.9998770016591161,0.00013729418055212858
1354.3091313828988,1354.3091313828988,0.9998309854948871,0.0001372939163632388
1354.316076022336,1354.316076022336,0.999969299320834,0.00013730313724048544
1354.3230206615867,1354.3230206615867,1.0001989272681642,0.0001373251196408943
1354.3299653006507,1354.3299653006507,1.000177015524199,0.00013732457591251768
1354.3369099394358,1354.3369099394358,1.0003253306551592,0.00013733160089911386
1354.3438545781275,1354.3438545781275,0.9998277167343671,0.00013729976780835627
1354.3507992164473,1354.3507992164473,0.9998804241369592,0.0001373050622476453
1354.357743854766,1354.357743854766,0.9999180864240799,0.00013730851373225668
1354.3646884926197,1354.3646884926197,0.9998350708680922,0.00013730540595404723
1354.3716331303806,1354.3716331303806,1.0000440623688285,0.00013731980291766
1354.3785777680475,1354.3785777680475,0.9997790434843932,0.0001372939832086122
1354.3855224053427,1354.3855224053427,1.0001572689471139,0.00013731803241593337
1354.3924670425445,1354.3924670425445,1.0001014418023426,0.00013731985523580408
1354.3994116795595,1354.3994116795595,1.0000759890668767,0.00013730344296715801
1354.4063563162958,1354.4063563162958,1.0000255087209224,0.00013729986724155056
1354.4133009528455,1354.4133009528455,0.9999151517775238,0.00013728809809883418
1354.420245589209,1354.420245589209,0.999885265228994,0.00013728283997805133
1354.4271902253865,1354.4271902253865,0.9998759462637515,0.00013728151653369787
1354.4341348613768,1354.4341348613768,1.0000669168980911,0.0001372836853853532
1354.4410794970886,1354.4410794970886,1.000186034358158,0.00013729492960081645
1354.4480241326141,1354.4480241326141,1.0000563299974101,0.00013728462028864724
1354.4549687680462,1354.4549687680462,1.0001512895055114,0.00013728502876649896
1354.4619134031993,1354.4619134031993,0.9996775594878213,0.0001372507474733232
1354.4688580381655,1354.4688580381655,1.0000491302611667,0.00013727225053962653
1354.4758026730387,1354.4758026730387,1.000092948403416,0.00013728207330642527
1354.48274730754,1354.48274730754,0.999869811872923,0.00013726135227871421
1354.4896919420405,1354.4896919420405,0.9999109322645661,0.00013725441502604956
1354.4966365762623,1354.4966365762623,1.0001747114008959,0.00013727637058330076
1354.5035812102974,1354.5035812102974,0.9997578711099713,0.0001372483216701456
1354.5105258442395,1354.5105258442395,1.0003525344504236,0.00013729164561954556
1354.5174704779024,1354.5174704779024,0.9999624464743286,0.00013726429982408722
1354.5244151112854,1354.5244151112854,1.0000773725868268,0.00013726677877507197
1354.5313597445754,1354.5313597445754,0.9998984171503817,0.00013724858488851246
1354.5383043777729,1354.5383043777729,0.9999630440673734,0.00013725962086731032
1354.5452490106902,1354.5452490106902,1.0000036265409813,0.00013726102359200152
1354.5521936434216,1354.5521936434216,0.9999134116319406,0.0001372554302780682
1354.5591382760601,1354.5591382760601,0.9999022208270112,0.00013724835141252267
1354.5660829084184,1354.5660829084184,0.9997250087790498,0.00013723197330811417
1354.5730275406845,1354.5730275406845,1.000284966677911,0.0001372702992573572
1354.5799721726703,1354.5799721726703,1.000152882820673,0.00013726516489153537
1354.5869168045638,1354.5869168045638,1.0000979760525064,0.00013725714827387024
1354.5938614361778,1354.5938614361778,0.999928081183991,0.00013724414891394155
1354.6008060678846,1354.6008060678846,1.000137586085979,0.00013725540176113177
1354.6077506992187,1354.6077506992187,1.000064269884415,0.0001372596668243865
1354.6146953302737,1354.6146953302737,0.9998800513247768,0.00013724379069213956
1354.6216399613284,1354.6216399613284,0.9998644703374321,0.0001372390034745656
1354.6285845921043,1354.6285845921043,1.0000587348312033,0.00013724661051483543
1354.63552922288,1354.63552922288,0.999839437102451,0.0001372297955337817
1354.6424738532828,1354.6424738532828,0.9996709590732884,0.000137230983645083
1354.649418483593,1354.649418483593,1.0002904393954513,0.00013725345949068315
1354.6563631138094,1354.6563631138094,1.0001588786028095,0.00013725262774922736
1354.6633077438403,1354.6633077438403,1.000215239273409,0.00013724809334555193
1354.6702523735917,1354.6702523735917,1.0000098312070176,0.00013723811411155726
1354.6771970033421,1354.6771970033421,0.9997299903205864,0.00013722498228140354
1354.6841416327213,1354.6841416327213,1.000067250219397,0.00013724856492990299
1354.6910862621928,1354.6910862621928,0.9999662849363304,0.00013723622565823922
1354.6980308911984,1354.6980308911984,1.0002028659424982,0.00013725957218540825
1354.704975520205,1354.704975520205,0.9998487814887822,0.00013723693674896683
1354.711920149211,1354.711920149211,0.9999744921213741,0.0001372516126419921
1354.7188647778444,1354.7188647778444,0.999882680835188,0.00013723951708191403
1354.725809406385,1354.725809406385,1.0000894460596839,0.00013724978359803174
1354.732754034739,1354.732754034739,1.0000662510100828,0.00013724955871738558
1354.7396986630004,1354.7396986630004,0.9999625626690711,0.00013724520941155893
1354.7466432910749,1354.7466432910749,0.9999553319739712,0.00013723555144592878
1354.7535879189631,1354.7535879189631,0.9999320565219045,0.00013723586034619195
1354.7605325467587,1354.7605325467587,0.9999491075654288,0.0001372264222350938
1354.7674771742745,1354.7674771742745,1.0001376921540226,0.0001372416020650694
1354.7744218016974,1354.7744218016974,0.9998705296182528,0.00013722400769639075
1354.7813664290272,1354.7813664290272,1.0000728640114198,0.00013723745844141812
1354.7883110561702,1354.7883110561702,1.0001580261440097,0.000137240535887816
1354.7952556832206,1354.7952556832206,1.0000580923987619,0.00013723001889102938
1354.8022003099918,1354.8022003099918,0.9999546098040313,0.00013722360992875584
1354.8091449366696,1354.8091449366696,1.000096372244506,0.0001372234116336927
1354.816089563347,1354.816089563347,0.9998645151781517,0.00013722225960758312
1354.8230341895592,1354.8230341895592,0.9998734261473101,0.00013720418776847035
1354.8299788158645,1354.8299788158645,0.9999963741575473,0.0001372184016840551
1354.8369234418903,1354.8369234418903,1.0000067877892345,0.00013721149347831405
1354.8438680679162,1354.8438680679162,0.9999974715051874,0.00013721556482021628
1354.8508126936629,1354.8508126936629,0.9999189260463671,0.00013721107822245243
1354.8577573193156,1354.8577573193156,1.0001314650531483,0.00013721184054169745
1354.864701944876,1354.864701944876,0.9999470304607811,0.00013721184682823296
1354.871646570157,1354.871646570157,0.99998373313495,0.0001372025680641136
1354.8785911953446,1354.8785911953446,0.9999886817841862,0.00013719967136225766
1354.8855358205324,1354.8855358205324,1.0002097924157423,0.0001372152124875207
1354.8924804454405,1354.8924804454405,0.9999389471653449,0.00013720693181978443
1354.8994250701624,1354.8994250701624,1.0000839646136184,0.00013720018417341982
1354.9063696947917,1354.9063696947917,0.9998088939589905,0.00013718473347629554
1354.913314319234,1354.913314319234,1.0000274080508387,0.00013720805706544944
1354.9202589437696,1354.9202589437696,1.0000196560081918,0.00013720475288994015
1354.9272035678398,1354.9272035678398,1.0001748357248066,0.00013720709714507982
1354.934148192096,1354.934148192096,1.000023783375705,0.00013721106237996207
1354.9424817407566,1354.9424817407566,0.9997926182820398,0.00013719760610062974
1354.9494263645474,1354.9494263645474,1.000080390588392,0.00013720137826395444
1354.9563709882448,1354.9563709882448,0.9999599257459835,0.0001371976257505196
1354.9633156117561,1354.9633156117561,0.9997901259565095,0.0001371774077878433
1354.9702602350815,1354.9702602350815,0.9998670595730863,0.00013717251998860902
1354.977204858406,1354.977204858406,1.0000809419246597,0.00013717264274659485
1354.984149481452,1354.984149481452,1.0000408684186766,0.00013718977925383384
1354.9910941044043,1354.9910941044043,1.0001058613903926,0.00013717547465766808
1354.9980387271703,1354.9980387271703,1.0001848282420351,0.00013719614739452502
1355.0049833500298,1355.0049833500298,1.0000004770878994,0.00013717524129755384
1355.0119279725163,1355.0119279725163,0.999925405710794,0.0001371579058141971
1355.0188725950034,1355.0188725950034,1.000137235623986,0.00013717459418626808
1355.025817217304,1355.025817217304,0.9998481825272444,0.00013714935526771085
1355.032761839325,1355.032761839325,0.99996278812923,0.00013715822879207103
1355.0397064613467,1355.0397064613467,0.9997520962054003,0.00013714778800898354
1355.0466510833674,1355.0466510833674,1.0003207380356876,0.0001371825640096547
1355.0535957052957,1355.0535957052957,0.9999490491509457,0.00013716964107411065
1355.0605403269442,1355.0605403269442,1.0002204458960144,0.0001371795406547822
1355.0674849484064,1355.0674849484064,1.0000496981382136,0.00013716994507562673
1355.074429569869,1355.074429569869,0.9999610334323075,0.00013717101508481535
1355.081374191145,1355.081374191145,0.9998502159280509,0.0001371563693642805
1355.0883188123275,1355.0883188123275,0.9996926574180129,0.00013713990253681163
1355.0952634333246,1355.0952634333246,0.9999309534120746,0.00013715330579888125
1355.1022080543214,1355.1022080543214,0.9999873139121455,0.00013715624011362767
1355.1091526749453,1355.1091526749453,1.0003661242515012,0.0001371744817460487
1355.116097295663,1355.116097295663,1.0000710343476271,0.0001371644678335731
1355.1230419161006,1355.1230419161006,1.0000206130467149,0.00013714774513841685
1355.1299865366316,1355.1299865366316,0.9997780919637975,0.00013714417511346668
1355.1369311568835,1355.1369311568835,0.9998630121802152,0.0001371322577218801
1355.1438757769486,1355.1438757769486,1.000111639663207,0.00013715005765193913
1355.1508203969213,1355.1508203969213,1.0001430008634853,0.00013715188761136742
1355.1577650170796,1355.1577650170796,1.000090501888393,0.00013714324365543835
1355.1647096367722,1355.1647096367722,0.9999303354966397,0.00013713300567639092
1355.1716542564654,1355.1716542564654,1.0002493380755477,0.00013714752792493533
1355.1785988758788,1355.1785988758788,0.9998248334527549,0.00013713166961667726
1355.1855434953854,1355.1855434953854,0.9998862533315105,0.00013712445281828745
1355.1924881146128,1355.1924881146128,0.9998589597477695,0.00013711549313779998
1355.1994327337466,1355.1994327337466,0.999991441642069,0.00013713793371645402
1355.2063773528807,1355.2063773528807,1.000168504708972,0.00013713790769746178
1355.2133219718285,1355.2133219718285,0.9998765675913568,0.00013712330259320546
1355.2202665906832,1355.2202665906832,0.9999955544103193,0.0001371176229575568
1355.2272112093517,1355.2272112093517,0.9999534186242591,0.00013711881241383443
1355.23415582802,1355.23415582802,1.0000509435800582,0.00013712701511697111
1355.241100446409,1355.241100446409,1.0000170676820161,0.00013712435684952283
1355.2480450647977,1355.2480450647977,1.000217853621368,0.00013713124660171702
1355.2549896830005,1355.2549896830005,1.0000000707023176,0.00013711227492455634
1355.2619343011106,1355.2619343011106,0.9999311334695768,0.00013711726721977904
1355.2688789192198,1355.2688789192198,1.0000331943997687,0.00013711978776230648
1355.27582353705,1355.27582353705,0.9998773251054004,0.0001371144155541232
1355.2827681547872,1355.2827681547872,0.9998344075555077,0.00013710310586877722
1355.2897127725241,1355.2897127725241,0.9998938201624725,0.000137108546965583
1355.2966573899819,1355.2966573899819,1.0000868561685308,0.00013711701986757365
1355.3036020073464,1355.3036020073464,0.9997428353251372,0.00013708861598480567
1355.3105466247112,1355.3105466247112,1.0000177109119153,0.0001371089737907763
1355.317491242076,1355.317491242076,1.0001710339449843,0.00013711376078048013
1355.3244358589745,1355.3244358589745,1.0001904351800133,0.00013711141695596719
1355.3313804760596,1355.3313804760596,0.999960562003188,0.00013710715700822237
1355.3391584470423,1355.3391584470423,1.0001520416214207,0.00013711932717370046
1355.3466586329578,1355.3466586329578,0.9998230876544765,0.00013708825465539044
1355.3536032495772,1355.3536032495772,1.0000299016522682,0.00013710893632906784
1355.360547866104,1355.360547866104,1.0001212931530048,0.00013711121579360286
1355.3674924825368,1355.3674924825368,0.9996507699190872,0.00013708709037261842
1355.3744370987838,1355.3744370987838,0.9998610151045803,0.00013708658388900886
1355.3813817149378,1355.3813817149378,1.0001295262283603,0.00013710062207331582
1355.3883263310915,1355.3883263310915,1.0001183331371761,0.00013709288836790155
1355.395270947059,1355.395270947059,1.0001923811044353,0.0001371093017794114
1355.4033267014324,1355.4033267014324,0.9996730052982098,0.00013707407087782644
1355.410549101815,1355.410549101815,1.0000090324347688,0.00013708478250803945
1355.4174937174103,1355.4174937174103,1.0001001111205856,0.00013708784931037386
1355.4244383328191,1355.4244383328191,1.0002326757193791,0.0001370971649975218
1355.4313829482278,1355.4313829482278,0.9998737301509355,0.00013705549522800012
1355.4383275636367,1355.4383275636367,0.9998545544406718,0.00013705964652571762
1355.4452721787661,1355.4452721787661,0.9999078585702735,0.00013706046686495996
1355.452216793802,1355.452216793802,1.0000272576286515,0.00013706688628843325
1355.4591614088386,1355.4591614088386,1.0000488448516536,0.0001370693214908947
1355.4661060235953,1355.4661060235953,1.0001708338655966,0.00013707383049682589
1355.4730506384453,1355.4730506384453,1.000011722440436,0.00013705248698605877
1355.479995253016,1355.479995253016,0.9999535400005406,0.00013705663769031763
1355.4869398674932,1355.4869398674932,0.999985013465205,0.0001370611539112376
1355.493884481971,1355.493884481971,1.0000335461606429,0.00013706082599075146
1355.5008290963553,1355.5008290963553,0.9999004857886551,0.00013704971356996563
1355.507773710553,1355.507773710553,0.9999693401576899,0.00013704511765972796
1355.5147183246581,1355.5147183246581,1.0000300905814143,0.00013706236209252014
1355.52166293867,1355.52166293867,0.9999086534596955,0.00013706775022722097
1355.5286075525883,1355.5286075525883,1.0000577064183305,0.00013706893491944268
1355.5355521664137,1355.5355521664137,1.0003282919339482,0.00013708279530124333
1355.5424967801468,1355.5424967801468,0.999885186794139,0.00013703886029267173
1355.5494413937856,1355.5494413937856,0.9999194713054728,0.00013705774963459284
1355.5563860072386,1355.5563860072386,1.0000493882018207,0.0001370703344937062
1355.5633306205987,1355.5633306205987,0.9998864528318798,0.00013704922468678717
1355.5702752339585,1355.5702752339585,0.9997459303952537,0.00013703738343397084
1355.5772198471323,1355.5772198471323,0.9999776772438798,0.0001370598795267282
1355.5841644602126,1355.5841644602126,1.0002011838486755,0.00013706432716006862
1355.5911090731067,1355.5911090731067,0.9999462086590658,0.00013705780283381896
1355.5980536861875,1355.5980536861875,1.000103821715437,0.00013706557667441334
1355.6049982989882,1355.6049982989882,1.000053647816539,0.000137052180891724
1355.6119429116964,1355.6119429116964,1.0000393294271208,0.00013705239493602385
1355.6188875241248,1355.6188875241248,0.9999437818160434,0.00013703697464854616
1355.6258321366463,1355.6258321366463,1.0000478094042462,0.00013704248126123375
1355.632776748982,1355.632776748982,1.0001190067874903,0.00013705210440650612
1355.6397213613175,1355.6397213613175,0.9999087223718895,0.00013702012164977403
1355.6466659735593,1355.6466659735593,0.9998071325688569,0.00013701854061936404
1355.6536105856155,1355.6536105856155,0.9997948436058905,0.00013701674625225615
1355.6605551975786,1355.6605551975786,1.000186309678799,0.00013703167406568082
1355.6674998094481,1355.6674998094481,1.0000325361841578,0.00013702205614354957
1355.674444421225,1355.674444421225,1.000081269173037,0.00013703405934267123
1355.6813890329083,1355.6813890329083,1.0000542107116253,0.00013703216681901025
1355.6883336445921,1355.6883336445921,1.0000159353949165,0.0001370284297694037
1355.695278255996,1355.695278255996,1.0000979192599961,0.00013703993946036604
1355.7022228674,1355.7022228674,1.0000357530221895,0.0001370302523500203
1355.7091674787112,1355.7091674787112,0.9999195139892173,0.00013703419918364865
1355.7161120899289,1355.7161120899289,1.000124506548256,0.00013703673321734575
1355.7230567010533,1355.7230567010533,0.9997460292510961,0.0001370144418036977
1355.7300013120853,1355.7300013120853,0.9998979294448844,0.00013703597896959422
1355.7369459229303,1355.7369459229303,0.9999913527562155,0.00013703565809918998
1355.743890533776,1355.743890533776,1.0000582660991246,0.00013704759216990274
1355.7522240665107,1355.7522240665107,0.9998878283684004,0.00013703799621275948
1355.7591686773562,1355.7591686773562,1.000117554250818,0.0001370445077123257
1355.7661132877358,1355.7661132877358,0.9999450947229608,0.00013703433129117572
1355.7730578981154,1355.7730578981154,1.0001428240895411,0.0001370470730525078
1355.7800025084946,1355.7800025084946,1.0000651461628336,0.00013704962573462414
1355.7869471187814,1355.7869471187814,1.0000514470677708,0.00013703744937086204
1355.7938917287886,1355.7938917287886,0.9998362689089975,0.00013702441221571598
1355.8008363387958,1355.8008363387958,0.9999426199985371,0.00013703137388318277
1355.8077809488027,1355.8077809488027,1.000103971837266,0.00013704824286858908
1355.8147255586234,1355.8147255586234,1.0000743167499726,0.0001370415369139507
1355.8216701683518,1355.8216701683518,0.9997443151744803,0.00013702335348778581
1355.828614778079,1355.828614778079,1.0002444660226266,0.00013705461024892093
1355.8355593876204,1355.8355593876204,0.9999967357465603,0.000137028339706458
1355.8425039970691,1355.8425039970691,1.0000242009851763,0.00013704350072889167
1355.8494486063307,1355.8494486063307,0.9999263446112356,0.00013703503490188111
1355.8563932157795,1355.8563932157795,0.9998976898984118,0.0001370274943376793
1355.863337824855,1355.863337824855,0.9999839923048215,0.00013703517529402005
1355.870282434024,1355.870282434024,1.0000871120461818,0.00013704151726847522
