time,time,flux,flux_err
1325.304181210013,1325.304181210013,1.0000999892385671,0.0003467405969984731
1325.3125148104862,1325.3125148104862,1.000054973968387,0.0003469484138513841
1325.320848410572,1325.320848410572,1.0001455896126734,0.0003471738734260152
1325.3291820104241,1325.3291820104241,0.9999663142147807,0.00034732251595038366
1325.3368211433751,1325.3368211433751,0.9996398459162181,0.00031718287197610975
1325.3437658093783,1325.3437658093783,0.9993733108398265,0.00031727051479059836
1325.3507104751952,1325.3507104751952,0.9999577611512294,0.00031744762756927817
1325.357655140919,1325.357655140919,1.0000094396478256,0.0003175169012348891
1325.3645998063632,1325.3645998063632,1.000339683141852,0.0003177172673290092
1325.3715444715285,1325.3715444715285,1.0000556417921695,0.00031777219520530474
1325.3784891365997,1325.3784891365997,1.0002067852442198,0.0003178511239387243
1325.3854338014855,1325.3854338014855,1.000138029650551,0.000317969001102909
1325.3923784660915,1325.3923784660915,0.999836515423626,0.0003179524838014214
1325.399323130418,1325.399323130418,0.9998272702341569,0.00031802758798699413
1325.4062677947447,1325.4062677947447,0.9999741656463206,0.00031806604305060094
1325.4132124587918,1325.4132124587918,0.9997798808641953,0.0003181071300231308
1325.4201571227463,1325.4201571227463,0.999995643623887,0.00031818860976133464
1325.427101786421,1325.427101786421,1.0006043203199542,0.00031831758147207945
1325.4340464499096,1325.4340464499096,1.0000982495271065,0.0003182535858751962
1325.440991113212,1325.440991113212,0.9999920853936775,0.00031827486080392874
1325.4479357763278,1325.4479357763278,0.9995178914402443,0.0003182616664181098
1325.4548804394437,1325.4548804394437,1.000060484798897,0.0003183253895103598
1325.461825102094,1325.461825102094,0.9994869195158886,0.0003183026107073385
1325.4687697648374,1325.4687697648374,1.0004742477749573,0.0003184958311096552
1325.4757144272085,1325.4757144272085,0.9996763533462317,0.00031845674605847195
1325.4826590894863,1325.4826590894863,1.0006546028406231,0.0003186583528010362
1325.4896037516708,1325.4896037516708,0.9998780772559955,0.00031865955978149416
1325.4965484135762,1325.4965484135762,1.0005670006153662,0.0003187971862929564
1325.5034930752952,1325.5034930752952,0.9999646532950983,0.0003187883564035824
1325.5104377369212,1325.5104377369212,0.9999470982377355,0.0003188657643057593
1325.5173823983605,1325.5173823983605,0.9998835280855923,0.00031888572422224075
1325.5243270597073,1325.5243270597073,0.9994389583616329,0.0003189723777621643
1325.531271720681,1325.531271720681,0.9998924614684747,0.0003190966109307183
1325.5382163818413,1325.5382163818413,0.9996396166022551,0.0003191793482465493
1325.545161042722,1325.545161042722,1.0004230391356472,0.00031929747341631203
1325.5521057031374,1325.5521057031374,0.9997733740233004,0.00031931768980752984
1325.5590503637384,1325.5590503637384,1.000119928115751,0.00031942458080501835
1325.5659950240608,1325.5659950240608,1.0004925194606202,0.00031951416062299935
1325.5729396841966,1325.5729396841966,1.0002537031184366,0.000319597156787815
1325.5798843443322,1325.5798843443322,0.999966215912355,0.00031959932582157843
1325.5868290041888,1325.5868290041888,0.999826437849652,0.00031961705390245635
1325.5937736639512,1325.5937736639512,0.9997428122670557,0.000319692510231787
1325.6007183235288,1325.6007183235288,1.000201873423082,0.0003197820557219172
1325.6076629830125,1325.6076629830125,0.9996949277483091,0.00031972474767519727
1325.614607642217,1325.614607642217,0.999810597138443,0.00031979741784790745
1325.6215523014214,1325.6215523014214,0.9997476704527104,0.0003198359475604721
1325.6284969604396,1325.6284969604396,1.0001115219511798,0.00031991489217341785
1325.6354416194579,1325.6354416194579,1.0000178362435075,0.00031985141558923236
1325.6423862781035,1325.6423862781035,1.0007352107397978,0.00031996112044276504
1325.649330936842,1325.649330936842,0.9999632836393509,0.000319868488806716
1325.6562755953014,1325.6562755953014,0.9995998872952706,0.0003198494505927266
1325.6632202536678,1325.6632202536678,1.0003365773079937,0.000319913770134331
1325.6701649117545,1325.6701649117545,1.0003726259975025,0.00031990697822094664
1325.6771095699344,1325.6771095699344,0.9996836791682627,0.0003198160449393177
1325.6840542278353,1325.6840542278353,0.9994395607413363,0.00031979796742209255
1325.6909988856428,1325.6909988856428,0.9999447892653379,0.000319898232496326
1325.6979435433568,1325.6979435433568,1.0001621466340784,0.0003199703367424302
1325.7048882008853,1325.7048882008853,0.999895984659636,0.00031997016652878906
1325.7118328584133,1325.7118328584133,1.0001563956298742,0.0003200286328538712
1325.718777515755,1325.718777515755,1.0006198587270143,0.0003201144489222332
1325.72572217291,1325.72572217291,0.9995967767759195,0.00032005448867173096
1325.7326668299727,1325.7326668299727,1.0001503892072623,0.0003201515123555832
1325.7396114868488,1325.7396114868488,0.9993602209026073,0.00032013612332067236
1325.746556143725,1325.746556143725,0.9999436790082863,0.0003202853835160713
1325.7535008004147,1325.7535008004147,1.0004271302370429,0.0003204003816268226
1325.7604454570117,1325.7604454570117,1.0003555858556188,0.00032045976627187954
1325.7673901134222,1325.7673901134222,1.0000114834119098,0.00032049122107037116
1325.7743347699256,1325.7743347699256,0.9997935512832281,0.00032056153653902254
1325.7812794261497,1325.7812794261497,0.9995858290727048,0.0003205908847478373
1325.7882240822807,1325.7882240822807,0.9998162123425433,0.000320706633494918
1325.7951687382258,1325.7951687382258,1.0000903903838674,0.0003208179684306929
1325.8021133940772,1325.8021133940772,1.0004582074272452,0.00032096989972435925
1325.8090580498363,1325.8090580498363,0.9991268581292747,0.0003208786082441545
1325.8160027055944,1325.8160027055944,1.0004007233333456,0.00032113821441084493
1325.8229473611668,1325.8229473611668,1.0004121369072767,0.0003212136106835579
1325.829892016553,1325.829892016553,0.999832940852186,0.0003211882825372287
1325.836836671939,1325.836836671939,1.0001059833230164,0.0003212747733956615
1325.8437813271387,1325.8437813271387,0.999944000553031,0.0003213679935654933
1325.8507259822452,1325.8507259822452,0.9998497364425258,0.0003213871002450989
1325.8576706371653,1325.8576706371653,0.9996113126683369,0.0003214050818133282
1325.8646152921788,1325.8646152921788,1.0001852866509944,0.00032148898025192443
1325.8715599470063,1325.8715599470063,0.9999014539424559,0.00032148935257949826
1325.8785046017406,1325.8785046017406,0.9999382967800858,0.00032148100418687
1325.8854492562882,1325.8854492562882,0.9999271776292821,0.00032142177244509314
1325.892393910836,1325.892393910836,0.999699119726799,0.00032137666630381004
1325.8993385651975,1325.8993385651975,1.0003985620984566,0.00032147814321637326
1325.906283219466,1325.906283219466,1.0000580946192086,0.00032143774360510234
1325.9132278736413,1325.9132278736413,1.0006291945324655,0.0003215084215274338
1325.9201725278162,1325.9201725278162,0.9999357908347083,0.00032141880625074327
1325.9271171816192,1325.9271171816192,0.9992950544366185,0.00032135986171869614
1325.9340618358879,1325.9340618358879,1.0000456458146074,0.00032146211552210935
1325.9410064896904,1325.9410064896904,1.0001499031166214,0.0003214995180519448
1325.9479511430275,1325.9479511430275,0.9999530662091486,0.0003215383004343631
1325.9548957968304,1325.9548957968304,1.000123393206756,0.0003215718997972868
1325.9618404502605,1325.9618404502605,0.9999292635725621,0.000321625284447629
1325.9698962482994,1325.9698962482994,1.000277191527529,0.0003217246944519332
1325.9771186876956,1325.9771186876956,0.9996653940992625,0.00032171826569174185
1325.9840633409392,1325.9840633409392,1.000160326046227,0.0003218793033633577
1325.991007993997,1325.991007993997,1.0003318875353908,0.0003219418427125441
1325.9979526470547,1325.9979526470547,1.0000034809751406,0.0003220284000880288
1326.0048973000196,1326.0048973000196,0.9995245693994768,0.00032207181106972386
1326.0118419527976,1326.0118419527976,0.9999697753684578,0.0003222118824792497
1326.018786605669,1326.018786605669,0.9997926828216684,0.00032237159213364405
1326.0257312582612,1326.0257312582612,0.9998873631521702,0.0003225475640324366
1326.0326759108534,1326.0326759108534,1.000289451277184,0.0003227442625734374
1326.0396205633522,1326.0396205633522,1.0001870381082238,0.00032275943414944897
1326.0465652156645,1326.0465652156645,0.999682870768224,0.0003227463261396212
1326.0535098679775,1326.0535098679775,0.9999669376827892,0.00032286916033735254
1326.0604545201966,1326.0604545201966,1.0003346003317821,0.000323001689822121
1326.0673991723233,1326.0673991723233,1.0002728467548434,0.00032310349740714524
1326.0743438243564,1326.0743438243564,0.9998780505335223,0.00032315864449842933
1326.0812884763895,1326.0812884763895,0.9999354898721531,0.00032323343717807946
1326.0882331282369,1326.0882331282369,1.000056338296909,0.00032338609623375626
1326.0951777798975,1326.0951777798975,0.9997674107016671,0.00032339006705106696
1326.1021224318379,1326.1021224318379,0.9999522605647224,0.00032348895277362424
1326.1090670833123,1326.1090670833123,0.999695639495007,0.00032357566865924775
1326.1160117347865,1326.1160117347865,0.9996750456717306,0.0003236921645482575
1326.1229563862612,1326.1229563862612,1.0000046530514768,0.00032380884615179563
1326.1299010377352,1326.1299010377352,1.0005132855540924,0.0003239554182826496
1326.1368456890239,1326.1368456890239,1.0006685701579006,0.0003240409440046884
1326.1437903402186,1326.1437903402186,0.9999761161274694,0.00032405858261391545
1326.1507349913209,1326.1507349913209,0.9999172766546678,0.0003241141671198047
1326.1576796424226,1326.1576796424226,1.000272252357385,0.000324235997705292
1326.1646242933382,1326.1646242933382,0.9993456609818125,0.000324201651402563
1326.1715689441612,1326.1715689441612,0.9999548513436756,0.0003243868551204811
1326.1785135950763,1326.1785135950763,0.9998659506515957,0.00032446179905114075
1326.1854582458059,1326.1854582458059,0.9998718155832982,0.0003245044129579522
1326.192402896349,1326.192402896349,0.9999846252070516,0.0003246055501572916
1326.199347546985,1326.199347546985,1.0003381736011587,0.00032469467459670504
1326.2062921975285,1326.2062921975285,1.0004805573086686,0.00032478659133553596
1326.2132368478856,1326.2132368478856,0.9997145386197168,0.00032471196258090343
1326.220181498149,1326.220181498149,0.9996985571122622,0.0003248017184663992
1326.2271261485062,1326.2271261485062,0.9999270515870753,0.0003248729299771118
1326.2340707986764,1326.2340707986764,1.0001337191690678,0.00032493177754553873
1326.2410154487538,1326.2410154487538,1.0003142222699246,0.00032507582862548965
1326.247960098831,1326.247960098831,1.000008093212641,0.0003250199504466765
1326.2549047487232,1326.2549047487232,0.9995872583767202,0.0003250438138490126
1326.261849398707,1326.261849398707,1.0001353537155542,0.00032511823478935717
1326.268794048412,1326.268794048412,0.9996336662713402,0.0003251410177834035
1326.275738698117,1326.275738698117,1.0002416840193125,0.000325222197280854
1326.2826833478218,1326.2826833478218,0.9996956550990976,0.00032523949808440565
1326.2896279974339,1326.2896279974339,1.0003072974845488,0.0003253772230778064
1326.2965726469522,1326.2965726469522,0.9999703388816436,0.0003254130555205626
1326.303517296285,1326.303517296285,1.000599815488215,0.0003255114694947566
1326.3104619458034,1326.3104619458034,0.9995526435363453,0.0003254322225262918
1326.31740659495,1326.31740659495,1.000442761211246,0.00032567572665829255
1326.324351244096,1326.324351244096,0.9999825103111597,0.0003256408843290074
1326.331295893242,1326.331295893242,0.9998868013803349,0.00032570518676762613
1326.3382405423881,1326.3382405423881,0.9993167621580905,0.0003257095712708464
1326.3451851915343,1326.3451851915343,0.9992889776212444,0.0003257990386335223
1326.3532409842646,1326.3532409842646,1.0002883624608236,0.00032599548880450315
1326.361852348833,1326.361852348833,1.0000630690979793,0.0003261050275703672
1326.3687969976068,1326.3687969976068,1.0000362227569335,0.000326188675546801
1326.3757416462872,1326.3757416462872,1.0002197148277896,0.0003262934422066826
1326.3826862948747,1326.3826862948747,1.000038353558695,0.0003263170279349201
1326.3896309434617,1326.3896309434617,1.0000662578795025,0.00032645001373564906
1326.3965755919562,1326.3965755919562,1.0001057706333234,0.0003265290335511376
1326.4035202403575,1326.4035202403575,0.9999739254685995,0.00032661450018120475
1326.4104648886653,1326.4104648886653,0.9996903020403589,0.0003266114341968693
1326.4174095369738,1326.4174095369738,1.0001117252957161,0.0003268299768995091
1326.4243541851881,1326.4243541851881,1.0001127163646595,0.0003269113949893137
1326.431298833403,1326.431298833403,0.9999749374453387,0.00032697071023100627
1326.4382434813383,1326.4382434813383,0.9997634530891084,0.00032707252006874943
1326.4451881293671,1326.4451881293671,0.9999770520823968,0.00032715569304680406
1326.4521327773023,1326.4521327773023,0.9997352209692376,0.0003272299628458268
1326.4590774252379,1326.4590774252379,1.0003055911666998,0.0003274096729282329
1326.466022072987,1326.466022072987,1.0002039608676196,0.00032746875571290526
1326.4729667207362,1326.4729667207362,0.9999622945268818,0.00032751599724081847
1326.479911368392,1326.479911368392,0.9998144018943508,0.00032759107402848594
1326.4868560161417,1326.4868560161417,1.0000984201782486,0.00032774753202177324
1326.493800663518,1326.493800663518,0.9997843773170072,0.0003277953942792365
1326.5007453110811,1326.5007453110811,1.0001770107658934,0.0003279401654734369
1326.5076899584574,1326.5076899584574,1.0000853278104944,0.00032808436184689313
1326.5146346058343,1326.5146346058343,1.000029463478627,0.0003282111495617777
1326.5215792531178,1326.5215792531178,1.0001783942619984,0.00032833800405801045
1326.5285239003083,1326.5285239003083,1.0003165405811443,0.0003284812565842038
1326.5354685474056,1326.5354685474056,0.9995449801591226,0.0003285741621624822
1326.5424131945956,1326.5424131945956,1.0002780714875603,0.0003288099480076658
1326.5493578415071,1326.5493578415071,0.9995421658799462,0.0003288800245614288
1326.5563024883245,1326.5563024883245,0.9998253394296993,0.0003290684965517943
1326.5632471356082,1326.5632471356082,0.999874747460438,0.00032914329655560814
1326.5701917824258,1326.5701917824258,0.9998799508033336,0.0003292331437604524
1326.5771364289644,1326.5771364289644,1.0002805829046624,0.0003293429311844703
1326.5840810755963,1326.5840810755963,1.0000592023292025,0.00032945289288816476
1326.5910257224139,1326.5910257224139,1.0002163526686907,0.00032956457941609455
1326.5979703688595,1326.5979703688595,1.0004496423049796,0.0003296488138438148
1326.6049150154909,1326.6049150154909,0.9997126265372012,0.0003297140604065157
1326.6118596619363,1326.6118596619363,0.9997654751584518,0.0003297925278548107
1326.6188043082886,1326.6188043082886,1.0004783523556757,0.0003299847606560122
1326.6257489545471,1326.6257489545471,0.999747103692683,0.00032995578335268447
1326.6326936008068,1326.6326936008068,0.9999002652698697,0.0003300636351626377
1326.6396382470652,1326.6396382470652,0.999798408820844,0.00033009005122875497
1326.6465828931384,1326.6465828931384,1.0000992052163955,0.0003301812603197345
1326.6535275393046,1326.6535275393046,1.000019037155354,0.00033021358293058406
1326.660472185284,1326.660472185284,0.999997962530571,0.00033026644996373854
1326.6674168311706,1326.6674168311706,1.0001022091648406,0.000330231856269431
1326.67436147715,1326.67436147715,0.9997863747520386,0.00033022691030681423
1326.6813061229436,1326.6813061229436,0.9994756494848603,0.0003302137606167273
1326.6882507686437,1326.6882507686437,1.000767123795349,0.00033034402943529214
1326.6965843434284,1326.6965843434284,0.9998718992197398,0.00033024496829670155
1326.7035289891287,1326.7035289891287,1.0001059189103971,0.0003302481433296481
1326.7104736347355,1326.7104736347355,1.0002789061933886,0.00033020596571588934
1326.7182516377748,1326.7182516377748,0.9996657283232615,0.0003301528512481532
1326.7257518547551,1326.7257518547551,1.0001792860890162,0.0003302093301274376
1326.7326965001757,1326.7326965001757,0.999415876449943,0.0003301580982502273
1326.7396411455034,1326.7396411455034,1.000346289254754,0.0003302678218497613
1326.7465857908314,1326.7465857908314,0.9998636462679242,0.00033018721598105933
1326.7535304358794,1326.7535304358794,1.0003179875576729,0.0003302924431690809
1326.760475081114,1326.760475081114,0.9999229171598932,0.00033026300960469927
1326.7674197261624,1326.7674197261624,1.0004517936140143,0.0003303397933686215
1326.7743643712106,1326.7743643712106,0.9993847786758243,0.00033025145032291345
1326.7813090161658,1326.7813090161658,0.9995488446652118,0.00033030388192588334
1326.788253661028,1326.788253661028,1.0000257194361883,0.0003304220920503493
1326.7951983057972,1326.7951983057972,1.0005028131813265,0.00033055618932506173
1326.802142950752,1326.802142950752,1.0001739700976597,0.0003306051635364771
1326.8090875953353,1326.8090875953353,1.000444436029161,0.0003307489855913049
1326.8160322401968,1326.8160322401968,0.9998028828152373,0.00033072942841617963
1326.8229768846863,1326.8229768846863,1.0004905740440815,0.00033085533066838136
1326.8299215291759,1326.8299215291759,0.9996456412449575,0.0003308066591589597
1326.8368661736656,1326.8368661736656,0.9995125708795858,0.0003308332811900969
1326.8438108181551,1326.8438108181551,0.9999451008557397,0.00033093841438197667
1326.8507554626444,1326.8507554626444,0.9999019542317706,0.00033093249726578436
1326.8577001067617,1326.8577001067617,1.0001156367412851,0.000330995702401111
1326.864644751158,1326.864644751158,0.9996774560800535,0.00033097944119661577
1326.8715893952754,1326.8715893952754,1.0011728748093216,0.00033110877429200615
1326.8785340394854,1326.8785340394854,1.0003714533474395,0.0003309987307774188
1326.885478683509,1326.885478683509,0.9997097072962158,0.00033079893895707175
1326.8924233275334,1326.8924233275334,0.9999174914014434,0.0003307759485120762
1326.8993679715568,1326.8993679715568,0.9998848053176239,0.0003306598018892273
1326.906312615488,1326.906312615488,0.9997750346156231,0.0003305183380670682
1326.913257259232,1326.913257259232,0.9997003528410435,0.00033042029851252356
1326.92020190307,1326.92020190307,0.999749104086276,0.00033023765927882174
1326.9271465468144,1326.9271465468144,1.0006080448290615,0.0003302125577832615
1326.934091190466,1326.934091190466,0.9999073612124381,0.00032995171197533544
1326.941035834117,1326.941035834117,1.000534624428027,0.00032994161302745935
1326.9479804776752,1326.9479804776752,0.999595901501951,0.000329611005264368
1326.9549251212338,1326.9549251212338,1.0000072136980902,0.0003295477314419009
1326.9618697646054,1326.9618697646054,1.0003970940186488,0.0003294929338066552
1326.968814408164,1326.968814408164,0.9996804590840661,0.00032921456116513247
1326.9757590514425,1326.9757590514425,1.0003016251943102,0.00032923369341830136
1326.9827036947213,1326.9827036947213,1.0005099828186172,0.00032919881860096105
1326.9896483379073,1326.9896483379073,0.9998782327885912,0.00032907434304220033
1326.9965929810928,1326.9965929810928,1.000230822135882,0.0003290930432503246
1327.0035376241854,1327.0035376241854,1.0000699389267311,0.0003290299346060837
1327.010482267278,1327.010482267278,0.9998474685997637,0.0003289856384178847
1327.0174269101842,1327.0174269101842,1.0001054845692179,0.00032902261131371183
1327.0243715531838,1327.0243715531838,0.9994237119268077,0.00032900631492019616
1327.03131619609,1327.03131619609,0.9997061074777243,0.00032907932686419123
1327.0382608389966,1327.0382608389966,0.999891036508925,0.00032911492282714503
1327.045205481716,1327.045205481716,1.0005431911563947,0.00032928138665358605
1327.0521501244366,1327.0521501244366,1.0003228717822483,0.0003292622398859085
1327.0590947671565,1327.0590947671565,1.0000434527400044,0.00032935438429147854
1327.0671505525293,1327.0671505525293,0.9999096473155298,0.0003294291470708916
