time,time,flux,flux_err
1491.6404041287608,1491.6404041287608,0.9996004368803058,0.0003334794353455126
1491.6487375989411,1491.6487375989411,1.0001999067715974,0.00033327265184428554
1491.656376613107,1491.656376613107,0.9999498402341429,0.0003038830588045257
1491.6633211714463,1491.6633211714463,1.000395372094408,0.0003038004635403086
1491.6702657297853,1491.6702657297853,1.0003229921030294,0.0003035949999583466
1491.6772102878447,1491.6772102878447,0.9999641179338908,0.0003034146190823498
1491.6841548461834,1491.6841548461834,0.9993357662468292,0.0003030354071422214
1491.6910994042428,1491.6910994042428,1.000197682066221,0.000302998971554982
1491.6980439622089,1491.6980439622089,1.0005675798172617,0.0003028793947123185
1491.7049885201752,1491.7049885201752,0.9996897636158473,0.0003026631287183475
1491.7119330779553,1491.7119330779553,0.9997152440407573,0.000302479759777727
1491.7188776356425,1491.7188776356425,1.0000217979187436,0.000302458240941567
1491.7258221934221,1491.7258221934221,1.000101174725519,0.00030226146860701844
1491.7327667510158,1491.7327667510158,0.9998319157714197,0.0003020463952339148
1491.7397113085167,1491.7397113085167,1.0003949457070866,0.00030197205447319783
1491.746655865924,1491.746655865924,0.9998702892409721,0.00030172407419460024
1491.7536004233316,1491.7536004233316,0.9996715081783725,0.0003016723881844304
1491.7605449806458,1491.7605449806458,0.9997645575275301,0.0003014578915376637
1491.7674895378668,1491.7674895378668,0.9997669751812888,0.0003013881694205429
1491.7744340949018,1491.7744340949018,0.9999581642565477,0.00030129183309179864
1491.7813786519368,1491.7813786519368,1.0000719191347072,0.00030122595891991793
1491.7883232088784,1491.7883232088784,1.0000626167635178,0.0003010492549800565
1491.7952677657272,1491.7952677657272,1.0003211220602595,0.00030102104204744366
1491.802212322483,1491.802212322483,1.0004451037514726,0.00030098231678264817
1491.809156879052,1491.809156879052,0.9998425563298596,0.0003007802896541952
1491.8161014357142,1491.8161014357142,1.0000771526608196,0.00030074546299524863
1491.8230459920974,1491.8230459920974,0.999791684871665,0.00030057729291577774
1491.8299905484805,1491.8299905484805,0.999948518883817,0.00030047404246401766
1491.8369351046772,1491.8369351046772,1.0001906061347712,0.0003004560326906405
1491.8438796608739,1491.8438796608739,0.9999590393788542,0.00030029213358549235
1491.8508242169773,1491.8508242169773,0.9995022684234318,0.0003001307678442317
1491.857768772988,1491.857768772988,1.0000801522081453,0.00030019788679837343
1491.8647133287193,1491.8647133287193,1.0004950621452537,0.0003001809994068522
1491.8716578845435,1491.8716578845435,0.9995840551141042,0.00029984682085739035
1491.8786024403676,1491.8786024403676,1.0001862079955637,0.0002999378746851455
1491.8855469956331,1491.8855469956331,0.9999863304241045,0.00029996317332128646
1491.8924915512712,1491.8924915512712,1.0002663263196323,0.0002998826096022469
1491.8994361065363,1491.8994361065363,0.9998045771820532,0.00029974896122135497
1491.906380661802,1491.906380661802,0.999593110045625,0.00029962739825753904
1491.9133252169745,1491.9133252169745,0.9997868194584354,0.00029962257911440854
1491.92026977196,1491.92026977196,1.0002304473027923,0.00029960785840311424
1491.9272143268531,1491.9272143268531,1.0003537641250353,0.0002995935565562749
1491.9341588816528,1491.9341588816528,0.9994383251394028,0.00029943453417018146
1491.9411034364523,1491.9411034364523,0.9998931660128345,0.00029955223925966635
1491.9480479908796,1491.9480479908796,0.9999321505623285,0.0002993900251719273
1491.9549925454005,1491.9549925454005,1.0003613676561305,0.00029946863440476494
1491.9619370998273,1491.9619370998273,0.9999145959565354,0.00029941535798631743
1491.9688816540681,1491.9688816540681,1.0000741603286682,0.0002993370337416148
1491.975826208216,1491.975826208216,0.9999871268753717,0.00029926597079287323
1491.9827707621776,1491.9827707621776,1.0000985900149706,0.0002992999087174046
1491.989715316139,1491.989715316139,0.999739038978847,0.00029924552290122586
1491.9966598699148,1491.9966598699148,0.9999730004729035,0.0002993224111032325
1492.003604423597,1492.003604423597,0.9999342117039379,0.0002992948144272309
1492.0105489770929,1492.0105489770929,0.9999427663003605,0.00029924779090554103
1492.0174935304024,1492.0174935304024,0.999910999431837,0.0002993111214620102
1492.0244380837119,1492.0244380837119,1.0001838355954147,0.0002992673222609327
1492.0313826370216,1492.0313826370216,0.9997590970656022,0.00029915755276364376
1492.0383271902383,1492.0383271902383,0.9998501345270217,0.00029921010178077625
1492.0452717431754,1492.0452717431754,1.0004088317014652,0.00029924712195558245
1492.0522162960192,1492.0522162960192,1.0005793858686616,0.0002992699406489289
1492.0591608487698,1492.0591608487698,0.9998853341729479,0.00029930314043847764
1492.0661054014276,1492.0661054014276,1.0000072706333825,0.0002993521835412883
1492.073049953899,1492.073049953899,1.000227953905976,0.0002992927792893311
1492.0799945062777,1492.0799945062777,0.9994122141286057,0.00029924242398204697
1492.0869390584696,1492.0869390584696,0.9997819398817773,0.0002992738880743119
1492.0938836106614,1492.0938836106614,0.9999980567460811,0.00029929018521261376
1492.1008281626673,1492.1008281626673,0.9997066416443741,0.0002992238840615064
1492.1077727145803,1492.1077727145803,1.0001830143298323,0.00029929358083117993
1492.1147172663063,1492.1147172663063,0.9999941951474838,0.000299287540498378
1492.1216618180326,1492.1216618180326,1.0002199296003584,0.0002993163511349439
1492.128606369573,1492.128606369573,1.000215428131584,0.00029929094641713706
1492.1355509209266,1492.1355509209266,0.9998356906742714,0.0002992547597697193
1492.1424954722806,1492.1424954722806,1.0000501432825764,0.0002993061363638239
1492.149440023262,1492.149440023262,1.0002105084098285,0.0002993011928033413
1492.1563845742435,1492.1563845742435,1.0001758413995139,0.00029932487997060854
1492.1633291252247,1492.1633291252247,0.9997499915172335,0.0002993245875841738
1492.170273676206,1492.170273676206,0.9997132765187653,0.0002993215268562889
1492.177218226722,1492.177218226722,0.9999904946285911,0.0002993246996012127
1492.1841627773304,1492.1841627773304,1.0004180171199137,0.00029930741146287415
1492.1911073277531,1492.1911073277531,0.9999500554736723,0.0002993034572891494
1492.1980518780824,1492.1980518780824,0.9993740078446732,0.00029927162795623366
1492.2049964282255,1492.2049964282255,0.9998015773797121,0.0002992785840314368
1492.2119409782758,1492.2119409782758,0.9998658976907571,0.00029929028496018166
1492.2188855282325,1492.2188855282325,1.0001738826759958,0.0002993226245586348
1492.22583007791,1492.22583007791,1.0005736957972906,0.00029938845383648373
1492.2327746276806,1492.2327746276806,1.000306189999718,0.0002993245364956065
1492.239719177172,1492.239719177172,1.0000195679513921,0.00029933351852311923
1492.2466637265697,1492.2466637265697,1.0005996726607933,0.0002993703870452712
1492.2536082758747,1492.2536082758747,0.9997950368398849,0.0002992371847574693
1492.2605528249933,1492.2605528249933,0.9999973389521056,0.00029929922470470444
1492.2674973741118,1492.2674973741118,0.9996840058138522,0.0002992677769209526
1492.2744419229512,1492.2744419229512,0.9998246843627181,0.00029927215942039003
1492.281386471884,1492.281386471884,1.000144890644537,0.00029929394643053085
1492.288331020537,1492.288331020537,1.0001120983960348,0.000299352497446071
1492.2952755689107,1492.2952755689107,0.9999085984256956,0.00029930988980000873
1492.3022201173778,1492.3022201173778,0.9996622912443766,0.00029929498755629317
1492.3091646655653,1492.3091646655653,1.0001699744761912,0.0002993039629930379
1492.3161092137523,1492.3161092137523,1.000336113671627,0.00029929919050192077
1492.3230537617533,1492.3230537617533,1.0001135504114966,0.0002992857593974959
1492.3299983096613,1492.3299983096613,0.9997086656752519,0.000299147516581624
1492.3369428574763,1492.3369428574763,1.000326836498803,0.00029934242058164706
1492.3438874050114,1492.3438874050114,0.9999658260308426,0.0002992845619877351
1492.3508319524537,1492.3508319524537,0.9998200265477447,0.0002992274789624368
1492.357776499989,1492.357776499989,1.0002373731724266,0.000299255759803143
1492.3647210471522,1492.3647210471522,1.0000351874882567,0.0002993264007720868
1492.3716655943151,1492.3716655943151,0.9994913967159842,0.0002991859289810998
1492.3786101412913,1492.3786101412913,1.0001723654199475,0.0002993373072640227
1492.385554688175,1492.385554688175,1.0002848798110844,0.0002992532397790465
1492.3924992349655,1492.3924992349655,0.9997540394615003,0.00029926984844436285
1492.3994437814765,1492.3994437814765,0.9999823268533872,0.0002993076349111623
1492.4063883280803,1492.4063883280803,0.9998847452735063,0.0002992685223677656
1492.4133328744053,1492.4133328744053,1.0002442639535012,0.00029933770748012797
1492.4202774206367,1492.4202774206367,0.9997496612701837,0.000299229632449031
1492.427221966589,1492.427221966589,1.0001485611302376,0.00029932091279044593
1492.4341665126346,1492.4341665126346,0.9999909867748926,0.00029926128824568626
1492.4411110584006,1492.4411110584006,0.999996851782656,0.00029929627729504554
1492.4480556040735,1492.4480556040735,0.9999094738869181,0.0002992317507475694
1492.4550001497464,1492.4550001497464,1.0000401928022415,0.0002992638031181644
1492.4619446951394,1492.4619446951394,1.0000612640730293,0.0002993388305121658
1492.4688892404397,1492.4688892404397,0.9999179413977979,0.00029925575698596394
1492.475833785647,1492.475833785647,0.9998424962124363,0.0002991975975418594
1492.482778330761,1492.482778330761,1.0001958297221603,0.0002993207507388296
1492.4897228755954,1492.4897228755954,1.000300509541982,0.00029933956663022156
1492.496667420337,1492.496667420337,1.0001185827388617,0.0002993444624775641
1492.5036119651718,1492.5036119651718,1.0001636648353833,0.00029936414119575034
1492.5105565096333,1492.5105565096333,0.9995237585739603,0.0002991992266702511
1492.5175010540027,1492.5175010540027,1.0001937381026813,0.00029939344223332576
1492.5244455983716,1492.5244455983716,0.9993258205198636,0.0002992481273281038
1492.5313901423679,1492.5313901423679,0.999798913032555,0.0002992144946237136
1492.5383346863644,1492.5383346863644,0.9997967098133616,0.00029918640523854894
1492.5452792303608,1492.5452792303608,1.0002077339236124,0.0002992627763098631
1492.5522237741707,1492.5522237741707,0.9999612879160207,0.0002992641309563835
1492.5591683177947,1492.5591683177947,1.0007603142984387,0.00029946575254573
1492.5661128612326,1492.5661128612326,0.9999389703441132,0.000299338802643757
1492.5730574046697,1492.5730574046697,1.0000729378698785,0.00029932708510336734
1492.580001947828,1492.580001947828,1.0004530976350063,0.0002993897371384547
1492.586946490986,1492.586946490986,0.9998883089235451,0.0002992511696057426
1492.5938910340512,1492.5938910340512,0.9996902742431846,0.00029925666508448496
1492.6008355768377,1492.6008355768377,0.999475813430853,0.0002992945805690362
1492.607780119623,1492.607780119623,1.000134773598134,0.00029928321672823384
1492.6147246622227,1492.6147246622227,0.9998690481398185,0.00029923205313452594
1492.6216692047287,1492.6216692047287,1.0000972709329266,0.0002993502339693275
1492.628613746956,1492.628613746956,1.0004707259908499,0.00029931649678800027
1492.6355582891827,1492.6355582891827,0.9995547208777348,0.00029918964479245413
1492.6425028313163,1492.6425028313163,1.0001229981849837,0.00029933201771294615
1492.6494473730777,1492.6494473730777,1.0002629814336335,0.0002993018082276818
1492.6563919152113,1492.6563919152113,1.000174678686538,0.00029922865449050695
1492.6633364568793,1492.6633364568793,0.9996796293170982,0.0002992519210542409
1492.670280998268,1492.670280998268,0.9996916007198557,0.0002992700778706323
1492.6772255397498,1492.6772255397498,1.00030325509337,0.0002993596134154156
1492.6841700809523,1492.6841700809523,1.0000173255801812,0.0002992689277570708
1492.691114622248,1492.691114622248,0.9999011490141492,0.0002992647480852523
1492.6980591631711,1492.6980591631711,0.9998037596773373,0.0002993268298772093
1492.7050037040938,1492.7050037040938,1.000171968243035,0.0002993186651510154
1492.7119482449239,1492.7119482449239,1.000220565042824,0.0002992275184541516
1492.7188927855675,1492.7188927855675,1.000200852530289,0.0002992659031421887
1492.7258373262111,1492.7258373262111,0.9996113804994853,0.00029922656023644706
1492.7327818664821,1492.7327818664821,0.9997802248714833,0.0002992937553409515
1492.7397264067536,1492.7397264067536,1.000496135109639,0.0002993515908661276
1492.746670946931,1492.746670946931,1.0001965511648503,0.00029932748580400667
1492.7536154868299,1492.7536154868299,1.0000875907067686,0.00029926705506112724
1492.7605600267289,1492.7605600267289,1.0000796109024748,0.00029925246937045165
1492.7675045665342,1492.7675045665342,1.0002673839763525,0.0002992326591926332
1492.7744491061535,1492.7744491061535,0.9995521977606382,0.0002992826838466705
1492.7813936456794,1492.7813936456794,1.0002563982873327,0.0002993593565422328
1492.7883381850193,1492.7883381850193,0.9999656701219406,0.00029924230929739896
1492.7952827243587,1492.7952827243587,0.9997529731440581,0.0002992242649831938
1492.8022272632331,1492.8022272632331,1.0000267497014765,0.00029922414861625044
1492.8091718022938,1492.8091718022938,1.0001302991694039,0.0002993657698270746
1492.8161163411676,1492.8161163411676,0.9997565541242752,0.00029921643503230997
1492.8230608798556,1492.8230608798556,1.0007389337951935,0.000299339314664303
1492.8300054184506,1492.8300054184506,0.9996414826729445,0.00029934373433301024
1492.8369499568585,1492.8369499568585,1.000234966291441,0.00029931365378672945
1492.8438944951743,1492.8438944951743,1.0000189444331986,0.00029933929484537064
1492.8508390333964,1492.8508390333964,0.9998705010698095,0.00029926137336715484
1492.8577835715255,1492.8577835715255,1.0004891591791538,0.0002993640287784308
1492.8647281093752,1492.8647281093752,1.0008221716333496,0.0002994098158094963
1492.8716726472248,1492.8716726472248,0.9999988321983497,0.0002992790869564379
1492.878617184981,1492.878617184981,0.9998635269560925,0.000299288535384217
1492.8855617224583,1492.8855617224583,0.9999750407929963,0.0002993954437924489
1492.8925062598428,1492.8925062598428,0.999734463514416,0.00029925624317302113
1492.8994507972263,1492.8994507972263,1.0004309617163862,0.0002993109984480124
1492.906395334238,1492.906395334238,1.0001462499609617,0.00029929245270195095
1492.9133398712493,1492.9133398712493,0.9994669332964676,0.0002992573644631882
1492.9202844082604,1492.9202844082604,1.0001743459855823,0.0002993159321313738
1492.9272289451796,1492.9272289451796,0.9998485627674183,0.0002992607403209069
1492.9341734818186,1492.9341734818186,0.9996009992803035,0.0002992128235748511
1492.9411180182713,1492.9411180182713,1.00001988484621,0.0002993271369105674
1492.948062554724,1492.948062554724,1.0005895493721917,0.0002993526541249824
1492.9550070909906,1492.9550070909906,1.0002556275404113,0.0002993131055085798
1492.9619516270707,1492.9619516270707,0.9997263049875753,0.000299240220263571
1492.9688961630575,1492.9688961630575,1.0005835134174783,0.0002993281461386607
1492.9758406990445,1492.9758406990445,1.0001223426820496,0.00029936089784601475
1492.982785234752,1492.982785234752,0.9995363491230055,0.00029919163217886256
1492.9897297703665,1492.9897297703665,1.0001669942390758,0.00029933857672382415
1492.9966743058878,1492.9966743058878,0.9995410421540332,0.00029915128898724103
1493.0036188413162,1493.0036188413162,1.0002350708337342,0.0002993158341486232
1493.0105633765581,1493.0105633765581,1.0002494287219512,0.00029929326869425983
1493.0175079116138,1493.0175079116138,1.000068721797087,0.0002993230295868386
1493.0244524466696,1493.0244524466696,0.9999728265673632,0.0002991982132272178
1493.0313969813526,1493.0313969813526,0.999888728809462,0.00029920344942424776
1493.0383415160359,1493.0383415160359,0.999997786262661,0.0002992394154661831
1493.0452860507191,1493.0452860507191,0.9999556970808392,0.00029925249086221666
1493.0522305854024,1493.0522305854024,0.9998459572757428,0.00029921793500608434
1493.0591751196196,1493.0591751196196,1.0004748802044405,0.0002992650437464799
1493.0661196539306,1493.0661196539306,0.9998601390045669,0.000299158884288818
1493.0730641879613,1493.0730641879613,0.9999769961090627,0.00029929734170281705
1493.0800087219927,1493.0800087219927,0.9997934411879384,0.0002992732711711171
1493.086953255838,1493.086953255838,0.9997195179722482,0.00029918878075593254
1493.0938977894966,1493.0938977894966,0.9999929442938728,0.0002991603342307995
1493.1008423231558,1493.1008423231558,0.999988193075761,0.00029928556425064343
1493.1077868565349,1493.1077868565349,1.0005462454556526,0.00029937042720390493
1493.1147313899141,1493.1147313899141,0.999496874887561,0.0002992381486302769
1493.121675923107,1493.121675923107,1.0001978271484133,0.00029938936807553777
1493.1286204561143,1493.1286204561143,1.0008548428195505,0.00029938313390863626
1493.135564989121,1493.135564989121,0.9995780628167189,0.00029929971987025867
1493.1425095219415,1493.1425095219415,1.0008505541552466,0.0002993812487748891
1493.149454054669,1493.149454054669,0.9996734290344783,0.0002993126395885242
1493.15639858721,1493.15639858721,0.9998353766600703,0.0002994006315736966
1493.163343119844,1493.163343119844,0.9999312914401213,0.0002993455626837917
1493.1702876521063,1493.1702876521063,1.0000775725754356,0.0002993482230120024
1493.1772321840886,1493.1772321840886,1.0001394709667308,0.0002994296673742077
1493.184176716257,1493.184176716257,0.999962062152966,0.00029935937415986847
1493.1911212481464,1493.1911212481464,0.9999376465734316,0.0002993407611203911
1493.1980657800354,1493.1980657800354,0.9998120133023644,0.00029928994826738215
1493.2050103116449,1493.2050103116449,1.0002721270374628,0.00029937102917005715
1493.211954843255,1493.211954843255,0.9996852493109405,0.00029927868353643653
1493.218899374679,1493.218899374679,0.9998772459726475,0.0002993101256266137
1493.225843906009,1493.225843906009,1.0005061317517168,0.0002993794525892082
1493.2327884372462,1493.2327884372462,0.9999066366372041,0.00029926095103049283
1493.239732968204,1493.239732968204,1.0001311632198546,0.0002992659010282014
1493.2466774990685,1493.2466774990685,1.0001866900800451,0.00029931977344336365
1493.2536220299335,1493.2536220299335,0.99953665021985,0.00029928674784550493
1493.2605665606122,1493.2605665606122,0.9999160301898009,0.0002993489363736688
1493.2675110911973,1493.2675110911973,1.000306379985524,0.0002993395142454695
1493.2744556215966,1493.2744556215966,0.9997660504062447,0.00029932053851476116
1493.2814001518095,1493.2814001518095,1.0003596476162497,0.0002994060386532978
1493.288344682209,1493.288344682209,0.9998485789699061,0.00029931974431557146
1493.2952892122353,1493.2952892122353,1.0000409210779346,0.00029931465789046207
1493.3022337419827,1493.3022337419827,0.9994147678533174,0.0002992101963349979
1493.309178271823,1493.309178271823,1.0004912091363733,0.00029936831129029725
1493.3161228014767,1493.3161228014767,1.0003802432731228,0.00029936136765806317
1493.3230673310377,1493.3230673310377,0.9998925262286799,0.00029938925550702374
1493.3300118604125,1493.3300118604125,0.9999229789397027,0.00029938457020819493
1493.336956389787,1493.336956389787,1.0003012189182563,0.00029935322364327467
1493.3439009188824,1493.3439009188824,0.999795476933601,0.0002993732589410404
1493.3508454478845,1493.3508454478845,1.0001530939946892,0.00029940657243485863
1493.3577899767931,1493.3577899767931,1.000207747380294,0.00029937658276506685
1493.3647345056092,1493.3647345056092,0.9994099543551048,0.0002992900961240246
1493.371679034332,1493.371679034332,1.0003611006676063,0.00029937466140129564
1493.3786235627751,1493.3786235627751,0.9994828518826682,0.00029932318944974945
1493.3855680912184,1493.3855680912184,1.00018295273065,0.00029941136480126615
1493.3925126194758,1493.3925126194758,1.0002475164960465,0.0002993790102024593
