time,time,flux,flux_err
1570.544134170026,1570.544134170026,1.0151844148126503,0.020819971566287614
1570.552467665107,1570.552467665107,1.0112945645830296,0.02071480475147821
1570.559412244419,1570.559412244419,0.9880063899011529,0.020635069430881135
1570.566356823731,1570.566356823731,0.9606318004709171,0.020561477524238807
1570.5733014031373,1570.5733014031373,1.0232055223579857,0.020479567721425677
1570.5802459826352,1570.5802459826352,1.0204714362561662,0.020411246504101574
1570.5871905621334,1570.5871905621334,0.9607329830657971,0.020303484019735397
1570.5941351417248,1570.5941351417248,1.0010818415940452,0.020246555692332538
1570.6010797213166,1570.6010797213166,0.9826788128047201,0.020146134063474975
1570.6085798673096,1570.6085798673096,0.9876848208136085,0.020060044240208574
1570.6163577965488,1570.6163577965488,1.0150188254948829,0.019977632417433024
1570.6233023763264,1570.6233023763264,0.9992661640392283,0.019874641140896546
1570.6308025225048,1570.6308025225048,1.0053529087118465,0.019742143426516846
1570.6385804520244,1570.6385804520244,0.9924678883931447,0.019620809563506654
1570.6455250318022,1570.6455250318022,1.004760281457353,0.01954181646314972
1570.652469611859,1570.652469611859,1.0019075443479637,0.019490302544856522
1570.6594141918226,1570.6594141918226,0.9753679798322453,0.019370470682252963
1570.66635877188,1570.66635877188,0.999280524820246,0.019217086898416717
1570.6733033518449,1570.6733033518449,1.0040314671309858,0.019160049860692703
1570.6802479319952,1570.6802479319952,1.0037080530668583,0.01911703349904276
1570.6871925121454,1570.6871925121454,1.0262926748111418,0.019096238848004692
1570.6941370923885,1570.6941370923885,1.0067292421166878,0.019049352093266796
1570.7010816725385,1570.7010816725385,1.0112835995815905,0.01902549051849951
1570.708026252876,1570.708026252876,1.0175050985453242,0.018952440555741003
1570.7149708332124,1570.7149708332124,0.9877682956353734,0.018870719084747394
1570.721915413456,1570.721915413456,0.9999088550654129,0.018818804037358007
1570.7288599938852,1570.7288599938852,1.0310751116169985,0.01871892697135045
1570.7358045742217,1570.7358045742217,0.9906222205515854,0.018636243491809503
1570.742749154746,1570.742749154746,0.9869961305453991,0.018615810250823348
1570.749693735175,1570.749693735175,0.9942614332402877,0.01852934888973925
1570.7566383156977,1570.7566383156977,0.9974349145204352,0.018453885289799275
1570.7635828962204,1570.7635828962204,0.9982684090850601,0.01833173313457653
1570.7705274768364,1570.7705274768364,1.0128923531182528,0.018215267778626032
1570.7774720574532,1570.7774720574532,1.014397757852952,0.018113671177506663
1570.7844166380687,1570.7844166380687,0.9923861084549663,0.018007652442771357
1570.7913612186846,1570.7913612186846,0.9978959882285625,0.017937749179641714
1570.7983057993938,1570.7983057993938,0.9901265968376919,0.017801157275062023
1570.8052503801023,1570.8052503801023,0.9905878936338848,0.01766502351717326
1570.8121949608128,1570.8121949608128,0.9984300067718547,0.017593001962793023
1570.8191395416147,1570.8191395416147,1.009594284228648,0.017510296471947316
1570.826084122417,1570.826084122417,1.0175695118967232,0.017442305855634936
1570.833028703219,1570.833028703219,1.0032222783612355,0.01735011222204221
1570.839973284114,1570.839973284114,0.9808650980904835,0.017307196912978638
1570.8469178649175,1570.8469178649175,1.0011488218877729,0.01723964369022076
1570.8538624459056,1570.8538624459056,1.0066018744393996,0.017167865604180835
1570.8608070267076,1570.8608070267076,1.0079728521682545,0.01710912339453794
1570.8677516077892,1570.8677516077892,1.03619674898486,0.017079368289816023
1570.874696188591,1570.874696188591,0.9864690213792432,0.017005867189119932
1570.8827519026618,1570.8827519026618,0.9899594329785708,0.016983130392218073
1570.8899742667109,1570.8899742667109,0.9882125848804433,0.01694901858060986
1570.8969188478852,1570.8969188478852,0.9809483105904915,0.01690798556625752
1570.9038634290598,1570.9038634290598,1.0022929063901558,0.016858895719942167
1570.9108080099552,1570.9108080099552,1.0042207135639,0.01681274760808625
1570.9177525909447,1570.9177525909447,1.0216585670990153,0.016763413865246463
1570.924697172119,1570.924697172119,0.9800351184135951,0.01674164273119812
1570.9316417532934,1570.9316417532934,1.0187397889535699,0.016708503410662833
1570.9385863344683,1570.9385863344683,1.0258167939938687,0.0166711097021607
1570.945530915643,1570.945530915643,0.9994076030146957,0.016607946404195488
1570.9524754968186,1570.9524754968186,1.0062123474029978,0.016533042854929767
1570.9594200779934,1570.9594200779934,1.0062166273430975,0.016466250886607917
1570.9663646591675,1570.9663646591675,0.9977744352434834,0.016420849668008664
1570.9733092403424,1570.9733092403424,1.0056150003584041,0.016407367395769194
1570.9802538215167,1570.9802538215167,0.9990535320478706,0.016373460809254246
1570.9871984026925,1570.9871984026925,0.9932559969666848,0.016337570573490695
1570.9941429838675,1570.9941429838675,1.0058714629892973,0.016270237923876434
1571.0010875654145,1571.0010875654145,1.0118456673658474,0.016207512461116284
1571.008032146682,1571.008032146682,1.0001880104016063,0.016112659672505546
1571.0149767278567,1571.0149767278567,1.0082909475277095,0.01604164560870445
1571.021921309032,1571.021921309032,0.9753008102750707,0.015953673897329223
1571.0288658904865,1571.0288658904865,0.9974182681057006,0.015865863586570973
1571.035810471847,1571.035810471847,1.0009716516196705,0.015765160260203227
1571.0427550530217,1571.0427550530217,0.9928027788230451,0.01567342417665567
1571.0496996343827,1571.0496996343827,1.0072492650492826,0.015592949676325355
1571.0566442158372,1571.0566442158372,1.0107921496816448,0.01552182291015038
1571.0635887970125,1571.0635887970125,0.9914316791266738,0.015488895926898902
1571.0705333785595,1571.0705333785595,1.0069321892844219,0.015443488368249686
1571.0774779598273,1571.0774779598273,1.0032020670225916,0.015416369608962466
1571.084422541188,1571.084422541188,1.0038338480252857,0.01538637568329702
1571.0913671226426,1571.0913671226426,1.0089104035084735,0.015367147797898375
1571.098311703818,1571.098311703818,1.0197111828217023,0.015412006354922611
1571.105256285458,1571.105256285458,0.9870565586769606,0.015382690038675748
1571.112200866633,1571.112200866633,0.9897198664804566,0.015387620690702902
1571.1191454482728,1571.1191454482728,0.986585518986059,0.015357874283850862
1571.1260900294476,1571.1260900294476,0.9948485977916048,0.015292893435026749
1571.1330346109958,1571.1330346109958,0.9959821511232996,0.015207984106144629
1571.1399791922636,1571.1399791922636,0.9794092167763218,0.015138475770709911
1571.1469237738106,1571.1469237738106,0.9994375586962813,0.015068191118198761
1571.1538683550782,1571.1538683550782,1.020391636696122,0.014977685918452683
1571.1608129366255,1571.1608129366255,0.9992153026553361,0.014886437640657137
1571.167757517894,1571.167757517894,1.0091531272996588,0.01478086781436341
1571.1747020995347,1571.1747020995347,0.9941356679285622,0.014669043941458964
1571.1816466807093,1571.1816466807093,0.9980065833128705,0.014624834435358624
1571.1885912623493,1571.1885912623493,1.0171050242197244,0.014577964147183908
1571.1955358435239,1571.1955358435239,1.0051399319536216,0.014555104481706571
1571.2024804251648,1571.2024804251648,1.0042181975151079,0.014523190637479703
1571.20942500634,1571.20942500634,0.9960086179272502,0.014512321875458756
1571.2163695879801,1571.2163695879801,0.9982053240101306,0.014513253907589141
1571.223314169248,1571.223314169248,0.9931860425726583,0.01446926019038607
1571.230258750795,1571.230258750795,0.9906349336814733,0.014478996470582631
1571.2372033320632,1571.2372033320632,1.005183597496053,0.014421690448569266
1571.244147913611,1571.244147913611,0.9873982992880788,0.014403402293615924
1571.2510924947856,1571.2510924947856,0.982178802046772,0.014382780352166035
1571.2580370764258,1571.2580370764258,1.015758465407456,0.01438502677506066
1571.2649816576002,1571.2649816576002,1.0161431461449046,0.014309497778670239
1571.2719262392407,1571.2719262392407,0.9997339186348488,0.014296275268828438
1571.2788708204166,1571.2788708204166,1.0119879014616646,0.014244120072606059
1571.2858154018702,1571.2858154018702,1.006204562856509,0.014237759822657866
1571.2927599832312,1571.2927599832312,0.9959876839891206,0.014159000537788121
1571.299704564592,1571.299704564592,0.9850716777761864,0.014144479067735688
1571.306649146046,1571.306649146046,0.9955716889588381,0.014100257899898957
1571.3135937272214,1571.3135937272214,0.999478508020642,0.014087736981836189
1571.320538308769,1571.320538308769,0.9887524225411571,0.014088059389977226
1571.327482890037,1571.327482890037,1.0042347178383495,0.014078943066389765
1571.334427471211,1571.334427471211,1.0095552590538084,0.014057017770983143
1571.341372052851,1571.341372052851,1.0125457630423125,0.014036514164878994
1571.348316634026,1571.348316634026,1.0072488486215168,0.013998821495529163
1571.3552612152018,1571.3552612152018,0.9988730042740818,0.013920418890033665
1571.3622057966556,1571.3622057966556,0.9829971645948474,0.013882333363934029
1571.3691503780167,1571.3691503780167,0.9932855462486467,0.013861394751760108
1571.376094959191,1571.376094959191,0.9956753426774714,0.013846501106896258
1571.3830395403659,1571.3830395403659,0.9994009954625345,0.013802481218899862
1571.3899841215411,1571.3899841215411,1.0071656879694182,0.013792384595132184
1571.3969287031819,1571.3969287031819,1.0060751066102067,0.013781847282904056
1571.4038732843565,1571.4038732843565,0.9941131057519245,0.013752365210817857
1571.4108178655308,1571.4108178655308,1.019880510338678,0.013751257361310516
1571.4177624467056,1571.4177624467056,0.9948990616385613,0.013688300826679479
1571.42470702788,1571.42470702788,0.99894317269646,0.013686435469136069
1571.4316516090555,1571.4316516090555,0.9911037048054055,0.013649322559625471
1571.4385961902306,1571.4385961902306,1.0062073793237325,0.013638787008406622
1571.4455407714047,1571.4455407714047,0.9894505575228836,0.013621551396790079
1571.4524853525795,1571.4524853525795,0.9870716281112916,0.013607988678860811
1571.4594299337543,1571.4594299337543,1.0082749582114992,0.013589800912495852
1571.4663745149294,1571.4663745149294,1.0032105801331845,0.0135600891356144
1571.4733190961047,1571.4733190961047,1.008667746289574,0.013558667135668029
1571.480263677279,1571.480263677279,1.0163438790760635,0.013551459266090133
1571.4872082584534,1571.4872082584534,0.9958262327950947,0.013562271762064879
1571.4941528391623,1571.4941528391623,1.0109510660943732,0.013552313707439197
1571.5010974203371,1571.5010974203371,0.9985132636513645,0.01356673389701003
1571.5080420015129,1571.5080420015129,0.9976258837430766,0.013537472417651578
1571.5149865826875,1571.5149865826875,1.0011347302848106,0.013505492259173576
1571.5219311633962,1571.5219311633962,0.9939634633151899,0.013488818674071984
1571.528875744571,1571.528875744571,0.9898756770889767,0.013465333135897447
1571.5358203255594,1571.5358203255594,0.9861981119768947,0.013464501783738831
1571.542764906455,1571.542764906455,1.0029741910300303,0.013494178122602386
1571.5497094875368,1571.5497094875368,1.0238061136820773,0.013510454834456485
1571.556654068339,1571.556654068339,1.002104856962477,0.013496646773047589
1571.5635986494206,1571.5635986494206,1.021022780945079,0.01350411842806896
1571.5705432302225,1571.5705432302225,1.0178948824551275,0.013482055134255683
1571.5774878111174,1571.5774878111174,1.0024700143246996,0.013451338530493396
1571.5844323921071,1571.5844323921071,0.9818526221561263,0.013450992672892978
1571.591376972816,1571.591376972816,0.9881664047774711,0.013391283483444918
1571.5983215537112,1571.5983215537112,0.978054300495776,0.013384862231325251
1571.6052661346064,1571.6052661346064,0.9889582916698998,0.013401838309462177
1571.6122107154083,1571.6122107154083,1.0171397963875632,0.013459366934398257
1571.619155296118,1571.619155296118,1.0071047598889895,0.013461204031383922
1571.6260998768278,1571.6260998768278,1.0224856524706527,0.01347848298058714
1571.6330444576297,1571.6330444576297,1.0028583735869634,0.013483300685908384
1571.6399890383386,1571.6399890383386,0.9970578317306107,0.013476447540446957
1571.6469336190476,1571.6469336190476,1.0072349864476549,0.013508490221858443
1571.6538781997563,1571.6538781997563,0.9974886159068997,0.013543210299418457
1571.6608227804659,1571.6608227804659,0.9869183529425992,0.013562670811205768
1571.6677673609895,1571.6677673609895,1.0003377182127875,0.013570525575529294
1571.6747119416982,1571.6747119416982,0.9975914259301566,0.013573991167742022
1571.6816565223137,1571.6816565223137,0.9946314693357483,0.01356999488477364
1571.6886011029296,1571.6886011029296,1.0032290775384058,0.013530298130043786
1571.695545683452,1571.695545683452,0.9807239884947595,0.013500065601673064
1571.7024902639762,1571.7024902639762,1.0073690190670674,0.013480635471213063
1571.709434844499,1571.709434844499,1.000028195558422,0.013434386217924718
1571.7163794249282,1571.7163794249282,1.0017518815804298,0.013423040642717802
1571.7233240055439,1571.7233240055439,0.9994651094562264,0.013370066656441974
1571.7302685858801,1571.7302685858801,1.0137764869968957,0.013301425501377449
1571.7372131663103,1571.7372131663103,1.019829247743841,0.013300534276175455
1571.7441577467407,1571.7441577467407,1.0100710171298166,0.013261868906141245
1571.751102327077,1571.751102327077,0.9924104213889884,0.013198175573087986
1571.7580469075067,1571.7580469075067,0.9851717642357432,0.013189845815058382
1571.7649914878427,1571.7649914878427,0.9909687320712622,0.013176570829440104
1571.7719360681792,1571.7719360681792,1.0212366711597856,0.013192292781132278
1571.778880648423,1571.778880648423,0.9942194845444169,0.013148951369122702
1571.7858252286671,1571.7858252286671,0.9913845672733572,0.013115333531074639
1571.7927698089102,1571.7927698089102,1.0101226715982277,0.013123489311322279
1571.7997143891535,1571.7997143891535,0.9922692106568659,0.013081345413742266
1571.8066589693037,1571.8066589693037,0.9876502584019781,0.013050560602709625
1571.8136035495468,1571.8136035495468,0.9992369900818735,0.01304790359500605
1571.8205481296045,1571.8205481296045,1.011819182893869,0.013027171589414499
1571.8274927098485,1571.8274927098485,1.0136038093543132,0.01301883024005258
1571.8344372898123,1571.8344372898123,0.9938787494777304,0.012987862802255518
1571.8413818698693,1571.8413818698693,1.0097680015640074,0.012975112024550154
1571.848326449833,1571.848326449833,0.9949075642465214,0.013003170622559146
1571.8552710298898,1571.8552710298898,0.9947227575850789,0.012965065591158852
1571.8622156098547,1571.8622156098547,0.9939481783353369,0.012952667901769854
1571.869160189912,1571.869160189912,0.988564999594533,0.012912770112697262
1571.8761047698758,1571.8761047698758,1.011255360436267,0.012960599750015452
1571.8830493496534,1571.8830493496534,1.0061234718503118,0.012932267174499088
1571.889993929617,1571.889993929617,1.0040557557015197,0.012935781354101668
1571.896938509488,1571.896938509488,0.9965941271293494,0.012943149482476754
1571.9038830892666,1571.9038830892666,0.9823679549113965,0.012911003762641645
1571.9108276690445,1571.9108276690445,1.0024932441757763,0.012939769706045962
1571.9177722488218,1571.9177722488218,1.0063039208803475,0.012897475724199553
1571.9247168285995,1571.9247168285995,1.01640156218043,0.012906179111903157
1571.931661408284,1571.931661408284,1.007466715610164,0.012923481591436307
1571.9386059879685,1571.9386059879685,1.002627231097571,0.012906476028365912
1571.9455505676538,1571.9455505676538,0.9969441651297686,0.01293377695848961
1571.9524951473388,1571.9524951473388,0.9959622048722542,0.012903457011797247
1571.959439726837,1571.959439726837,0.9986228269102029,0.012879978000932112
1571.9663843064277,1571.9663843064277,0.9974502609397403,0.012876776594941977
1571.9733288860195,1571.9733288860195,0.9958841227664532,0.012873866566247802
1571.9802734654245,1571.9802734654245,1.0064269194730624,0.012892871060661676
1571.9872180450166,1571.9872180450166,0.9994774184639137,0.012910085682807885
1571.9941626244222,1571.9941626244222,1.0086893182168764,0.012874414628430201
1572.0011072038274,1572.0011072038274,0.9955291743263223,0.0128380192810197
1572.0080517832323,1572.0080517832323,1.0105486080544497,0.012830288615863824
1572.0149963626372,1572.0149963626372,1.0084771698246169,0.012850349136958674
1572.0219409419492,1572.0219409419492,0.9677234129157753,0.012819468750640004
1572.028885521262,1572.028885521262,1.0065854538524939,0.012871118466313322
1572.035830100481,1572.035830100481,1.0057360765794385,0.01285454505578557
1572.0427746797932,1572.0427746797932,0.9990699132203975,0.012867600704957136
1572.049719259012,1572.049719259012,0.9995471081930845,0.012869393057136283
1572.0566638381374,1572.0566638381374,1.0138489712675802,0.01287485115803333
1572.0636084172631,1572.0636084172631,1.0235645116629721,0.012913403724731506
1572.0705529963896,1572.0705529963896,0.9924926404129147,0.012864349781732154
1572.0774975754225,1572.0774975754225,0.9817386488845065,0.012866014640220963
1572.0844421545485,1572.0844421545485,1.0039441336102395,0.012862322077007826
1572.0913867335803,1572.0913867335803,0.9913261760539844,0.012844486445458348
1572.098331312427,1572.098331312427,1.0137944486888657,0.0129013544946769
1572.1052758913663,1572.1052758913663,1.0046237067044386,0.012846279541714379
1572.1122204705855,1572.1122204705855,0.9939227873008243,0.012827610814886791
1572.1191650494325,1572.1191650494325,1.0055922275026434,0.012841146506383617
1572.126109628279,1572.126109628279,0.9967646840986027,0.01279396031204542
1572.133054207125,1572.133054207125,0.9902525426377637,0.012782910210710546
1572.1399987858783,1572.1399987858783,1.0024185907878296,0.012760295891149239
1572.146943364352,1572.146943364352,1.003255036541935,0.012734087223200477
1572.1538879431985,1572.1538879431985,1.0009856267076573,0.012728453030089399
1572.160832522046,1572.160832522046,0.9910238471649843,0.012710760879532134
1572.1677771005193,1572.1677771005193,1.0128983327129992,0.012754737620807
1572.1747216792726,1572.1747216792726,0.9916100133295828,0.012705729950816248
1572.1816662577467,1572.1816662577467,1.0134675908045292,0.012723145677828524
1572.1886108364063,1572.1886108364063,0.9996149569543646,0.01278069272898806
1572.1955554148801,1572.1955554148801,0.9874186444641442,0.012787193375032166
1572.2024999933549,1572.2024999933549,1.0113846213993978,0.012870044342816767
1572.209444571829,1572.209444571829,1.016234425814838,0.01289624498240619
1572.2163891503028,1572.2163891503028,1.0093018573623849,0.012929497980111315
1572.223333728683,1572.223333728683,0.97174689221059,0.012877646449620814
1572.2302783069704,1572.2302783069704,0.9853216488689192,0.012909733647366273
1572.2372228853508,1572.2372228853508,0.9924320809270304,0.01289787335526833
1572.2441674636395,1572.2441674636395,0.987447521434925,0.012898483742007213
1572.2511120418342,1572.2511120418342,0.9892460865550019,0.012862795258682605
1572.2580566200281,1572.2580566200281,1.0090466127870648,0.012855614583773023
1572.265001198223,1572.265001198223,1.0153027464393993,0.012804892615073536
1572.2719457763242,1572.2719457763242,0.995799317914036,0.012776204444672664
1572.2788903545184,1572.2788903545184,1.0130326719969556,0.012750279890257493
1572.285834932527,1572.285834932527,1.0050785136248066,0.012687301175622726
1572.2927795105356,1572.2927795105356,1.0045666174792511,0.012618099493505916
1572.2997240885438,1572.2997240885438,0.9893273105657411,0.0125773505468666
1572.306668666459,1572.306668666459,0.9963186252503619,0.012580319326905492
1572.3136132444665,1572.3136132444665,1.0105121875937473,0.012593400860180362
1572.3205578222885,1572.3205578222885,0.9807115475408574,0.012552843995636559
1572.3275024002037,1572.3275024002037,0.9932704558159017,0.012593831294004165
1572.3344469779333,1572.3344469779333,1.0173395033887833,0.012588747601321415
